# Temperatura_=_64.31
# Concentracion g/m^3_=_10000.0
# C_Vs_to_Am_M_A/Vsm_=_65563218390.804596
# pendiente_HvsI_1/m_=_3716.3
# ordenada_HvsI_A/m_=_1297.0
# frecuencia_Hz_=_302618.8457037771

Tiempo_(s)	Campo_(V.s)	Magnetizacion_(V.s)	Campo_(kA/m)	Magnetizacion_(A/m)
0.000000e+00	-7.888378e-06	-1.120074e-08	-5.681528e+01	-7.337419e+02
1.000000e-08	-7.883894e-06	-1.119949e-08	-5.678299e+01	-7.333117e+02
2.000000e-08	-7.876888e-06	-1.119186e-08	-5.673253e+01	-7.327712e+02
3.000000e-08	-7.867201e-06	-1.118199e-08	-5.666276e+01	-7.321347e+02
4.000000e-08	-7.854616e-06	-1.117188e-08	-5.657211e+01	-7.314155e+02
5.000000e-08	-7.839039e-06	-1.116097e-08	-5.645993e+01	-7.306245e+02
6.000000e-08	-7.820817e-06	-1.114925e-08	-5.632868e+01	-7.297691e+02
7.000000e-08	-7.800391e-06	-1.113612e-08	-5.618156e+01	-7.288524e+02
8.000000e-08	-7.777486e-06	-1.113042e-08	-5.601659e+01	-7.278734e+02
9.000000e-08	-7.751521e-06	-1.115527e-08	-5.582959e+01	-7.268270e+02
1.000000e-07	-7.722384e-06	-1.114161e-08	-5.561973e+01	-7.257058e+02
1.100000e-07	-7.690380e-06	-1.108592e-08	-5.538922e+01	-7.245006e+02
1.200000e-07	-7.655618e-06	-1.104718e-08	-5.513885e+01	-7.232016e+02
1.300000e-07	-7.618351e-06	-1.101304e-08	-5.487044e+01	-7.217999e+02
1.400000e-07	-7.578968e-06	-1.096797e-08	-5.458679e+01	-7.202878e+02
1.500000e-07	-7.537379e-06	-1.092214e-08	-5.428725e+01	-7.186590e+02
1.600000e-07	-7.493276e-06	-1.093825e-08	-5.396960e+01	-7.169090e+02
1.700000e-07	-7.446499e-06	-1.093257e-08	-5.363269e+01	-7.150342e+02
1.800000e-07	-7.396917e-06	-1.085039e-08	-5.327559e+01	-7.130316e+02
1.900000e-07	-7.344324e-06	-1.086174e-08	-5.289679e+01	-7.108982e+02
2.000000e-07	-7.288891e-06	-1.080902e-08	-5.249754e+01	-7.086307e+02
2.100000e-07	-7.230804e-06	-1.072397e-08	-5.207917e+01	-7.062251e+02
2.200000e-07	-7.170055e-06	-1.071542e-08	-5.164163e+01	-7.036772e+02
2.300000e-07	-7.106753e-06	-1.067515e-08	-5.118571e+01	-7.009827e+02
2.400000e-07	-7.040752e-06	-1.064774e-08	-5.071034e+01	-6.981383e+02
2.500000e-07	-6.972068e-06	-1.059160e-08	-5.021565e+01	-6.951419e+02
2.600000e-07	-6.900767e-06	-1.056262e-08	-4.970211e+01	-6.919936e+02
2.700000e-07	-6.826648e-06	-1.050402e-08	-4.916827e+01	-6.886957e+02
2.800000e-07	-6.749795e-06	-1.044393e-08	-4.861475e+01	-6.852530e+02
2.900000e-07	-6.670193e-06	-1.040331e-08	-4.804143e+01	-6.816717e+02
3.000000e-07	-6.588004e-06	-1.033983e-08	-4.744947e+01	-6.779592e+02
3.100000e-07	-6.503629e-06	-1.029367e-08	-4.684177e+01	-6.741224e+02
3.200000e-07	-6.417028e-06	-1.022533e-08	-4.621803e+01	-6.701664e+02
3.300000e-07	-6.328066e-06	-1.016269e-08	-4.557729e+01	-6.660937e+02
3.400000e-07	-6.236734e-06	-1.009876e-08	-4.491948e+01	-6.619030e+02
3.500000e-07	-6.143201e-06	-1.003391e-08	-4.424582e+01	-6.575889e+02
3.600000e-07	-6.047475e-06	-9.965170e-09	-4.355636e+01	-6.531425e+02
3.700000e-07	-5.949491e-06	-9.888330e-09	-4.285064e+01	-6.485517e+02
3.800000e-07	-5.849374e-06	-9.817499e-09	-4.212955e+01	-6.438032e+02
3.900000e-07	-5.747255e-06	-9.741772e-09	-4.139405e+01	-6.388835e+02
4.000000e-07	-5.643093e-06	-9.665365e-09	-4.064384e+01	-6.337812e+02
4.100000e-07	-5.536870e-06	-9.578652e-09	-3.987878e+01	-6.284880e+02
4.200000e-07	-5.428666e-06	-9.500463e-09	-3.909944e+01	-6.229998e+02
4.300000e-07	-5.318613e-06	-9.425015e-09	-3.830680e+01	-6.173170e+02
4.400000e-07	-5.206634e-06	-9.339246e-09	-3.750028e+01	-6.114439e+02
4.500000e-07	-5.092543e-06	-9.242936e-09	-3.667855e+01	-6.053875e+02
4.600000e-07	-4.976433e-06	-9.148590e-09	-3.584228e+01	-5.991559e+02
4.700000e-07	-4.858528e-06	-9.050670e-09	-3.499308e+01	-5.927560e+02
4.800000e-07	-4.738863e-06	-8.943736e-09	-3.413121e+01	-5.861916e+02
4.900000e-07	-4.617442e-06	-8.841415e-09	-3.325668e+01	-5.794618e+02
5.000000e-07	-4.494341e-06	-8.739550e-09	-3.237006e+01	-5.725603e+02
5.100000e-07	-4.369587e-06	-8.630552e-09	-3.147153e+01	-5.654751e+02
5.200000e-07	-4.243289e-06	-8.512770e-09	-3.056188e+01	-5.581891e+02
5.300000e-07	-4.115417e-06	-8.395966e-09	-2.964089e+01	-5.506826e+02
5.400000e-07	-3.986047e-06	-8.277037e-09	-2.870912e+01	-5.429347e+02
5.500000e-07	-3.855203e-06	-8.154289e-09	-2.776673e+01	-5.349260e+02
5.600000e-07	-3.722844e-06	-8.025265e-09	-2.681343e+01	-5.266410e+02
5.700000e-07	-3.589105e-06	-7.893231e-09	-2.585018e+01	-5.180695e+02
5.800000e-07	-3.453963e-06	-7.756284e-09	-2.487684e+01	-5.092073e+02
5.900000e-07	-3.317405e-06	-7.615172e-09	-2.389329e+01	-5.000560e+02
6.000000e-07	-3.179585e-06	-7.473004e-09	-2.290066e+01	-4.906212e+02
6.100000e-07	-3.040545e-06	-7.327043e-09	-2.189923e+01	-4.809107e+02
6.200000e-07	-2.900144e-06	-7.176612e-09	-2.088801e+01	-4.709308e+02
6.300000e-07	-2.758442e-06	-7.021373e-09	-1.986741e+01	-4.606842e+02
6.400000e-07	-2.615671e-06	-6.863863e-09	-1.883912e+01	-4.501664e+02
6.500000e-07	-2.471968e-06	-6.698293e-09	-1.780411e+01	-4.393650e+02
6.600000e-07	-2.327381e-06	-6.524334e-09	-1.676274e+01	-4.282584e+02
6.700000e-07	-2.181948e-06	-6.343687e-09	-1.571527e+01	-4.168176e+02
6.800000e-07	-2.035730e-06	-6.157606e-09	-1.466215e+01	-4.050077e+02
6.900000e-07	-1.888879e-06	-5.969757e-09	-1.360447e+01	-3.927915e+02
7.000000e-07	-1.741522e-06	-5.778927e-09	-1.254314e+01	-3.801336e+02
7.100000e-07	-1.593617e-06	-5.581558e-09	-1.147788e+01	-3.670038e+02
7.200000e-07	-1.445184e-06	-5.374633e-09	-1.040880e+01	-3.533798e+02
7.300000e-07	-1.296344e-06	-5.160066e-09	-9.336792e+00	-3.392494e+02
7.400000e-07	-1.147139e-06	-4.938772e-09	-8.262160e+00	-3.246094e+02
7.500000e-07	-9.975495e-07	-4.710334e-09	-7.184754e+00	-3.094635e+02
7.600000e-07	-8.476073e-07	-4.472790e-09	-6.104810e+00	-2.938185e+02
7.700000e-07	-6.973362e-07	-4.228379e-09	-5.022497e+00	-2.776780e+02
7.800000e-07	-5.467976e-07	-3.975932e-09	-3.938257e+00	-2.610364e+02
7.900000e-07	-3.960707e-07	-3.715778e-09	-2.852661e+00	-2.438732e+02
8.000000e-07	-2.452037e-07	-3.447087e-09	-1.766056e+00	-2.261482e+02
8.100000e-07	-9.422815e-08	-3.164425e-09	-6.786692e-01	-2.077991e+02
8.200000e-07	5.681600e-08	-2.869439e-09	4.092118e-01	-1.887423e+02
8.300000e-07	2.078765e-07	-2.561044e-09	1.497211e+00	-1.688774e+02
8.400000e-07	3.588961e-07	-2.239299e-09	2.584914e+00	-1.480943e+02
8.500000e-07	5.098362e-07	-1.904071e-09	3.672046e+00	-1.262843e+02
8.600000e-07	6.606686e-07	-1.556670e-09	4.758402e+00	-1.033524e+02
8.700000e-07	8.113134e-07	-1.192758e-09	5.843407e+00	-7.923097e+01
8.800000e-07	9.616445e-07	-8.089442e-10	6.926152e+00	-5.389218e+01
8.900000e-07	1.111650e-06	-4.096903e-10	8.006549e+00	-2.735895e+01
9.000000e-07	1.261274e-06	3.663486e-12	9.084208e+00	2.882628e-01
9.100000e-07	1.410362e-06	4.322579e-10	1.015800e+01	2.890891e+01
9.200000e-07	1.558927e-06	8.812899e-10	1.122802e+01	5.830505e+01
9.300000e-07	1.706998e-06	1.346232e-09	1.229449e+01	8.822913e+01
9.400000e-07	1.854531e-06	1.816593e-09	1.335708e+01	1.183965e+02
9.500000e-07	2.001475e-06	2.283049e-09	1.441543e+01	1.485013e+02
9.600000e-07	2.147699e-06	2.739777e-09	1.546860e+01	1.782345e+02
9.700000e-07	2.293045e-06	3.183752e-09	1.651544e+01	2.073028e+02
9.800000e-07	2.437533e-06	3.609027e-09	1.755610e+01	2.354448e+02
9.900000e-07	2.581115e-06	4.013303e-09	1.859024e+01	2.624459e+02
1.000000e-06	2.723683e-06	4.396686e-09	1.961706e+01	2.881479e+02
1.010000e-06	2.865170e-06	4.761087e-09	2.063611e+01	3.124535e+02
1.020000e-06	3.005457e-06	5.104487e-09	2.164652e+01	3.353265e+02
1.030000e-06	3.144550e-06	5.428709e-09	2.264832e+01	3.567861e+02
1.040000e-06	3.282402e-06	5.735698e-09	2.364119e+01	3.768974e+02
1.050000e-06	3.418925e-06	6.024939e-09	2.462448e+01	3.957596e+02
1.060000e-06	3.554202e-06	6.295939e-09	2.559880e+01	4.134924e+02
1.070000e-06	3.688215e-06	6.550364e-09	2.656402e+01	4.302221e+02
1.080000e-06	3.820867e-06	6.793251e-09	2.751943e+01	4.460705e+02
1.090000e-06	3.952160e-06	7.024846e-09	2.846505e+01	4.611446e+02
1.100000e-06	4.082062e-06	7.244399e-09	2.940066e+01	4.755316e+02
1.110000e-06	4.210502e-06	7.452423e-09	3.032574e+01	4.892953e+02
1.120000e-06	4.337480e-06	7.651100e-09	3.124028e+01	5.024777e+02
1.130000e-06	4.462956e-06	7.842890e-09	3.214401e+01	5.151021e+02
1.140000e-06	4.586881e-06	8.026046e-09	3.303657e+01	5.271779e+02
1.150000e-06	4.709215e-06	8.196888e-09	3.391767e+01	5.387077e+02
1.160000e-06	4.829868e-06	8.358394e-09	3.478666e+01	5.496922e+02
1.170000e-06	4.948800e-06	8.514192e-09	3.564325e+01	5.601360e+02
1.180000e-06	5.065880e-06	8.665455e-09	3.648651e+01	5.700504e+02
1.190000e-06	5.180982e-06	8.808934e-09	3.731552e+01	5.794553e+02
1.200000e-06	5.294159e-06	8.946899e-09	3.813067e+01	5.883785e+02
1.210000e-06	5.405391e-06	9.079775e-09	3.893181e+01	5.968541e+02
1.220000e-06	5.514695e-06	9.207198e-09	3.971906e+01	6.049195e+02
1.230000e-06	5.622053e-06	9.331680e-09	4.049230e+01	6.126118e+02
1.240000e-06	5.727317e-06	9.447335e-09	4.125045e+01	6.199648e+02
1.250000e-06	5.830428e-06	9.553355e-09	4.199310e+01	6.270065e+02
1.260000e-06	5.931425e-06	9.651861e-09	4.272052e+01	6.337576e+02
1.270000e-06	6.030257e-06	9.746836e-09	4.343234e+01	6.402316e+02
1.280000e-06	6.126840e-06	9.839031e-09	4.412797e+01	6.464358e+02
1.290000e-06	6.221185e-06	9.925681e-09	4.480749e+01	6.523730e+02
1.300000e-06	6.313283e-06	1.000971e-08	4.547081e+01	6.580440e+02
1.310000e-06	6.403158e-06	1.009216e-08	4.611813e+01	6.634504e+02
1.320000e-06	6.490724e-06	1.017275e-08	4.674882e+01	6.685960e+02
1.330000e-06	6.575987e-06	1.024829e-08	4.736291e+01	6.734887e+02
1.340000e-06	6.658975e-06	1.031792e-08	4.796062e+01	6.781404e+02
1.350000e-06	6.739522e-06	1.038453e-08	4.854076e+01	6.825664e+02
1.360000e-06	6.817529e-06	1.044871e-08	4.910260e+01	6.867844e+02
1.370000e-06	6.892978e-06	1.051147e-08	4.964601e+01	6.908118e+02
1.380000e-06	6.965838e-06	1.057193e-08	5.017078e+01	6.946639e+02
1.390000e-06	7.036151e-06	1.062899e-08	5.067720e+01	6.983522e+02
1.400000e-06	7.103981e-06	1.068208e-08	5.116574e+01	7.018827e+02
1.410000e-06	7.169281e-06	1.073314e-08	5.163606e+01	7.052555e+02
1.420000e-06	7.232044e-06	1.078255e-08	5.208810e+01	7.084654e+02
1.430000e-06	7.292383e-06	1.082820e-08	5.252269e+01	7.115029e+02
1.440000e-06	7.350200e-06	1.086925e-08	5.293911e+01	7.143565e+02
1.450000e-06	7.405334e-06	1.090656e-08	5.333621e+01	7.170148e+02
1.460000e-06	7.457656e-06	1.094323e-08	5.371305e+01	7.194690e+02
1.470000e-06	7.506915e-06	1.097851e-08	5.406783e+01	7.217144e+02
1.480000e-06	7.553297e-06	1.101130e-08	5.440190e+01	7.237521e+02
1.490000e-06	7.597077e-06	1.103999e-08	5.471721e+01	7.255891e+02
1.500000e-06	7.638137e-06	1.106574e-08	5.501295e+01	7.272377e+02
1.510000e-06	7.676465e-06	1.109053e-08	5.528900e+01	7.287143e+02
1.520000e-06	7.712157e-06	1.111167e-08	5.554607e+01	7.300372e+02
1.530000e-06	7.745090e-06	1.113077e-08	5.578327e+01	7.312245e+02
1.540000e-06	7.775236e-06	1.114923e-08	5.600039e+01	7.322918e+02
1.550000e-06	7.802678e-06	1.116578e-08	5.619804e+01	7.332506e+02
1.560000e-06	7.827235e-06	1.117960e-08	5.637491e+01	7.341072e+02
1.570000e-06	7.848927e-06	1.119035e-08	5.653114e+01	7.348623e+02
1.580000e-06	7.867940e-06	1.119787e-08	5.666808e+01	7.355116e+02
1.590000e-06	7.884093e-06	1.120413e-08	5.678442e+01	7.360474e+02
1.600000e-06	7.897182e-06	1.121035e-08	5.687869e+01	7.364602e+02
1.610000e-06	7.907105e-06	1.121619e-08	5.695017e+01	7.367405e+02
1.620000e-06	7.914078e-06	1.122120e-08	5.700039e+01	7.368814e+02
1.630000e-06	7.918355e-06	1.122286e-08	5.703119e+01	7.368793e+02
1.640000e-06	7.919786e-06	1.122091e-08	5.704150e+01	7.367354e+02
1.650000e-06	7.918430e-06	1.121746e-08	5.703173e+01	7.364554e+02
1.660000e-06	7.914489e-06	1.121099e-08	5.700335e+01	7.360494e+02
1.670000e-06	7.907876e-06	1.120445e-08	5.695571e+01	7.355302e+02
1.680000e-06	7.898599e-06	1.119675e-08	5.688890e+01	7.349119e+02
1.690000e-06	7.886646e-06	1.118879e-08	5.680281e+01	7.342082e+02
1.700000e-06	7.871901e-06	1.118138e-08	5.669661e+01	7.334307e+02
1.710000e-06	7.854647e-06	1.117123e-08	5.657234e+01	7.325875e+02
1.720000e-06	7.835193e-06	1.114944e-08	5.643222e+01	7.316827e+02
1.730000e-06	7.813223e-06	1.109693e-08	5.627399e+01	7.307161e+02
1.740000e-06	7.788108e-06	1.103397e-08	5.609310e+01	7.296835e+02
1.750000e-06	7.759382e-06	1.104247e-08	5.588621e+01	7.285779e+02
1.760000e-06	7.727318e-06	1.105111e-08	5.565526e+01	7.273903e+02
1.770000e-06	7.692733e-06	1.103936e-08	5.540617e+01	7.261110e+02
1.780000e-06	7.655825e-06	1.104758e-08	5.514035e+01	7.247308e+02
1.790000e-06	7.616666e-06	1.107206e-08	5.485831e+01	7.232418e+02
1.800000e-06	7.575527e-06	1.101483e-08	5.456200e+01	7.216372e+02
1.810000e-06	7.532051e-06	1.096041e-08	5.424887e+01	7.199123e+02
1.820000e-06	7.485926e-06	1.099803e-08	5.391667e+01	7.180633e+02
1.830000e-06	7.437150e-06	1.092300e-08	5.356536e+01	7.160871e+02
1.840000e-06	7.385401e-06	1.092329e-08	5.319264e+01	7.139808e+02
1.850000e-06	7.330698e-06	1.090137e-08	5.279865e+01	7.117412e+02
1.860000e-06	7.273303e-06	1.085193e-08	5.238527e+01	7.093643e+02
1.870000e-06	7.213363e-06	1.082614e-08	5.195355e+01	7.068461e+02
1.880000e-06	7.150722e-06	1.072638e-08	5.150239e+01	7.041822e+02
1.890000e-06	7.085198e-06	1.072251e-08	5.103046e+01	7.013690e+02
1.900000e-06	7.016961e-06	1.064734e-08	5.053899e+01	6.984040e+02
1.910000e-06	6.945973e-06	1.060587e-08	5.002770e+01	6.952869e+02
1.920000e-06	6.872323e-06	1.058092e-08	4.949724e+01	6.920196e+02
1.930000e-06	6.796000e-06	1.050568e-08	4.894754e+01	6.886062e+02
1.940000e-06	6.716914e-06	1.047100e-08	4.837793e+01	6.850528e+02
1.950000e-06	6.635376e-06	1.038185e-08	4.779066e+01	6.813667e+02
1.960000e-06	6.551474e-06	1.035010e-08	4.718636e+01	6.775548e+02
1.970000e-06	6.465093e-06	1.028598e-08	4.656421e+01	6.736228e+02
1.980000e-06	6.376265e-06	1.022358e-08	4.592444e+01	6.695739e+02
1.990000e-06	6.285331e-06	1.017375e-08	4.526949e+01	6.654076e+02
2.000000e-06	6.192265e-06	1.009090e-08	4.459920e+01	6.611194e+02
2.010000e-06	6.096830e-06	1.003278e-08	4.391183e+01	6.567010e+02
2.020000e-06	5.999202e-06	9.950130e-09	4.320868e+01	6.521411e+02
2.030000e-06	5.899421e-06	9.888775e-09	4.249001e+01	6.474264e+02
2.040000e-06	5.797520e-06	9.806470e-09	4.175608e+01	6.425432e+02
2.050000e-06	5.693533e-06	9.736047e-09	4.100712e+01	6.374797e+02
2.060000e-06	5.587606e-06	9.652953e-09	4.024420e+01	6.322267e+02
2.070000e-06	5.479875e-06	9.561757e-09	3.946827e+01	6.267792e+02
2.080000e-06	5.370251e-06	9.474068e-09	3.867872e+01	6.211366e+02
2.090000e-06	5.258616e-06	9.385005e-09	3.787468e+01	6.153026e+02
2.100000e-06	5.144998e-06	9.300876e-09	3.705635e+01	6.092836e+02
2.110000e-06	5.029410e-06	9.205863e-09	3.622384e+01	6.030877e+02
2.120000e-06	4.911820e-06	9.116455e-09	3.537691e+01	5.967222e+02
2.130000e-06	4.792296e-06	9.012349e-09	3.451605e+01	5.901918e+02
2.140000e-06	4.670957e-06	8.910398e-09	3.364212e+01	5.834966e+02
2.150000e-06	4.547997e-06	8.801602e-09	3.275651e+01	5.766315e+02
2.160000e-06	4.423348e-06	8.698939e-09	3.185874e+01	5.695857e+02
2.170000e-06	4.297076e-06	8.590704e-09	3.094927e+01	5.623432e+02
2.180000e-06	4.169195e-06	8.480009e-09	3.002822e+01	5.548845e+02
2.190000e-06	4.039782e-06	8.364225e-09	2.909614e+01	5.471889e+02
2.200000e-06	3.909006e-06	8.240443e-09	2.815424e+01	5.392364e+02
2.210000e-06	3.776733e-06	8.111130e-09	2.720156e+01	5.310104e+02
2.220000e-06	3.643020e-06	7.980859e-09	2.623850e+01	5.224997e+02
2.230000e-06	3.508011e-06	7.853868e-09	2.526611e+01	5.136986e+02
2.240000e-06	3.371669e-06	7.719878e-09	2.428412e+01	5.046077e+02
2.250000e-06	3.234054e-06	7.580038e-09	2.329296e+01	4.952318e+02
2.260000e-06	3.095224e-06	7.434590e-09	2.229305e+01	4.855786e+02
2.270000e-06	2.955069e-06	7.283645e-09	2.128360e+01	4.756549e+02
2.280000e-06	2.813701e-06	7.122937e-09	2.026541e+01	4.654643e+02
2.290000e-06	2.671313e-06	6.961594e-09	1.923987e+01	4.550041e+02
2.300000e-06	2.527991e-06	6.798425e-09	1.820761e+01	4.442638e+02
2.310000e-06	2.383711e-06	6.634407e-09	1.716845e+01	4.332237e+02
2.320000e-06	2.238557e-06	6.465362e-09	1.612299e+01	4.218561e+02
2.330000e-06	2.092776e-06	6.287985e-09	1.507302e+01	4.101272e+02
2.340000e-06	1.946375e-06	6.100497e-09	1.401858e+01	3.980000e+02
2.350000e-06	1.799296e-06	5.902686e-09	1.295925e+01	3.854383e+02
2.360000e-06	1.651580e-06	5.699666e-09	1.189534e+01	3.724106e+02
2.370000e-06	1.503342e-06	5.492455e-09	1.082768e+01	3.588927e+02
2.380000e-06	1.354606e-06	5.282864e-09	9.756420e+00	3.448702e+02
2.390000e-06	1.205327e-06	5.068136e-09	8.681253e+00	3.303380e+02
2.400000e-06	1.055609e-06	4.842249e-09	7.602922e+00	3.152988e+02
2.410000e-06	9.055457e-07	4.604270e-09	6.522106e+00	2.997591e+02
2.420000e-06	7.552303e-07	4.358490e-09	5.439474e+00	2.837236e+02
2.430000e-06	6.047627e-07	4.108502e-09	4.355745e+00	2.671893e+02
2.440000e-06	4.541243e-07	3.849975e-09	3.270787e+00	2.501394e+02
2.450000e-06	3.033274e-07	3.579544e-09	2.184686e+00	2.325380e+02
2.460000e-06	1.524181e-07	3.298698e-09	1.097777e+00	2.143278e+02
2.470000e-06	1.398243e-09	3.006824e-09	1.007071e-02	1.954295e+02
2.480000e-06	-1.496705e-07	2.703189e-09	-1.077987e+00	1.757456e+02
2.490000e-06	-3.006968e-07	2.385451e-09	-2.165740e+00	1.551675e+02
2.500000e-06	-4.516441e-07	2.054347e-09	-3.252923e+00	1.335850e+02
2.510000e-06	-6.024820e-07	1.708364e-09	-4.339319e+00	1.108992e+02
2.520000e-06	-7.531615e-07	1.345112e-09	-5.424574e+00	8.703527e+01
2.530000e-06	-9.036247e-07	9.683706e-10	-6.508270e+00	6.195608e+01
2.540000e-06	-1.053843e-06	5.787074e-10	-7.590203e+00	3.567287e+01
2.550000e-06	-1.203664e-06	1.695049e-10	-8.669272e+00	8.253381e+00
2.560000e-06	-1.352927e-06	-2.640673e-10	-9.744329e+00	-2.017466e+01
2.570000e-06	-1.501685e-06	-7.148489e-10	-1.081574e+01	-4.942512e+01
2.580000e-06	-1.649956e-06	-1.174218e-09	-1.188365e+01	-7.926019e+01
2.590000e-06	-1.797631e-06	-1.638813e-09	-1.294726e+01	-1.094019e+02
2.600000e-06	-1.944621e-06	-2.104141e-09	-1.400595e+01	-1.395475e+02
2.610000e-06	-2.090866e-06	-2.565967e-09	-1.505926e+01	-1.693871e+02
2.620000e-06	-2.236348e-06	-3.018435e-09	-1.610708e+01	-1.986223e+02
2.630000e-06	-2.380929e-06	-3.452939e-09	-1.714841e+01	-2.269838e+02
2.640000e-06	-2.524531e-06	-3.864177e-09	-1.818269e+01	-2.542460e+02
2.650000e-06	-2.667203e-06	-4.254522e-09	-1.921027e+01	-2.802378e+02
2.660000e-06	-2.808799e-06	-4.628447e-09	-2.023011e+01	-3.048490e+02
2.670000e-06	-2.949261e-06	-4.983443e-09	-2.124177e+01	-3.280303e+02
2.680000e-06	-3.088551e-06	-5.315727e-09	-2.224499e+01	-3.497898e+02
2.690000e-06	-3.226632e-06	-5.626330e-09	-2.323951e+01	-3.701838e+02
2.700000e-06	-3.363496e-06	-5.918779e-09	-2.422526e+01	-3.893054e+02
2.710000e-06	-3.499131e-06	-6.196175e-09	-2.520216e+01	-4.072707e+02
2.720000e-06	-3.633496e-06	-6.458730e-09	-2.616991e+01	-4.242061e+02
2.730000e-06	-3.766548e-06	-6.706553e-09	-2.712820e+01	-4.402348e+02
2.740000e-06	-3.898213e-06	-6.941222e-09	-2.807651e+01	-4.554680e+02
2.750000e-06	-4.028485e-06	-7.166403e-09	-2.901477e+01	-4.699972e+02
2.760000e-06	-4.157407e-06	-7.384154e-09	-2.994332e+01	-4.838914e+02
2.770000e-06	-4.284925e-06	-7.592578e-09	-3.086176e+01	-4.971971e+02
2.780000e-06	-4.410969e-06	-7.788670e-09	-3.176958e+01	-5.099410e+02
2.790000e-06	-4.535479e-06	-7.970845e-09	-3.266635e+01	-5.221353e+02
2.800000e-06	-4.658345e-06	-8.141566e-09	-3.355128e+01	-5.337832e+02
2.810000e-06	-4.779470e-06	-8.305309e-09	-3.442367e+01	-5.448856e+02
2.820000e-06	-4.898857e-06	-8.464127e-09	-3.528355e+01	-5.554458e+02
2.830000e-06	-5.016362e-06	-8.618034e-09	-3.612987e+01	-5.654734e+02
2.840000e-06	-5.131845e-06	-8.764629e-09	-3.696162e+01	-5.749865e+02
2.850000e-06	-5.245233e-06	-8.902510e-09	-3.777828e+01	-5.840115e+02
2.860000e-06	-5.356558e-06	-9.034472e-09	-3.858009e+01	-5.925811e+02
2.870000e-06	-5.465914e-06	-9.161318e-09	-3.936772e+01	-6.007325e+02
2.880000e-06	-5.573326e-06	-9.281825e-09	-4.014135e+01	-6.085029e+02
2.890000e-06	-5.678854e-06	-9.397564e-09	-4.090140e+01	-6.159272e+02
2.900000e-06	-5.782334e-06	-9.509138e-09	-4.164671e+01	-6.230348e+02
2.910000e-06	-5.883610e-06	-9.613498e-09	-4.237613e+01	-6.298479e+02
2.920000e-06	-5.982707e-06	-9.710080e-09	-4.308987e+01	-6.363817e+02
2.930000e-06	-6.079731e-06	-9.802007e-09	-4.378868e+01	-6.426446e+02
2.940000e-06	-6.174607e-06	-9.891616e-09	-4.447202e+01	-6.486401e+02
