# Temperatura_=_39.89
# Concentracion g/m^3_=_10000.0
# C_Vs_to_Am_M_A/Vsm_=_65563218390.804596
# pendiente_HvsI_1/m_=_3716.3
# ordenada_HvsI_A/m_=_1297.0
# frecuencia_Hz_=_302624.46330424066

Tiempo_(s)	Campo_(V.s)	Magnetizacion_(V.s)	Campo_(kA/m)	Magnetizacion_(A/m)
0.000000e+00	-7.960758e-06	-1.026887e-08	-5.681153e+01	-6.721094e+02
1.000000e-08	-7.955998e-06	-1.026373e-08	-5.677756e+01	-6.717631e+02
2.000000e-08	-7.948711e-06	-1.025571e-08	-5.672555e+01	-6.713185e+02
3.000000e-08	-7.938648e-06	-1.024854e-08	-5.665375e+01	-6.707892e+02
4.000000e-08	-7.925674e-06	-1.024139e-08	-5.656115e+01	-6.701890e+02
5.000000e-08	-7.909767e-06	-1.023192e-08	-5.644763e+01	-6.695302e+02
6.000000e-08	-7.891273e-06	-1.022252e-08	-5.631565e+01	-6.688222e+02
7.000000e-08	-7.870560e-06	-1.021511e-08	-5.616784e+01	-6.680708e+02
8.000000e-08	-7.847246e-06	-1.024468e-08	-5.600146e+01	-6.672775e+02
9.000000e-08	-7.820776e-06	-1.025444e-08	-5.581256e+01	-6.664401e+02
1.000000e-07	-7.791131e-06	-1.020640e-08	-5.560100e+01	-6.655530e+02
1.100000e-07	-7.758624e-06	-1.016565e-08	-5.536902e+01	-6.646085e+02
1.200000e-07	-7.723380e-06	-1.014436e-08	-5.511749e+01	-6.635977e+02
1.300000e-07	-7.685651e-06	-1.011956e-08	-5.484824e+01	-6.625113e+02
1.400000e-07	-7.645706e-06	-1.007101e-08	-5.456318e+01	-6.613411e+02
1.500000e-07	-7.603502e-06	-1.005484e-08	-5.426199e+01	-6.600799e+02
1.600000e-07	-7.558763e-06	-1.007312e-08	-5.394272e+01	-6.587217e+02
1.700000e-07	-7.511288e-06	-1.000536e-08	-5.360391e+01	-6.572620e+02
1.800000e-07	-7.460969e-06	-9.976108e-09	-5.324481e+01	-6.556968e+02
1.900000e-07	-7.407669e-06	-9.984218e-09	-5.286444e+01	-6.540225e+02
2.000000e-07	-7.351509e-06	-9.929369e-09	-5.246366e+01	-6.522356e+02
2.100000e-07	-7.292719e-06	-9.922309e-09	-5.204410e+01	-6.503318e+02
2.200000e-07	-7.231328e-06	-9.917704e-09	-5.160599e+01	-6.483069e+02
2.300000e-07	-7.167304e-06	-9.875928e-09	-5.114909e+01	-6.461564e+02
2.400000e-07	-7.100533e-06	-9.801482e-09	-5.067258e+01	-6.438764e+02
2.500000e-07	-7.031026e-06	-9.767393e-09	-5.017655e+01	-6.414641e+02
2.600000e-07	-6.958815e-06	-9.747305e-09	-4.966121e+01	-6.389181e+02
2.700000e-07	-6.883820e-06	-9.698179e-09	-4.912602e+01	-6.362394e+02
2.800000e-07	-6.806041e-06	-9.658302e-09	-4.857095e+01	-6.334310e+02
2.900000e-07	-6.725482e-06	-9.617070e-09	-4.799605e+01	-6.304980e+02
3.000000e-07	-6.642441e-06	-9.575687e-09	-4.740343e+01	-6.274464e+02
3.100000e-07	-6.557223e-06	-9.517716e-09	-4.679528e+01	-6.242827e+02
3.200000e-07	-6.469672e-06	-9.463786e-09	-4.617048e+01	-6.210124e+02
3.300000e-07	-6.379718e-06	-9.420518e-09	-4.552852e+01	-6.176388e+02
3.400000e-07	-6.287470e-06	-9.369810e-09	-4.487020e+01	-6.141623e+02
3.500000e-07	-6.192997e-06	-9.315496e-09	-4.419600e+01	-6.105795e+02
3.600000e-07	-6.096222e-06	-9.265620e-09	-4.350537e+01	-6.068831e+02
3.700000e-07	-5.997173e-06	-9.210702e-09	-4.279851e+01	-6.030627e+02
3.800000e-07	-5.896021e-06	-9.140722e-09	-4.207664e+01	-5.991056e+02
3.900000e-07	-5.792736e-06	-9.074085e-09	-4.133956e+01	-5.949981e+02
4.000000e-07	-5.687393e-06	-9.009049e-09	-4.058778e+01	-5.907273e+02
4.100000e-07	-5.580098e-06	-8.941106e-09	-3.982207e+01	-5.862824e+02
4.200000e-07	-5.470829e-06	-8.874899e-09	-3.904228e+01	-5.816560e+02
4.300000e-07	-5.359629e-06	-8.806588e-09	-3.824871e+01	-5.768448e+02
4.400000e-07	-5.246394e-06	-8.726747e-09	-3.744061e+01	-5.718493e+02
4.500000e-07	-5.131051e-06	-8.642014e-09	-3.661747e+01	-5.666738e+02
4.600000e-07	-5.013753e-06	-8.562002e-09	-3.578039e+01	-5.613242e+02
4.700000e-07	-4.894633e-06	-8.481426e-09	-3.493029e+01	-5.558072e+02
4.800000e-07	-4.773642e-06	-8.397965e-09	-3.406684e+01	-5.501276e+02
4.900000e-07	-4.650920e-06	-8.312661e-09	-3.319105e+01	-5.442875e+02
5.000000e-07	-4.526623e-06	-8.220986e-09	-3.230401e+01	-5.382841e+02
5.100000e-07	-4.400707e-06	-8.119495e-09	-3.140542e+01	-5.321099e+02
5.200000e-07	-4.273096e-06	-8.017596e-09	-3.049473e+01	-5.257524e+02
5.300000e-07	-4.143809e-06	-7.915794e-09	-2.957208e+01	-5.191951e+02
5.400000e-07	-4.013058e-06	-7.809185e-09	-2.863898e+01	-5.124192e+02
5.500000e-07	-3.880850e-06	-7.699704e-09	-2.769548e+01	-5.054058e+02
5.600000e-07	-3.747198e-06	-7.592192e-09	-2.674168e+01	-4.981374e+02
5.700000e-07	-3.612131e-06	-7.479764e-09	-2.577778e+01	-4.906001e+02
5.800000e-07	-3.475603e-06	-7.358777e-09	-2.480346e+01	-4.827845e+02
5.900000e-07	-3.337677e-06	-7.234814e-09	-2.381916e+01	-4.746861e+02
6.000000e-07	-3.198456e-06	-7.110041e-09	-2.282561e+01	-4.663048e+02
6.100000e-07	-3.057913e-06	-6.978632e-09	-2.182263e+01	-4.576429e+02
6.200000e-07	-2.915933e-06	-6.840017e-09	-2.080941e+01	-4.487036e+02
6.300000e-07	-2.772679e-06	-6.699668e-09	-1.978708e+01	-4.394879e+02
6.400000e-07	-2.628487e-06	-6.554400e-09	-1.875806e+01	-4.299929e+02
6.500000e-07	-2.483421e-06	-6.400406e-09	-1.772280e+01	-4.202093e+02
6.600000e-07	-2.337498e-06	-6.242023e-09	-1.668143e+01	-4.101207e+02
6.700000e-07	-2.190754e-06	-6.083151e-09	-1.563420e+01	-3.997042e+02
6.800000e-07	-2.043283e-06	-5.917270e-09	-1.458178e+01	-3.889308e+02
6.900000e-07	-1.895164e-06	-5.745112e-09	-1.352474e+01	-3.777687e+02
7.000000e-07	-1.746447e-06	-5.568325e-09	-1.246343e+01	-3.661855e+02
7.100000e-07	-1.597263e-06	-5.386229e-09	-1.139878e+01	-3.541520e+02
7.200000e-07	-1.447616e-06	-5.197242e-09	-1.033084e+01	-3.416445e+02
7.300000e-07	-1.297472e-06	-5.001370e-09	-9.259341e+00	-3.286468e+02
7.400000e-07	-1.146831e-06	-4.798495e-09	-8.184300e+00	-3.151510e+02
7.500000e-07	-9.957332e-07	-4.584788e-09	-7.105997e+00	-3.011556e+02
7.600000e-07	-8.442723e-07	-4.363453e-09	-6.025105e+00	-2.866632e+02
7.700000e-07	-6.925243e-07	-4.136240e-09	-4.942163e+00	-2.716762e+02
7.800000e-07	-5.405082e-07	-3.902613e-09	-3.857308e+00	-2.561915e+02
7.900000e-07	-3.882843e-07	-3.660058e-09	-2.770971e+00	-2.401953e+02
8.000000e-07	-2.358683e-07	-3.406848e-09	-1.683262e+00	-2.236590e+02
8.100000e-07	-8.335714e-08	-3.143628e-09	-5.948739e-01	-2.065361e+02
8.200000e-07	6.919246e-08	-2.871500e-09	4.937883e-01	-1.887619e+02
8.300000e-07	2.217730e-07	-2.587679e-09	1.582672e+00	-1.702559e+02
8.400000e-07	3.742917e-07	-2.287639e-09	2.671113e+00	-1.509273e+02
8.500000e-07	5.266875e-07	-1.972659e-09	3.758678e+00	-1.306828e+02
8.600000e-07	6.789454e-07	-1.648778e-09	4.845258e+00	-1.094376e+02
8.700000e-07	8.310185e-07	-1.313777e-09	5.930520e+00	-8.712637e+01
8.800000e-07	9.828576e-07	-9.600374e-10	7.014111e+00	-6.371507e+01
8.900000e-07	1.134405e-06	-5.876884e-10	8.095623e+00	-3.921084e+01
9.000000e-07	1.285500e-06	-2.005638e-10	9.173905e+00	-1.366963e+01
9.100000e-07	1.435996e-06	1.992098e-10	1.024791e+01	1.279993e+01
9.200000e-07	1.585928e-06	6.132949e-10	1.131789e+01	4.003703e+01
9.300000e-07	1.735335e-06	1.039172e-09	1.238412e+01	6.783374e+01
9.400000e-07	1.884113e-06	1.471948e-09	1.344588e+01	9.594438e+01
9.500000e-07	2.032237e-06	1.905532e-09	1.450295e+01	1.240985e+02
9.600000e-07	2.179652e-06	2.333113e-09	1.555497e+01	1.520163e+02
9.700000e-07	2.326268e-06	2.751836e-09	1.660129e+01	1.794249e+02
9.800000e-07	2.472016e-06	3.156824e-09	1.764141e+01	2.060744e+02
9.900000e-07	2.616837e-06	3.545321e-09	1.867492e+01	2.317515e+02
1.000000e-06	2.760688e-06	3.914436e-09	1.970151e+01	2.562900e+02
1.010000e-06	2.903453e-06	4.263627e-09	2.072034e+01	2.795771e+02
1.020000e-06	3.045022e-06	4.592364e-09	2.173064e+01	3.015552e+02
1.030000e-06	3.185356e-06	4.902513e-09	2.273213e+01	3.222186e+02
1.040000e-06	3.324473e-06	5.196692e-09	2.372492e+01	3.416071e+02
1.050000e-06	3.462300e-06	5.474525e-09	2.470852e+01	3.597957e+02
1.060000e-06	3.598705e-06	5.736158e-09	2.568197e+01	3.768830e+02
1.070000e-06	3.733713e-06	5.982160e-09	2.664545e+01	3.929788e+02
1.080000e-06	3.867406e-06	6.214792e-09	2.759954e+01	4.081931e+02
1.090000e-06	3.999724e-06	6.434795e-09	2.854382e+01	4.226264e+02
1.100000e-06	4.130652e-06	6.644510e-09	2.947818e+01	4.363630e+02
1.110000e-06	4.260187e-06	6.844106e-09	3.040260e+01	4.494674e+02
1.120000e-06	4.388189e-06	7.033037e-09	3.131608e+01	4.619839e+02
1.130000e-06	4.514594e-06	7.212639e-09	3.221816e+01	4.739388e+02
1.140000e-06	4.639442e-06	7.384855e-09	3.310913e+01	4.853445e+02
1.150000e-06	4.762762e-06	7.547783e-09	3.398920e+01	4.962051e+02
1.160000e-06	4.884441e-06	7.701680e-09	3.485756e+01	5.065217e+02
1.170000e-06	5.004327e-06	7.848794e-09	3.571312e+01	5.162981e+02
1.180000e-06	5.122348e-06	7.989576e-09	3.655537e+01	5.255440e+02
1.190000e-06	5.238462e-06	8.122675e-09	3.738401e+01	5.342771e+02
1.200000e-06	5.352562e-06	8.250037e-09	3.819828e+01	5.425242e+02
1.210000e-06	5.464571e-06	8.371540e-09	3.899763e+01	5.503190e+02
1.220000e-06	5.574595e-06	8.487735e-09	3.978280e+01	5.577002e+02
1.230000e-06	5.682688e-06	8.600185e-09	4.055421e+01	5.647080e+02
1.240000e-06	5.788800e-06	8.705370e-09	4.131147e+01	5.713810e+02
1.250000e-06	5.892766e-06	8.802479e-09	4.205341e+01	5.777529e+02
1.260000e-06	5.994496e-06	8.891043e-09	4.277940e+01	5.838508e+02
1.270000e-06	6.094043e-06	8.974997e-09	4.348982e+01	5.896942e+02
1.280000e-06	6.191287e-06	9.057221e-09	4.418380e+01	5.952949e+02
1.290000e-06	6.286205e-06	9.135874e-09	4.486117e+01	6.006589e+02
1.300000e-06	6.378893e-06	9.211991e-09	4.552263e+01	6.057879e+02
1.310000e-06	6.469336e-06	9.288023e-09	4.616808e+01	6.106815e+02
1.320000e-06	6.557424e-06	9.363541e-09	4.679671e+01	6.153400e+02
1.330000e-06	6.643199e-06	9.432970e-09	4.740884e+01	6.197658e+02
1.340000e-06	6.726712e-06	9.495971e-09	4.800483e+01	6.239643e+02
1.350000e-06	6.807784e-06	9.555109e-09	4.858339e+01	6.279446e+02
1.360000e-06	6.886336e-06	9.609914e-09	4.914398e+01	6.317183e+02
1.370000e-06	6.962282e-06	9.662708e-09	4.968596e+01	6.352988e+02
1.380000e-06	7.035534e-06	9.715401e-09	5.020872e+01	6.386989e+02
1.390000e-06	7.106252e-06	9.767628e-09	5.071339e+01	6.419300e+02
1.400000e-06	7.174545e-06	9.817240e-09	5.120076e+01	6.450001e+02
1.410000e-06	7.240252e-06	9.863858e-09	5.166968e+01	6.479131e+02
1.420000e-06	7.303392e-06	9.906819e-09	5.212028e+01	6.506688e+02
1.430000e-06	7.364106e-06	9.943958e-09	5.255355e+01	6.532635e+02
1.440000e-06	7.422279e-06	9.976926e-09	5.296871e+01	6.556913e+02
1.450000e-06	7.477806e-06	1.000662e-08	5.336497e+01	6.579457e+02
1.460000e-06	7.530499e-06	1.003549e-08	5.374101e+01	6.600216e+02
1.470000e-06	7.580019e-06	1.006523e-08	5.409441e+01	6.619168e+02
1.480000e-06	7.626581e-06	1.009483e-08	5.442670e+01	6.636333e+02
1.490000e-06	7.670551e-06	1.012148e-08	5.474048e+01	6.651778e+02
1.500000e-06	7.711736e-06	1.014471e-08	5.503440e+01	6.665614e+02
1.510000e-06	7.750113e-06	1.016593e-08	5.530827e+01	6.677989e+02
1.520000e-06	7.785871e-06	1.018333e-08	5.556346e+01	6.689069e+02
1.530000e-06	7.818858e-06	1.019771e-08	5.579887e+01	6.699020e+02
1.540000e-06	7.849032e-06	1.021071e-08	5.601421e+01	6.707990e+02
1.550000e-06	7.876507e-06	1.022386e-08	5.621028e+01	6.716092e+02
1.560000e-06	7.901107e-06	1.023658e-08	5.638584e+01	6.723391e+02
1.570000e-06	7.922846e-06	1.024773e-08	5.654098e+01	6.729901e+02
1.580000e-06	7.941872e-06	1.025669e-08	5.667675e+01	6.735589e+02
1.590000e-06	7.958001e-06	1.026357e-08	5.679185e+01	6.740382e+02
1.600000e-06	7.970998e-06	1.026968e-08	5.688461e+01	6.744185e+02
1.610000e-06	7.980805e-06	1.027569e-08	5.695460e+01	6.746900e+02
1.620000e-06	7.987637e-06	1.028151e-08	5.700336e+01	6.748443e+02
1.630000e-06	7.991727e-06	1.028397e-08	5.703254e+01	6.748760e+02
1.640000e-06	7.992983e-06	1.028237e-08	5.704150e+01	6.747841e+02
1.650000e-06	7.991448e-06	1.027357e-08	5.703055e+01	6.745719e+02
1.660000e-06	7.987294e-06	1.026740e-08	5.700090e+01	6.742474e+02
1.670000e-06	7.980416e-06	1.026526e-08	5.695182e+01	6.738218e+02
1.680000e-06	7.970823e-06	1.026087e-08	5.688336e+01	6.733085e+02
1.690000e-06	7.958525e-06	1.025466e-08	5.679560e+01	6.727215e+02
1.700000e-06	7.943444e-06	1.024915e-08	5.668797e+01	6.720734e+02
1.710000e-06	7.925847e-06	1.024066e-08	5.656239e+01	6.713744e+02
1.720000e-06	7.906006e-06	1.020496e-08	5.642080e+01	6.706311e+02
1.730000e-06	7.883605e-06	1.012727e-08	5.626093e+01	6.698459e+02
1.740000e-06	7.857974e-06	1.012113e-08	5.607802e+01	6.690174e+02
1.750000e-06	7.828759e-06	1.014667e-08	5.586952e+01	6.681406e+02
1.760000e-06	7.796268e-06	1.013650e-08	5.563766e+01	6.672082e+02
1.770000e-06	7.761220e-06	1.013103e-08	5.538754e+01	6.662114e+02
1.780000e-06	7.723853e-06	1.016755e-08	5.512087e+01	6.651411e+02
1.790000e-06	7.684220e-06	1.014323e-08	5.483803e+01	6.639886e+02
1.800000e-06	7.642558e-06	1.007951e-08	5.454071e+01	6.627464e+02
1.810000e-06	7.598458e-06	1.012110e-08	5.422599e+01	6.614085e+02
1.820000e-06	7.551649e-06	1.008547e-08	5.389194e+01	6.599700e+02
1.830000e-06	7.502105e-06	1.007662e-08	5.353838e+01	6.584267e+02
1.840000e-06	7.449536e-06	1.006273e-08	5.316323e+01	6.567752e+02
1.850000e-06	7.394100e-06	9.989003e-09	5.276760e+01	6.550118e+02
1.860000e-06	7.335996e-06	9.962588e-09	5.235295e+01	6.531325e+02
1.870000e-06	7.275221e-06	9.894531e-09	5.191923e+01	6.511330e+02
1.880000e-06	7.211714e-06	9.916173e-09	5.146602e+01	6.490088e+02
1.890000e-06	7.145452e-06	9.909681e-09	5.099315e+01	6.467560e+02
1.900000e-06	7.076492e-06	9.843340e-09	5.050101e+01	6.443712e+02
1.910000e-06	7.004673e-06	9.812682e-09	4.998848e+01	6.418529e+02
1.920000e-06	6.930109e-06	9.745658e-09	4.945636e+01	6.392015e+02
1.930000e-06	6.852851e-06	9.711628e-09	4.890501e+01	6.364197e+02
1.940000e-06	6.772840e-06	9.655953e-09	4.833402e+01	6.335119e+02
1.950000e-06	6.690347e-06	9.634188e-09	4.774531e+01	6.304842e+02
1.960000e-06	6.605382e-06	9.600450e-09	4.713896e+01	6.273431e+02
1.970000e-06	6.517954e-06	9.528491e-09	4.651504e+01	6.240943e+02
1.980000e-06	6.428220e-06	9.487652e-09	4.587465e+01	6.207418e+02
1.990000e-06	6.336280e-06	9.435031e-09	4.521853e+01	6.172866e+02
2.000000e-06	6.242054e-06	9.377116e-09	4.454609e+01	6.137261e+02
2.010000e-06	6.145503e-06	9.304630e-09	4.385706e+01	6.100539e+02
2.020000e-06	6.046812e-06	9.257253e-09	4.315275e+01	6.062601e+02
2.030000e-06	5.945947e-06	9.197531e-09	4.243294e+01	6.023325e+02
2.040000e-06	5.842946e-06	9.133753e-09	4.169788e+01	5.982574e+02
2.050000e-06	5.737985e-06	9.068222e-09	4.094883e+01	5.940217e+02
2.060000e-06	5.631108e-06	9.001445e-09	4.018610e+01	5.896140e+02
2.070000e-06	5.522206e-06	8.927017e-09	3.940893e+01	5.850259e+02
2.080000e-06	5.411320e-06	8.849522e-09	3.861760e+01	5.802535e+02
2.090000e-06	5.298482e-06	8.788068e-09	3.781234e+01	5.752963e+02
2.100000e-06	5.183615e-06	8.717796e-09	3.699260e+01	5.701580e+02
2.110000e-06	5.066659e-06	8.642595e-09	3.615795e+01	5.648442e+02
2.120000e-06	4.947702e-06	8.548543e-09	3.530901e+01	5.593616e+02
2.130000e-06	4.826901e-06	8.453323e-09	3.444693e+01	5.537157e+02
2.140000e-06	4.704347e-06	8.361379e-09	3.357233e+01	5.479090e+02
2.150000e-06	4.580109e-06	8.279490e-09	3.268571e+01	5.419402e+02
2.160000e-06	4.454175e-06	8.194442e-09	3.178699e+01	5.358026e+02
2.170000e-06	4.326664e-06	8.100235e-09	3.087701e+01	5.294846e+02
2.180000e-06	4.197540e-06	7.999312e-09	2.995552e+01	5.229707e+02
2.190000e-06	4.066903e-06	7.893895e-09	2.902324e+01	5.162424e+02
2.200000e-06	3.934790e-06	7.784821e-09	2.808042e+01	5.092805e+02
2.210000e-06	3.801137e-06	7.675406e-09	2.712662e+01	5.020671e+02
2.220000e-06	3.666103e-06	7.566043e-09	2.616295e+01	4.945875e+02
2.230000e-06	3.529714e-06	7.447758e-09	2.518962e+01	4.868311e+02
2.240000e-06	3.391962e-06	7.323568e-09	2.420656e+01	4.787925e+02
2.250000e-06	3.252876e-06	7.199275e-09	2.321398e+01	4.704707e+02
2.260000e-06	3.112480e-06	7.075704e-09	2.221205e+01	4.618678e+02
2.270000e-06	2.970844e-06	6.940064e-09	2.120127e+01	4.529868e+02
2.280000e-06	2.828078e-06	6.796053e-09	2.018243e+01	4.438295e+02
2.290000e-06	2.684278e-06	6.652299e-09	1.915621e+01	4.343939e+02
2.300000e-06	2.539570e-06	6.508812e-09	1.812351e+01	4.246723e+02
2.310000e-06	2.394071e-06	6.360774e-09	1.708516e+01	4.146499e+02
2.320000e-06	2.247748e-06	6.204379e-09	1.604093e+01	4.043050e+02
2.330000e-06	2.100662e-06	6.038477e-09	1.499127e+01	3.936098e+02
2.340000e-06	1.952818e-06	5.863806e-09	1.393618e+01	3.825328e+02
2.350000e-06	1.804167e-06	5.684543e-09	1.287534e+01	3.710415e+02
2.360000e-06	1.654903e-06	5.503551e-09	1.181013e+01	3.591058e+02
2.370000e-06	1.505165e-06	5.315946e-09	1.074153e+01	3.467005e+02
2.380000e-06	1.354935e-06	5.121264e-09	9.669422e+00	3.338079e+02
2.390000e-06	1.204247e-06	4.917608e-09	8.594048e+00	3.204182e+02
2.400000e-06	1.053198e-06	4.704552e-09	7.516090e+00	3.065288e+02
2.410000e-06	9.018499e-07	4.484820e-09	6.436004e+00	2.921417e+02
2.420000e-06	7.502484e-07	4.261178e-09	5.354108e+00	2.772598e+02
2.430000e-06	5.984049e-07	4.031777e-09	4.270485e+00	2.618814e+02
2.440000e-06	4.463219e-07	3.790322e-09	3.185152e+00	2.459958e+02
2.450000e-06	2.940878e-07	3.536577e-09	2.098742e+00	2.295775e+02
2.460000e-06	1.417543e-07	3.273192e-09	1.011622e+00	2.125843e+02
2.470000e-06	-1.073291e-08	3.000989e-09	-7.659484e-02	1.949550e+02
2.480000e-06	-1.632340e-07	2.719419e-09	-1.164911e+00	1.766123e+02
2.490000e-06	-3.156011e-07	2.426092e-09	-2.252271e+00	1.574669e+02
2.500000e-06	-4.678784e-07	2.119951e-09	-3.338989e+00	1.374253e+02
2.510000e-06	-6.200388e-07	1.799763e-09	-4.424874e+00	1.164000e+02
2.520000e-06	-7.720045e-07	1.463600e-09	-5.509369e+00	9.432037e+01
2.530000e-06	-9.237633e-07	1.113887e-09	-6.592388e+00	7.114481e+01
2.540000e-06	-1.075271e-06	7.519604e-10	-7.673616e+00	4.687088e+01
2.550000e-06	-1.226444e-06	3.724790e-10	-8.752452e+00	2.154362e+01
2.560000e-06	-1.377162e-06	-2.724753e-11	-9.828044e+00	-4.739747e+00
2.570000e-06	-1.527310e-06	-4.416977e-10	-1.089957e+01	-3.182932e+01
2.580000e-06	-1.676879e-06	-8.655789e-10	-1.196696e+01	-5.952662e+01
2.590000e-06	-1.825889e-06	-1.296786e-09	-1.303036e+01	-8.759307e+01
2.600000e-06	-1.974202e-06	-1.732563e-09	-1.408879e+01	-1.157623e+02
2.610000e-06	-2.121669e-06	-2.169062e-09	-1.514118e+01	-1.437551e+02
2.620000e-06	-2.268303e-06	-2.597149e-09	-1.618762e+01	-1.712958e+02
2.630000e-06	-2.414068e-06	-3.007333e-09	-1.722787e+01	-1.981283e+02
2.640000e-06	-2.558909e-06	-3.399233e-09	-1.826152e+01	-2.240305e+02
2.650000e-06	-2.702829e-06	-3.774497e-09	-1.928860e+01	-2.488253e+02
2.660000e-06	-2.845780e-06	-4.132931e-09	-2.030876e+01	-2.723882e+02
2.670000e-06	-2.987610e-06	-4.471687e-09	-2.132092e+01	-2.946498e+02
2.680000e-06	-3.128265e-06	-4.789739e-09	-2.232470e+01	-3.155940e+02
2.690000e-06	-3.267669e-06	-5.088969e-09	-2.331955e+01	-3.352513e+02
2.700000e-06	-3.405690e-06	-5.371958e-09	-2.430453e+01	-3.536903e+02
2.710000e-06	-3.542343e-06	-5.640157e-09	-2.527975e+01	-3.710054e+02
2.720000e-06	-3.677783e-06	-5.894720e-09	-2.624630e+01	-3.873052e+02
2.730000e-06	-3.811970e-06	-6.135108e-09	-2.720393e+01	-4.027005e+02
2.740000e-06	-3.944779e-06	-6.361299e-09	-2.815171e+01	-4.172943e+02
2.750000e-06	-4.076148e-06	-6.575110e-09	-2.908922e+01	-4.311750e+02
2.760000e-06	-4.206026e-06	-6.779896e-09	-3.001609e+01	-4.444114e+02
2.770000e-06	-4.334453e-06	-6.976622e-09	-3.093260e+01	-4.570521e+02
2.780000e-06	-4.461489e-06	-7.162203e-09	-3.183918e+01	-4.691268e+02
2.790000e-06	-4.587026e-06	-7.334498e-09	-3.273507e+01	-4.806506e+02
2.800000e-06	-4.710839e-06	-7.496685e-09	-3.361865e+01	-4.916288e+02
2.810000e-06	-4.832985e-06	-7.653565e-09	-3.449034e+01	-5.020628e+02
2.820000e-06	-4.953449e-06	-7.803766e-09	-3.535003e+01	-5.119553e+02
2.830000e-06	-5.072020e-06	-7.946298e-09	-3.619620e+01	-5.213146e+02
2.840000e-06	-5.188498e-06	-8.082052e-09	-3.702745e+01	-5.301566e+02
2.850000e-06	-5.302841e-06	-8.209769e-09	-3.784345e+01	-5.385061e+02
2.860000e-06	-5.415104e-06	-8.331398e-09	-3.864461e+01	-5.463956e+02
2.870000e-06	-5.525252e-06	-8.448860e-09	-3.943067e+01	-5.538630e+02
2.880000e-06	-5.633418e-06	-8.560405e-09	-4.020259e+01	-5.609484e+02
2.890000e-06	-5.739699e-06	-8.664881e-09	-4.096106e+01	-5.676910e+02
2.900000e-06	-5.843912e-06	-8.763305e-09	-4.170477e+01	-5.741258e+02
2.910000e-06	-5.945913e-06	-8.857180e-09	-4.243270e+01	-5.802815e+02
2.920000e-06	-6.045682e-06	-8.946544e-09	-4.314469e+01	-5.861791e+02
2.930000e-06	-6.143289e-06	-9.031740e-09	-4.384126e+01	-5.918321e+02
2.940000e-06	-6.238784e-06	-9.113974e-09	-4.452275e+01	-5.972475e+02
