# Temperatura_=_27.54
# Concentracion g/m^3_=_10000.0
# C_Vs_to_Am_M_A/Vsm_=_65563218390.804596
# pendiente_HvsI_1/m_=_3716.3
# ordenada_HvsI_A/m_=_1297.0
# frecuencia_Hz_=_302626.0239310367

Tiempo_(s)	Campo_(V.s)	Magnetizacion_(V.s)	Campo_(kA/m)	Magnetizacion_(A/m)
0.000000e+00	-7.892267e-06	-1.048707e-08	-5.681238e+01	-6.861998e+02
1.000000e-08	-7.887696e-06	-1.048410e-08	-5.677947e+01	-6.858580e+02
2.000000e-08	-7.880587e-06	-1.047434e-08	-5.672830e+01	-6.853992e+02
3.000000e-08	-7.870833e-06	-1.046130e-08	-5.665808e+01	-6.848371e+02
4.000000e-08	-7.858169e-06	-1.044896e-08	-5.656693e+01	-6.841873e+02
5.000000e-08	-7.842533e-06	-1.043915e-08	-5.645437e+01	-6.834661e+02
6.000000e-08	-7.824327e-06	-1.043234e-08	-5.632331e+01	-6.826884e+02
7.000000e-08	-7.803931e-06	-1.043200e-08	-5.617649e+01	-6.818659e+02
8.000000e-08	-7.781031e-06	-1.043774e-08	-5.601165e+01	-6.810063e+02
9.000000e-08	-7.755028e-06	-1.043163e-08	-5.582446e+01	-6.801120e+02
1.000000e-07	-7.725779e-06	-1.041242e-08	-5.561391e+01	-6.791805e+02
1.100000e-07	-7.693664e-06	-1.037702e-08	-5.538274e+01	-6.782045e+02
1.200000e-07	-7.658881e-06	-1.034324e-08	-5.513235e+01	-6.771728e+02
1.300000e-07	-7.621611e-06	-1.030788e-08	-5.486406e+01	-6.760720e+02
1.400000e-07	-7.582185e-06	-1.026903e-08	-5.458025e+01	-6.748876e+02
1.500000e-07	-7.540556e-06	-1.026655e-08	-5.428059e+01	-6.736053e+02
1.600000e-07	-7.496368e-06	-1.025588e-08	-5.396250e+01	-6.722126e+02
1.700000e-07	-7.449428e-06	-1.025308e-08	-5.362461e+01	-6.706990e+02
1.800000e-07	-7.399720e-06	-1.022621e-08	-5.326678e+01	-6.690572e+02
1.900000e-07	-7.347077e-06	-1.017503e-08	-5.288783e+01	-6.672826e+02
2.000000e-07	-7.291608e-06	-1.012873e-08	-5.248854e+01	-6.653731e+02
2.100000e-07	-7.233453e-06	-1.006730e-08	-5.206991e+01	-6.633287e+02
2.200000e-07	-7.172630e-06	-1.004926e-08	-5.163208e+01	-6.611508e+02
2.300000e-07	-7.109191e-06	-1.003488e-08	-5.117541e+01	-6.588414e+02
2.400000e-07	-7.043011e-06	-1.000833e-08	-5.069902e+01	-6.564029e+02
2.500000e-07	-6.974163e-06	-9.969605e-09	-5.020342e+01	-6.538375e+02
2.600000e-07	-6.902714e-06	-9.929213e-09	-4.968909e+01	-6.511472e+02
2.700000e-07	-6.828532e-06	-9.891948e-09	-4.915509e+01	-6.483334e+02
2.800000e-07	-6.751578e-06	-9.840571e-09	-4.860114e+01	-6.453974e+02
2.900000e-07	-6.671903e-06	-9.806392e-09	-4.802760e+01	-6.423404e+02
3.000000e-07	-6.589699e-06	-9.761438e-09	-4.743586e+01	-6.391633e+02
3.100000e-07	-6.505264e-06	-9.700225e-09	-4.682806e+01	-6.358671e+02
3.200000e-07	-6.418601e-06	-9.646642e-09	-4.620421e+01	-6.324521e+02
3.300000e-07	-6.329625e-06	-9.586331e-09	-4.556372e+01	-6.289184e+02
3.400000e-07	-6.238342e-06	-9.521456e-09	-4.490662e+01	-6.252649e+02
3.500000e-07	-6.144766e-06	-9.459839e-09	-4.423302e+01	-6.214894e+02
3.600000e-07	-6.048966e-06	-9.415317e-09	-4.354340e+01	-6.175881e+02
3.700000e-07	-5.950906e-06	-9.359871e-09	-4.283751e+01	-6.135556e+02
3.800000e-07	-5.850628e-06	-9.291961e-09	-4.211567e+01	-6.093854e+02
3.900000e-07	-5.748292e-06	-9.231132e-09	-4.137900e+01	-6.050694e+02
4.000000e-07	-5.644014e-06	-9.162012e-09	-4.062836e+01	-6.005994e+02
4.100000e-07	-5.537790e-06	-9.080522e-09	-3.986371e+01	-5.959671e+02
4.200000e-07	-5.429551e-06	-8.998510e-09	-3.908455e+01	-5.911653e+02
4.300000e-07	-5.319368e-06	-8.938816e-09	-3.829140e+01	-5.861878e+02
4.400000e-07	-5.207273e-06	-8.873203e-09	-3.748448e+01	-5.810306e+02
4.500000e-07	-5.093172e-06	-8.785366e-09	-3.666313e+01	-5.756912e+02
4.600000e-07	-4.977073e-06	-8.694311e-09	-3.582739e+01	-5.701690e+02
4.700000e-07	-4.859020e-06	-8.609355e-09	-3.497759e+01	-5.644641e+02
4.800000e-07	-4.739183e-06	-8.515423e-09	-3.411494e+01	-5.585772e+02
4.900000e-07	-4.617766e-06	-8.414657e-09	-3.324093e+01	-5.525082e+02
5.000000e-07	-4.494623e-06	-8.325014e-09	-3.235448e+01	-5.462554e+02
5.100000e-07	-4.369729e-06	-8.232386e-09	-3.145543e+01	-5.398151e+02
5.200000e-07	-4.243217e-06	-8.125741e-09	-3.054474e+01	-5.331808e+02
5.300000e-07	-4.115202e-06	-8.016387e-09	-2.962323e+01	-5.263435e+02
5.400000e-07	-3.985787e-06	-7.914689e-09	-2.869163e+01	-5.192921e+02
5.500000e-07	-3.854896e-06	-7.806205e-09	-2.774941e+01	-5.120139e+02
5.600000e-07	-3.722475e-06	-7.685015e-09	-2.679618e+01	-5.044957e+02
5.700000e-07	-3.588524e-06	-7.561161e-09	-2.583194e+01	-4.967251e+02
5.800000e-07	-3.453194e-06	-7.438058e-09	-2.485777e+01	-4.886909e+02
5.900000e-07	-3.316588e-06	-7.310787e-09	-2.387441e+01	-4.803841e+02
6.000000e-07	-3.178769e-06	-7.178243e-09	-2.288233e+01	-4.717982e+02
6.100000e-07	-3.039654e-06	-7.045145e-09	-2.188090e+01	-4.629285e+02
6.200000e-07	-2.899109e-06	-6.908203e-09	-2.086920e+01	-4.537718e+02
6.300000e-07	-2.757364e-06	-6.765150e-09	-1.984885e+01	-4.443249e+02
6.400000e-07	-2.614567e-06	-6.619472e-09	-1.882092e+01	-4.345837e+02
6.500000e-07	-2.470790e-06	-6.467770e-09	-1.778595e+01	-4.245417e+02
6.600000e-07	-2.326169e-06	-6.305444e-09	-1.674489e+01	-4.141890e+02
6.700000e-07	-2.180642e-06	-6.136042e-09	-1.569732e+01	-4.035120e+02
6.800000e-07	-2.034301e-06	-5.962949e-09	-1.464389e+01	-3.924934e+02
6.900000e-07	-1.887311e-06	-5.785843e-09	-1.358578e+01	-3.811130e+02
7.000000e-07	-1.739753e-06	-5.606604e-09	-1.252359e+01	-3.693490e+02
7.100000e-07	-1.591686e-06	-5.423832e-09	-1.145773e+01	-3.571797e+02
7.200000e-07	-1.443182e-06	-5.233534e-09	-1.038873e+01	-3.445854e+02
7.300000e-07	-1.294278e-06	-5.035888e-09	-9.316846e+00	-3.315497e+02
7.400000e-07	-1.144882e-06	-4.832797e-09	-8.241416e+00	-3.180608e+02
7.500000e-07	-9.950675e-07	-4.623034e-09	-7.162980e+00	-3.041116e+02
7.600000e-07	-8.449477e-07	-4.405127e-09	-6.082344e+00	-2.896985e+02
7.700000e-07	-6.945201e-07	-4.179000e-09	-4.999493e+00	-2.748202e+02
7.800000e-07	-5.438423e-07	-3.945135e-09	-3.914842e+00	-2.594745e+02
7.900000e-07	-3.929914e-07	-3.704135e-09	-2.828943e+00	-2.436555e+02
8.000000e-07	-2.419981e-07	-3.454170e-09	-1.742020e+00	-2.273500e+02
8.100000e-07	-9.090766e-08	-3.196988e-09	-6.543976e-01	-2.105353e+02
8.200000e-07	6.023704e-08	-2.932955e-09	4.336155e-01	-1.931772e+02
8.300000e-07	2.113684e-07	-2.660501e-09	1.521533e+00	-1.752299e+02
8.400000e-07	3.624760e-07	-2.375827e-09	2.609278e+00	-1.566379e+02
8.500000e-07	5.135202e-07	-2.078513e-09	3.696568e+00	-1.373396e+02
8.600000e-07	6.643870e-07	-1.772557e-09	4.782581e+00	-1.172729e+02
8.700000e-07	8.150732e-07	-1.453463e-09	5.867294e+00	-9.638207e+01
8.800000e-07	9.655682e-07	-1.119545e-09	6.950630e+00	-7.462605e+01
8.900000e-07	1.115784e-06	-7.744818e-10	8.031955e+00	-5.198592e+01
9.000000e-07	1.265623e-06	-4.200575e-10	9.110572e+00	-2.847227e+01
9.100000e-07	1.414987e-06	-5.420863e-11	1.018577e+01	-4.130593e+00
9.200000e-07	1.563812e-06	3.252678e-10	1.125708e+01	2.095566e+01
9.300000e-07	1.712058e-06	7.166685e-10	1.232423e+01	4.666494e+01
9.400000e-07	1.859723e-06	1.117696e-09	1.338719e+01	7.284063e+01
9.500000e-07	2.006735e-06	1.522875e-09	1.444545e+01	9.929707e+01
9.600000e-07	2.152966e-06	1.929457e-09	1.549810e+01	1.258283e+02
9.700000e-07	2.298363e-06	2.335511e-09	1.654474e+01	1.522185e+02
9.800000e-07	2.442845e-06	2.735959e-09	1.758479e+01	1.782536e+02
9.900000e-07	2.586434e-06	3.124658e-09	1.861841e+01	2.037329e+02
1.000000e-06	2.729136e-06	3.498369e-09	1.964565e+01	2.284790e+02
1.010000e-06	2.870760e-06	3.856994e-09	2.066513e+01	2.523465e+02
1.020000e-06	3.011119e-06	4.200941e-09	2.167550e+01	2.752273e+02
1.030000e-06	3.150199e-06	4.530511e-09	2.267666e+01	2.970532e+02
1.040000e-06	3.288036e-06	4.845476e-09	2.366888e+01	3.177949e+02
1.050000e-06	3.424609e-06	5.144074e-09	2.465200e+01	3.374587e+02
1.060000e-06	3.559875e-06	5.426034e-09	2.562571e+01	3.560801e+02
1.070000e-06	3.693870e-06	5.692948e-09	2.659028e+01	3.737162e+02
1.080000e-06	3.826614e-06	5.947640e-09	2.754583e+01	3.904373e+02
1.090000e-06	3.957869e-06	6.189603e-09	2.849066e+01	4.063191e+02
1.100000e-06	4.087649e-06	6.419629e-09	2.942488e+01	4.214349e+02
1.110000e-06	4.216094e-06	6.639106e-09	3.034950e+01	4.358503e+02
1.120000e-06	4.343108e-06	6.847459e-09	3.126380e+01	4.496199e+02
1.130000e-06	4.468665e-06	7.047212e-09	3.216762e+01	4.627852e+02
1.140000e-06	4.592669e-06	7.238240e-09	3.306027e+01	4.753752e+02
1.150000e-06	4.715030e-06	7.418798e-09	3.394108e+01	4.874088e+02
1.160000e-06	4.835726e-06	7.588959e-09	3.480991e+01	4.988973e+02
1.170000e-06	4.954699e-06	7.751775e-09	3.566634e+01	5.098483e+02
1.180000e-06	5.071784e-06	7.909106e-09	3.650917e+01	5.202686e+02
1.190000e-06	5.186911e-06	8.059353e-09	3.733791e+01	5.301679e+02
1.200000e-06	5.300088e-06	8.201879e-09	3.815261e+01	5.395598e+02
1.210000e-06	5.411247e-06	8.337518e-09	3.895279e+01	5.484632e+02
1.220000e-06	5.520514e-06	8.469632e-09	3.973934e+01	5.569021e+02
1.230000e-06	5.627849e-06	8.598710e-09	4.051200e+01	5.649040e+02
1.240000e-06	5.733117e-06	8.720054e-09	4.126976e+01	5.724988e+02
1.250000e-06	5.836318e-06	8.830713e-09	4.201266e+01	5.797166e+02
1.260000e-06	5.937373e-06	8.932969e-09	4.274010e+01	5.865856e+02
1.270000e-06	6.036170e-06	9.029770e-09	4.345129e+01	5.931314e+02
1.280000e-06	6.132692e-06	9.119380e-09	4.414610e+01	5.993752e+02
1.290000e-06	6.227026e-06	9.204651e-09	4.482517e+01	6.053345e+02
1.300000e-06	6.319155e-06	9.286642e-09	4.548835e+01	6.110227e+02
1.310000e-06	6.408975e-06	9.368361e-09	4.613492e+01	6.164507e+02
1.320000e-06	6.496438e-06	9.450247e-09	4.676452e+01	6.216272e+02
1.330000e-06	6.581637e-06	9.529345e-09	4.737782e+01	6.265606e+02
1.340000e-06	6.664576e-06	9.604509e-09	4.797486e+01	6.312593e+02
1.350000e-06	6.745118e-06	9.673901e-09	4.855464e+01	6.357321e+02
1.360000e-06	6.823168e-06	9.736854e-09	4.911648e+01	6.399889e+02
1.370000e-06	6.898617e-06	9.795415e-09	4.965960e+01	6.440395e+02
1.380000e-06	6.971409e-06	9.851711e-09	5.018359e+01	6.478932e+02
1.390000e-06	7.041690e-06	9.905246e-09	5.068951e+01	6.515582e+02
1.400000e-06	7.109519e-06	9.956890e-09	5.117778e+01	6.550402e+02
1.410000e-06	7.174744e-06	1.000821e-08	5.164730e+01	6.583421e+02
1.420000e-06	7.237442e-06	1.005919e-08	5.209863e+01	6.614639e+02
1.430000e-06	7.297730e-06	1.010633e-08	5.253261e+01	6.644029e+02
1.440000e-06	7.355552e-06	1.014836e-08	5.294884e+01	6.671544e+02
1.450000e-06	7.410769e-06	1.018499e-08	5.334632e+01	6.697134e+02
1.460000e-06	7.463074e-06	1.021814e-08	5.372283e+01	6.720752e+02
1.470000e-06	7.512298e-06	1.024986e-08	5.407718e+01	6.742375e+02
1.480000e-06	7.558665e-06	1.027975e-08	5.441095e+01	6.762014e+02
1.490000e-06	7.602370e-06	1.030557e-08	5.472556e+01	6.779720e+02
1.500000e-06	7.643351e-06	1.032754e-08	5.502056e+01	6.795585e+02
1.510000e-06	7.681586e-06	1.034878e-08	5.529579e+01	6.809742e+02
1.520000e-06	7.717175e-06	1.036872e-08	5.555198e+01	6.822350e+02
1.530000e-06	7.750005e-06	1.038902e-08	5.578831e+01	6.833581e+02
1.540000e-06	7.780048e-06	1.040814e-08	5.600457e+01	6.843602e+02
1.550000e-06	7.807364e-06	1.042454e-08	5.620120e+01	6.852557e+02
1.560000e-06	7.831824e-06	1.043837e-08	5.637728e+01	6.860555e+02
1.570000e-06	7.853504e-06	1.044820e-08	5.653334e+01	6.867655e+02
1.580000e-06	7.872486e-06	1.045632e-08	5.666999e+01	6.873870e+02
1.590000e-06	7.888601e-06	1.046400e-08	5.678599e+01	6.879164e+02
1.600000e-06	7.901662e-06	1.047066e-08	5.688000e+01	6.883463e+02
1.610000e-06	7.911592e-06	1.047709e-08	5.695149e+01	6.886676e+02
1.620000e-06	7.918547e-06	1.048275e-08	5.700155e+01	6.888704e+02
1.630000e-06	7.922741e-06	1.048674e-08	5.703174e+01	6.889465e+02
1.640000e-06	7.924096e-06	1.048738e-08	5.704150e+01	6.888909e+02
1.650000e-06	7.922683e-06	1.048343e-08	5.703132e+01	6.887030e+02
1.660000e-06	7.918724e-06	1.047794e-08	5.700283e+01	6.883867e+02
1.670000e-06	7.912068e-06	1.046861e-08	5.695491e+01	6.879511e+02
1.680000e-06	7.902709e-06	1.046148e-08	5.688754e+01	6.874090e+02
1.690000e-06	7.890723e-06	1.045745e-08	5.680126e+01	6.867758e+02
1.700000e-06	7.875961e-06	1.045301e-08	5.669500e+01	6.860677e+02
1.710000e-06	7.858634e-06	1.044205e-08	5.657027e+01	6.853000e+02
1.720000e-06	7.839053e-06	1.040782e-08	5.642931e+01	6.844855e+02
1.730000e-06	7.816972e-06	1.037290e-08	5.627037e+01	6.836325e+02
1.740000e-06	7.791734e-06	1.034788e-08	5.608869e+01	6.827448e+02
1.750000e-06	7.762915e-06	1.034444e-08	5.588124e+01	6.818209e+02
1.760000e-06	7.730782e-06	1.034603e-08	5.564993e+01	6.808544e+02
1.770000e-06	7.696063e-06	1.034726e-08	5.540001e+01	6.798348e+02
1.780000e-06	7.659041e-06	1.035220e-08	5.513351e+01	6.787492e+02
1.790000e-06	7.619801e-06	1.032126e-08	5.485103e+01	6.775831e+02
1.800000e-06	7.578606e-06	1.032156e-08	5.455449e+01	6.763220e+02
1.810000e-06	7.535076e-06	1.028355e-08	5.424114e+01	6.749530e+02
1.820000e-06	7.488880e-06	1.026815e-08	5.390860e+01	6.734652e+02
1.830000e-06	7.439955e-06	1.027707e-08	5.355641e+01	6.718505e+02
1.840000e-06	7.388064e-06	1.024052e-08	5.318287e+01	6.701037e+02
1.850000e-06	7.333250e-06	1.025294e-08	5.278830e+01	6.682223e+02
1.860000e-06	7.275670e-06	1.020760e-08	5.237381e+01	6.662059e+02
1.870000e-06	7.215554e-06	1.014528e-08	5.194106e+01	6.640555e+02
1.880000e-06	7.152850e-06	1.009026e-08	5.148970e+01	6.617732e+02
1.890000e-06	7.087336e-06	1.003983e-08	5.101809e+01	6.593613e+02
1.900000e-06	7.019075e-06	1.001912e-08	5.052671e+01	6.568221e+02
1.910000e-06	6.947960e-06	9.985943e-09	5.001479e+01	6.541575e+02
1.920000e-06	6.874153e-06	9.969573e-09	4.948350e+01	6.513692e+02
1.930000e-06	6.797765e-06	9.899389e-09	4.893362e+01	6.484584e+02
1.940000e-06	6.718605e-06	9.832000e-09	4.836378e+01	6.454264e+02
1.950000e-06	6.636926e-06	9.793074e-09	4.777582e+01	6.422741e+02
1.960000e-06	6.552883e-06	9.744186e-09	4.717084e+01	6.390024e+02
1.970000e-06	6.466411e-06	9.705969e-09	4.654837e+01	6.356120e+02
1.980000e-06	6.377545e-06	9.658007e-09	4.590867e+01	6.321029e+02
1.990000e-06	6.286413e-06	9.615577e-09	4.525266e+01	6.284743e+02
2.000000e-06	6.193097e-06	9.532975e-09	4.458092e+01	6.247243e+02
2.010000e-06	6.097483e-06	9.469108e-09	4.389265e+01	6.208495e+02
2.020000e-06	5.999624e-06	9.416832e-09	4.318821e+01	6.168448e+02
2.030000e-06	5.899707e-06	9.355339e-09	4.246896e+01	6.127038e+02
2.040000e-06	5.797773e-06	9.288804e-09	4.173519e+01	6.084189e+02
2.050000e-06	5.693687e-06	9.223904e-09	4.098593e+01	6.039817e+02
2.060000e-06	5.587610e-06	9.169295e-09	4.022233e+01	5.993840e+02
2.070000e-06	5.479695e-06	9.082322e-09	3.944551e+01	5.946182e+02
2.080000e-06	5.369895e-06	8.995275e-09	3.865512e+01	5.896779e+02
2.090000e-06	5.258129e-06	8.916067e-09	3.785057e+01	5.845586e+02
2.100000e-06	5.144349e-06	8.842328e-09	3.703153e+01	5.792575e+02
2.110000e-06	5.028632e-06	8.756065e-09	3.619854e+01	5.737736e+02
2.120000e-06	4.910990e-06	8.679641e-09	3.535170e+01	5.681069e+02
2.130000e-06	4.791410e-06	8.601835e-09	3.449090e+01	5.622581e+02
2.140000e-06	4.670011e-06	8.506614e-09	3.361701e+01	5.562273e+02
2.150000e-06	4.546897e-06	8.401558e-09	3.273078e+01	5.500133e+02
2.160000e-06	4.422129e-06	8.303207e-09	3.183264e+01	5.436127e+02
2.170000e-06	4.295825e-06	8.212242e-09	3.092344e+01	5.370198e+02
2.180000e-06	4.167863e-06	8.108589e-09	3.000230e+01	5.302260e+02
2.190000e-06	4.038336e-06	8.002765e-09	2.906991e+01	5.232207e+02
2.200000e-06	3.907325e-06	7.892531e-09	2.812682e+01	5.159913e+02
2.210000e-06	3.774839e-06	7.778350e-09	2.717313e+01	5.085247e+02
2.220000e-06	3.641054e-06	7.658199e-09	2.621008e+01	5.008083e+02
2.230000e-06	3.505974e-06	7.542573e-09	2.523771e+01	4.928305e+02
2.240000e-06	3.369439e-06	7.422997e-09	2.425486e+01	4.845819e+02
2.250000e-06	3.231540e-06	7.292241e-09	2.326219e+01	4.760554e+02
2.260000e-06	3.092492e-06	7.156566e-09	2.226126e+01	4.672459e+02
2.270000e-06	2.952325e-06	7.017742e-09	2.125227e+01	4.581501e+02
2.280000e-06	2.811012e-06	6.871610e-09	2.023503e+01	4.487648e+02
2.290000e-06	2.668608e-06	6.720084e-09	1.920994e+01	4.390863e+02
2.300000e-06	2.525189e-06	6.567131e-09	1.817754e+01	4.291085e+02
2.310000e-06	2.380765e-06	6.413635e-09	1.713790e+01	4.188225e+02
2.320000e-06	2.235509e-06	6.258201e-09	1.609228e+01	4.082155e+02
2.330000e-06	2.089546e-06	6.098174e-09	1.504157e+01	3.972709e+02
2.340000e-06	1.942850e-06	5.928286e-09	1.398558e+01	3.859689e+02
2.350000e-06	1.795501e-06	5.745669e-09	1.292489e+01	3.742881e+02
2.360000e-06	1.647605e-06	5.554158e-09	1.186026e+01	3.622066e+02
2.370000e-06	1.499260e-06	5.358633e-09	1.079240e+01	3.497039e+02
2.380000e-06	1.350478e-06	5.162646e-09	9.721399e+00	3.367631e+02
2.390000e-06	1.201214e-06	4.960935e-09	8.646921e+00	3.233712e+02
2.400000e-06	1.051510e-06	4.750591e-09	7.569280e+00	3.095202e+02
2.410000e-06	9.015047e-07	4.530303e-09	6.489469e+00	2.952058e+02
2.420000e-06	7.513110e-07	4.303593e-09	5.408302e+00	2.804264e+02
2.430000e-06	6.008872e-07	4.076639e-09	4.325478e+00	2.651803e+02
2.440000e-06	4.502455e-07	3.843517e-09	3.241086e+00	2.494626e+02
2.450000e-06	2.994559e-07	3.596633e-09	2.155629e+00	2.332620e+02
2.460000e-06	1.485789e-07	3.335759e-09	1.069543e+00	2.165581e+02
2.470000e-06	-2.393184e-09	3.066615e-09	-1.722730e-02	1.993190e+02
2.480000e-06	-1.534553e-07	2.792424e-09	-1.104646e+00	1.815015e+02
2.490000e-06	-3.044463e-07	2.508620e-09	-2.191553e+00	1.630518e+02
2.500000e-06	-4.552864e-07	2.214709e-09	-3.277373e+00	1.439093e+02
2.510000e-06	-6.060317e-07	1.911200e-09	-4.362511e+00	1.240114e+02
2.520000e-06	-7.566288e-07	1.597225e-09	-5.446582e+00	1.033004e+02
2.530000e-06	-9.070102e-07	1.271358e-09	-6.529101e+00	8.173135e+01
2.540000e-06	-1.057165e-06	9.351805e-10	-7.609988e+00	5.928001e+01
2.550000e-06	-1.207019e-06	5.849282e-10	-8.688713e+00	3.595009e+01
2.560000e-06	-1.356451e-06	2.153311e-10	-9.764394e+00	1.177926e+01
2.570000e-06	-1.505313e-06	-1.675816e-10	-1.083597e+01	-1.315727e+01
2.580000e-06	-1.653632e-06	-5.586037e-10	-1.190365e+01	-3.874599e+01
2.590000e-06	-1.801424e-06	-9.562815e-10	-1.296753e+01	-6.483736e+01
2.600000e-06	-1.948502e-06	-1.360608e-09	-1.402627e+01	-9.125131e+01
2.610000e-06	-2.094822e-06	-1.770470e-09	-1.507955e+01	-1.177854e+02
2.620000e-06	-2.240409e-06	-2.178777e-09	-1.612756e+01	-1.442249e+02
2.630000e-06	-2.385105e-06	-2.578868e-09	-1.716915e+01	-1.703545e+02
2.640000e-06	-2.528771e-06	-2.968195e-09	-1.820332e+01	-1.959697e+02
2.650000e-06	-2.671383e-06	-3.346537e-09	-1.922991e+01	-2.208872e+02
2.660000e-06	-2.812967e-06	-3.714143e-09	-2.024910e+01	-2.449543e+02
2.670000e-06	-2.953471e-06	-4.067676e-09	-2.126052e+01	-2.680545e+02
2.680000e-06	-3.092837e-06	-4.404244e-09	-2.226374e+01	-2.901111e+02
2.690000e-06	-3.231039e-06	-4.722770e-09	-2.325859e+01	-3.110866e+02
2.700000e-06	-3.367988e-06	-5.024764e-09	-2.424441e+01	-3.309802e+02
2.710000e-06	-3.503598e-06	-5.312194e-09	-2.522060e+01	-3.498216e+02
2.720000e-06	-3.637931e-06	-5.586180e-09	-2.618759e+01	-3.676641e+02
2.730000e-06	-3.771037e-06	-5.847647e-09	-2.714576e+01	-3.845759e+02
2.740000e-06	-3.902793e-06	-6.095870e-09	-2.809420e+01	-4.006320e+02
2.750000e-06	-4.033121e-06	-6.331459e-09	-2.903237e+01	-4.159070e+02
2.760000e-06	-4.162095e-06	-6.557220e-09	-2.996079e+01	-4.304684e+02
2.770000e-06	-4.289605e-06	-6.775947e-09	-3.087866e+01	-4.443733e+02
2.780000e-06	-4.415577e-06	-6.985846e-09	-3.178547e+01	-4.576660e+02
2.790000e-06	-4.540076e-06	-7.182458e-09	-3.268167e+01	-4.703783e+02
2.800000e-06	-4.662922e-06	-7.365422e-09	-3.356598e+01	-4.825309e+02
2.810000e-06	-4.784082e-06	-7.538348e-09	-3.443815e+01	-4.941364e+02
2.820000e-06	-4.903474e-06	-7.704046e-09	-3.529759e+01	-5.052028e+02
2.830000e-06	-5.020991e-06	-7.863019e-09	-3.614354e+01	-5.157371e+02
2.840000e-06	-5.136493e-06	-8.015012e-09	-3.697497e+01	-5.257479e+02
2.850000e-06	-5.249834e-06	-8.158369e-09	-3.779086e+01	-5.352480e+02
2.860000e-06	-5.361136e-06	-8.295718e-09	-3.859206e+01	-5.442551e+02
2.870000e-06	-5.470478e-06	-8.428402e-09	-3.937916e+01	-5.527922e+02
2.880000e-06	-5.577900e-06	-8.555025e-09	-4.015244e+01	-5.608862e+02
2.890000e-06	-5.683419e-06	-8.675392e-09	-4.091201e+01	-5.685665e+02
2.900000e-06	-5.786900e-06	-8.790174e-09	-4.165692e+01	-5.758635e+02
2.910000e-06	-5.888215e-06	-8.898640e-09	-4.238623e+01	-5.828059e+02
2.920000e-06	-5.987332e-06	-8.999465e-09	-4.309973e+01	-5.894198e+02
2.930000e-06	-6.084330e-06	-9.094450e-09	-4.379797e+01	-5.957277e+02
2.940000e-06	-6.179211e-06	-9.186059e-09	-4.448097e+01	-6.017475e+02
