# Temperatura_=_65.38
# Concentracion g/m^3_=_10000.0
# C_Vs_to_Am_M_A/Vsm_=_65563218390.804596
# pendiente_HvsI_1/m_=_3716.3
# ordenada_HvsI_A/m_=_1297.0
# frecuencia_Hz_=_302624.8868664826

Tiempo_(s)	Campo_(V.s)	Magnetizacion_(V.s)	Campo_(kA/m)	Magnetizacion_(A/m)
0.000000e+00	-7.953398e-06	-1.121067e-08	-5.681815e+01	-7.346066e+02
1.000000e-08	-7.948882e-06	-1.120918e-08	-5.678588e+01	-7.341752e+02
2.000000e-08	-7.941822e-06	-1.120120e-08	-5.673545e+01	-7.336255e+02
3.000000e-08	-7.932028e-06	-1.119169e-08	-5.666548e+01	-7.329724e+02
4.000000e-08	-7.919360e-06	-1.118133e-08	-5.657498e+01	-7.322305e+02
5.000000e-08	-7.903774e-06	-1.116783e-08	-5.646364e+01	-7.314126e+02
6.000000e-08	-7.885533e-06	-1.115508e-08	-5.633333e+01	-7.305279e+02
7.000000e-08	-7.865033e-06	-1.113982e-08	-5.618688e+01	-7.295818e+02
8.000000e-08	-7.841992e-06	-1.115428e-08	-5.602227e+01	-7.285753e+02
9.000000e-08	-7.815865e-06	-1.118669e-08	-5.583562e+01	-7.275057e+02
1.000000e-07	-7.786533e-06	-1.114451e-08	-5.562608e+01	-7.263669e+02
1.100000e-07	-7.754284e-06	-1.108349e-08	-5.539570e+01	-7.251512e+02
1.200000e-07	-7.719292e-06	-1.105116e-08	-5.514572e+01	-7.238495e+02
1.300000e-07	-7.681776e-06	-1.102230e-08	-5.487771e+01	-7.224530e+02
1.400000e-07	-7.642029e-06	-1.097289e-08	-5.459376e+01	-7.209534e+02
1.500000e-07	-7.600067e-06	-1.092081e-08	-5.429399e+01	-7.193435e+02
1.600000e-07	-7.555586e-06	-1.097392e-08	-5.397622e+01	-7.176170e+02
1.700000e-07	-7.508329e-06	-1.092003e-08	-5.363863e+01	-7.157685e+02
1.800000e-07	-7.458278e-06	-1.084986e-08	-5.328107e+01	-7.137930e+02
1.900000e-07	-7.405337e-06	-1.088487e-08	-5.290286e+01	-7.116853e+02
2.000000e-07	-7.349536e-06	-1.078210e-08	-5.250422e+01	-7.094403e+02
2.100000e-07	-7.291052e-06	-1.072739e-08	-5.208642e+01	-7.070525e+02
2.200000e-07	-7.229960e-06	-1.073083e-08	-5.164999e+01	-7.045168e+02
2.300000e-07	-7.166245e-06	-1.071027e-08	-5.119482e+01	-7.018287e+02
2.400000e-07	-7.099762e-06	-1.066095e-08	-5.071987e+01	-6.989853e+02
2.500000e-07	-7.030557e-06	-1.059092e-08	-5.022548e+01	-6.959856e+02
2.600000e-07	-6.958602e-06	-1.056403e-08	-4.971144e+01	-6.928314e+02
2.700000e-07	-6.883804e-06	-1.050026e-08	-4.917709e+01	-6.895270e+02
2.800000e-07	-6.806295e-06	-1.045225e-08	-4.862337e+01	-6.860792e+02
2.900000e-07	-6.726113e-06	-1.040833e-08	-4.805056e+01	-6.824964e+02
3.000000e-07	-6.643469e-06	-1.035926e-08	-4.746016e+01	-6.787877e+02
3.100000e-07	-6.558560e-06	-1.030379e-08	-4.685359e+01	-6.749610e+02
3.200000e-07	-6.471265e-06	-1.021871e-08	-4.622996e+01	-6.710221e+02
3.300000e-07	-6.381591e-06	-1.016700e-08	-4.558934e+01	-6.669731e+02
3.400000e-07	-6.289686e-06	-1.010328e-08	-4.493278e+01	-6.628118e+02
3.500000e-07	-6.195579e-06	-1.003127e-08	-4.426049e+01	-6.585315e+02
3.600000e-07	-6.099156e-06	-9.964867e-09	-4.357166e+01	-6.541211e+02
3.700000e-07	-6.000461e-06	-9.906114e-09	-4.286659e+01	-6.495665e+02
3.800000e-07	-5.899608e-06	-9.836383e-09	-4.214611e+01	-6.448525e+02
3.900000e-07	-5.796643e-06	-9.751335e-09	-4.141054e+01	-6.399638e+02
4.000000e-07	-5.691657e-06	-9.674726e-09	-4.066053e+01	-6.348879e+02
4.100000e-07	-5.584706e-06	-9.586559e-09	-3.989649e+01	-6.296158e+02
4.200000e-07	-5.475807e-06	-9.506974e-09	-3.911852e+01	-6.241437e+02
4.300000e-07	-5.364931e-06	-9.431158e-09	-3.832644e+01	-6.184727e+02
4.400000e-07	-5.252008e-06	-9.354407e-09	-3.751973e+01	-6.126084e+02
4.500000e-07	-5.137011e-06	-9.258955e-09	-3.669820e+01	-6.065594e+02
4.600000e-07	-5.020076e-06	-9.155631e-09	-3.586284e+01	-6.003354e+02
4.700000e-07	-4.901282e-06	-9.053886e-09	-3.501418e+01	-5.939448e+02
4.800000e-07	-4.780577e-06	-8.951093e-09	-3.415188e+01	-5.873925e+02
4.900000e-07	-4.658154e-06	-8.852636e-09	-3.327731e+01	-5.806785e+02
5.000000e-07	-4.534131e-06	-8.750828e-09	-3.239130e+01	-5.737962e+02
5.100000e-07	-4.408458e-06	-8.641913e-09	-3.149351e+01	-5.667331e+02
5.200000e-07	-4.281095e-06	-8.522568e-09	-3.058364e+01	-5.594711e+02
5.300000e-07	-4.152114e-06	-8.406306e-09	-2.966221e+01	-5.519890e+02
5.400000e-07	-4.021705e-06	-8.288467e-09	-2.873059e+01	-5.442641e+02
5.500000e-07	-3.889797e-06	-8.165531e-09	-2.778825e+01	-5.362755e+02
5.600000e-07	-3.756398e-06	-8.037330e-09	-2.683527e+01	-5.280061e+02
5.700000e-07	-3.621530e-06	-7.907149e-09	-2.587179e+01	-5.194446e+02
5.800000e-07	-3.485170e-06	-7.773280e-09	-2.489764e+01	-5.105862e+02
5.900000e-07	-3.347480e-06	-7.633833e-09	-2.391401e+01	-5.014323e+02
6.000000e-07	-3.208588e-06	-7.493391e-09	-2.292178e+01	-4.919888e+02
6.100000e-07	-3.068310e-06	-7.347186e-09	-2.191965e+01	-4.822641e+02
6.200000e-07	-2.926546e-06	-7.194549e-09	-2.090690e+01	-4.722654e+02
6.300000e-07	-2.783586e-06	-7.037985e-09	-1.988562e+01	-4.619962e+02
6.400000e-07	-2.639673e-06	-6.880346e-09	-1.885751e+01	-4.514531e+02
6.500000e-07	-2.494925e-06	-6.713268e-09	-1.782345e+01	-4.406242e+02
6.600000e-07	-2.349392e-06	-6.536293e-09	-1.678378e+01	-4.294886e+02
6.700000e-07	-2.203058e-06	-6.355644e-09	-1.573839e+01	-4.180173e+02
6.800000e-07	-2.055918e-06	-6.171083e-09	-1.468723e+01	-4.061755e+02
6.900000e-07	-1.908029e-06	-5.983851e-09	-1.363073e+01	-3.939261e+02
7.000000e-07	-1.759513e-06	-5.791260e-09	-1.256975e+01	-3.812331e+02
7.100000e-07	-1.610499e-06	-5.595907e-09	-1.150522e+01	-3.680661e+02
7.200000e-07	-1.461014e-06	-5.392360e-09	-1.043731e+01	-3.544027e+02
7.300000e-07	-1.311019e-06	-5.176970e-09	-9.365767e+00	-3.402299e+02
7.400000e-07	-1.160572e-06	-4.952412e-09	-8.290987e+00	-3.255444e+02
7.500000e-07	-1.009704e-06	-4.721862e-09	-7.213205e+00	-3.103491e+02
7.600000e-07	-8.583867e-07	-4.483921e-09	-6.132214e+00	-2.946496e+02
7.700000e-07	-7.067011e-07	-4.236071e-09	-5.048590e+00	-2.784482e+02
7.800000e-07	-5.547553e-07	-3.981219e-09	-3.963107e+00	-2.617375e+02
7.900000e-07	-4.026000e-07	-3.720096e-09	-2.876127e+00	-2.444942e+02
8.000000e-07	-2.502693e-07	-3.450642e-09	-1.787894e+00	-2.266752e+02
8.100000e-07	-9.781106e-08	-3.167021e-09	-6.987508e-01	-2.082148e+02
8.200000e-07	5.470251e-08	-2.870856e-09	3.907883e-01	-1.890261e+02
8.300000e-07	2.072335e-07	-2.560692e-09	1.480452e+00	-1.690054e+02
8.400000e-07	3.597283e-07	-2.234602e-09	2.569857e+00	-1.480403e+02
8.500000e-07	5.121402e-07	-1.893808e-09	3.658670e+00	-1.260205e+02
8.600000e-07	6.643932e-07	-1.541211e-09	4.746347e+00	-1.028511e+02
8.700000e-07	8.164528e-07	-1.173579e-09	5.832643e+00	-7.846631e+01
8.800000e-07	9.682420e-07	-7.864431e-10	6.917007e+00	-5.284199e+01
8.900000e-07	1.119650e-06	-3.835930e-10	7.998651e+00	-2.600661e+01
9.000000e-07	1.270595e-06	3.450763e-11	9.076979e+00	1.952046e+00
9.100000e-07	1.421001e-06	4.693108e-10	1.015146e+01	3.088479e+01
9.200000e-07	1.570872e-06	9.242401e-10	1.122213e+01	6.058418e+01
9.300000e-07	1.720180e-06	1.392700e-09	1.228877e+01	9.079295e+01
9.400000e-07	1.868906e-06	1.866284e-09	1.335124e+01	1.212172e+02
9.500000e-07	2.016947e-06	2.337147e-09	1.440883e+01	1.515429e+02
9.600000e-07	2.164215e-06	2.797322e-09	1.546090e+01	1.814547e+02
9.700000e-07	2.310630e-06	3.243680e-09	1.650687e+01	2.106548e+02
9.800000e-07	2.456201e-06	3.670231e-09	1.754681e+01	2.388802e+02
9.900000e-07	2.600973e-06	4.075680e-09	1.858105e+01	2.659168e+02
1.000000e-06	2.744766e-06	4.457062e-09	1.960829e+01	2.916093e+02
1.010000e-06	2.887423e-06	4.817822e-09	2.062741e+01	3.158654e+02
1.020000e-06	3.028878e-06	5.158468e-09	2.163795e+01	3.386555e+02
1.030000e-06	3.169082e-06	5.480883e-09	2.263955e+01	3.600061e+02
1.040000e-06	3.308073e-06	5.787701e-09	2.363249e+01	3.799903e+02
1.050000e-06	3.445894e-06	6.075902e-09	2.461707e+01	3.987149e+02
1.060000e-06	3.582362e-06	6.346838e-09	2.559198e+01	4.163063e+02
1.070000e-06	3.717313e-06	6.601625e-09	2.655605e+01	4.328968e+02
1.080000e-06	3.850957e-06	6.842609e-09	2.751079e+01	4.486125e+02
1.090000e-06	3.983281e-06	7.069095e-09	2.845610e+01	4.635637e+02
1.100000e-06	4.114139e-06	7.283217e-09	2.939092e+01	4.778389e+02
1.110000e-06	4.243711e-06	7.489064e-09	3.031657e+01	4.915029e+02
1.120000e-06	4.371818e-06	7.687138e-09	3.123176e+01	5.045971e+02
1.130000e-06	4.498280e-06	7.877226e-09	3.213519e+01	5.171435e+02
1.140000e-06	4.623200e-06	8.058950e-09	3.302760e+01	5.291506e+02
1.150000e-06	4.746497e-06	8.231076e-09	3.390842e+01	5.406189e+02
1.160000e-06	4.868221e-06	8.393992e-09	3.477800e+01	5.515479e+02
1.170000e-06	4.988205e-06	8.548548e-09	3.563515e+01	5.619406e+02
1.180000e-06	5.106261e-06	8.697988e-09	3.647853e+01	5.718072e+02
1.190000e-06	5.222448e-06	8.841706e-09	3.730856e+01	5.811665e+02
1.200000e-06	5.336707e-06	8.979733e-09	3.812481e+01	5.900454e+02
1.210000e-06	5.448879e-06	9.110811e-09	3.892615e+01	5.984771e+02
1.220000e-06	5.558997e-06	9.237113e-09	3.971283e+01	6.064981e+02
1.230000e-06	5.667127e-06	9.362337e-09	4.048529e+01	6.141448e+02
1.240000e-06	5.773243e-06	9.480638e-09	4.124337e+01	6.214503e+02
1.250000e-06	5.877240e-06	9.587413e-09	4.198631e+01	6.284420e+02
1.260000e-06	5.979045e-06	9.684924e-09	4.271360e+01	6.351402e+02
1.270000e-06	6.078717e-06	9.778890e-09	4.342564e+01	6.415585e+02
1.280000e-06	6.176163e-06	9.869411e-09	4.412178e+01	6.477044e+02
1.290000e-06	6.271286e-06	9.954299e-09	4.480133e+01	6.535814e+02
1.300000e-06	6.364127e-06	1.003563e-08	4.546458e+01	6.591919e+02
1.310000e-06	6.454751e-06	1.011501e-08	4.611199e+01	6.645386e+02
1.320000e-06	6.542993e-06	1.019343e-08	4.674237e+01	6.696275e+02
1.330000e-06	6.628896e-06	1.026850e-08	4.735606e+01	6.744681e+02
1.340000e-06	6.712531e-06	1.033997e-08	4.795353e+01	6.790743e+02
1.350000e-06	6.793715e-06	1.040906e-08	4.853351e+01	6.834627e+02
1.360000e-06	6.872362e-06	1.047453e-08	4.909535e+01	6.876519e+02
1.370000e-06	6.948473e-06	1.053682e-08	4.963908e+01	6.916595e+02
1.380000e-06	7.021939e-06	1.059454e-08	5.016391e+01	6.955003e+02
1.390000e-06	7.092838e-06	1.065002e-08	5.067041e+01	6.991847e+02
1.400000e-06	7.161346e-06	1.070308e-08	5.115981e+01	7.027166e+02
1.410000e-06	7.227272e-06	1.075454e-08	5.163078e+01	7.060941e+02
1.420000e-06	7.290586e-06	1.080380e-08	5.208309e+01	7.093095e+02
1.430000e-06	7.351443e-06	1.084795e-08	5.251785e+01	7.123509e+02
1.440000e-06	7.409810e-06	1.089007e-08	5.293482e+01	7.152049e+02
1.450000e-06	7.465532e-06	1.092998e-08	5.333289e+01	7.178585e+02
1.460000e-06	7.518368e-06	1.096840e-08	5.371034e+01	7.203021e+02
1.470000e-06	7.568080e-06	1.100343e-08	5.406548e+01	7.225313e+02
1.480000e-06	7.614842e-06	1.103502e-08	5.439954e+01	7.245477e+02
1.490000e-06	7.659005e-06	1.106397e-08	5.471503e+01	7.263600e+02
1.500000e-06	7.700407e-06	1.108841e-08	5.501080e+01	7.279825e+02
1.510000e-06	7.738988e-06	1.111038e-08	5.528642e+01	7.294338e+02
1.520000e-06	7.774964e-06	1.113098e-08	5.554344e+01	7.307347e+02
1.530000e-06	7.808177e-06	1.115202e-08	5.578070e+01	7.319051e+02
1.540000e-06	7.838562e-06	1.117054e-08	5.599777e+01	7.329626e+02
1.550000e-06	7.866251e-06	1.118496e-08	5.619558e+01	7.339195e+02
1.560000e-06	7.891061e-06	1.119888e-08	5.637281e+01	7.347824e+02
1.570000e-06	7.912971e-06	1.121247e-08	5.652934e+01	7.355515e+02
1.580000e-06	7.932148e-06	1.122423e-08	5.666634e+01	7.362216e+02
1.590000e-06	7.948443e-06	1.123233e-08	5.678275e+01	7.367829e+02
1.600000e-06	7.961698e-06	1.123730e-08	5.687744e+01	7.372239e+02
1.610000e-06	7.971807e-06	1.124135e-08	5.694966e+01	7.375328e+02
1.620000e-06	7.978897e-06	1.124485e-08	5.700030e+01	7.377001e+02
1.630000e-06	7.983228e-06	1.124713e-08	5.703124e+01	7.377201e+02
1.640000e-06	7.984663e-06	1.124816e-08	5.704150e+01	7.375923e+02
1.650000e-06	7.983292e-06	1.124576e-08	5.703171e+01	7.373210e+02
1.660000e-06	7.979385e-06	1.123792e-08	5.700379e+01	7.369155e+02
1.670000e-06	7.972787e-06	1.123201e-08	5.695666e+01	7.363888e+02
1.680000e-06	7.963539e-06	1.122444e-08	5.689059e+01	7.357554e+02
1.690000e-06	7.951586e-06	1.121476e-08	5.680520e+01	7.350302e+02
1.700000e-06	7.936782e-06	1.120714e-08	5.669944e+01	7.342265e+02
1.710000e-06	7.919435e-06	1.119477e-08	5.657552e+01	7.333543e+02
1.720000e-06	7.899833e-06	1.117155e-08	5.643548e+01	7.324200e+02
1.730000e-06	7.877686e-06	1.108744e-08	5.627726e+01	7.314254e+02
1.740000e-06	7.852369e-06	1.104404e-08	5.609640e+01	7.303685e+02
1.750000e-06	7.823487e-06	1.107521e-08	5.589007e+01	7.292440e+02
1.760000e-06	7.791291e-06	1.107524e-08	5.566007e+01	7.280443e+02
1.770000e-06	7.756541e-06	1.105974e-08	5.541182e+01	7.267607e+02
1.780000e-06	7.719421e-06	1.108091e-08	5.514664e+01	7.253840e+02
1.790000e-06	7.680022e-06	1.110424e-08	5.486518e+01	7.239060e+02
1.800000e-06	7.638637e-06	1.097450e-08	5.456953e+01	7.223190e+02
1.810000e-06	7.594854e-06	1.098450e-08	5.425675e+01	7.206168e+02
1.820000e-06	7.548344e-06	1.100317e-08	5.392449e+01	7.187938e+02
1.830000e-06	7.499136e-06	1.091181e-08	5.357295e+01	7.168447e+02
1.840000e-06	7.446924e-06	1.096265e-08	5.319995e+01	7.147646e+02
1.850000e-06	7.391823e-06	1.089880e-08	5.280632e+01	7.125483e+02
1.860000e-06	7.334023e-06	1.087798e-08	5.239340e+01	7.101904e+02
1.870000e-06	7.273514e-06	1.079739e-08	5.196113e+01	7.076856e+02
1.880000e-06	7.210333e-06	1.071340e-08	5.150978e+01	7.050293e+02
1.890000e-06	7.144402e-06	1.074372e-08	5.103877e+01	7.022181e+02
1.900000e-06	7.075734e-06	1.063783e-08	5.054822e+01	6.992507e+02
1.910000e-06	7.004225e-06	1.063033e-08	5.003736e+01	6.961282e+02
1.920000e-06	6.930044e-06	1.058629e-08	4.950742e+01	6.928542e+02
1.930000e-06	6.853158e-06	1.052367e-08	4.895816e+01	6.894353e+02
1.940000e-06	6.773491e-06	1.045481e-08	4.838903e+01	6.858796e+02
1.950000e-06	6.691367e-06	1.036810e-08	4.780234e+01	6.821959e+02
1.960000e-06	6.606716e-06	1.037259e-08	4.719761e+01	6.783927e+02
1.970000e-06	6.519590e-06	1.028977e-08	4.657519e+01	6.744764e+02
1.980000e-06	6.430153e-06	1.024007e-08	4.593626e+01	6.704498e+02
1.990000e-06	6.338473e-06	1.017878e-08	4.528131e+01	6.663119e+02
2.000000e-06	6.244550e-06	1.010198e-08	4.461034e+01	6.620567e+02
2.010000e-06	6.148329e-06	1.002045e-08	4.392294e+01	6.576740e+02
2.020000e-06	6.049921e-06	9.946126e-09	4.321993e+01	6.531505e+02
2.030000e-06	5.949332e-06	9.900021e-09	4.250133e+01	6.484708e+02
2.040000e-06	5.846652e-06	9.818884e-09	4.176780e+01	6.436195e+02
2.050000e-06	5.741926e-06	9.747242e-09	4.101964e+01	6.385834e+02
2.060000e-06	5.635226e-06	9.662364e-09	4.025740e+01	6.333527e+02
2.070000e-06	5.526540e-06	9.577170e-09	3.948096e+01	6.279224e+02
2.080000e-06	5.415879e-06	9.471859e-09	3.869040e+01	6.222925e+02
2.090000e-06	5.303281e-06	9.382061e-09	3.788602e+01	6.164677e+02
2.100000e-06	5.188685e-06	9.300428e-09	3.706736e+01	6.104563e+02
2.110000e-06	5.072053e-06	9.218323e-09	3.623415e+01	6.042679e+02
2.120000e-06	4.953437e-06	9.130373e-09	3.538677e+01	5.979112e+02
2.130000e-06	4.832984e-06	9.029792e-09	3.452628e+01	5.913922e+02
2.140000e-06	4.710802e-06	8.923936e-09	3.365342e+01	5.847120e+02
2.150000e-06	4.586874e-06	8.810206e-09	3.276809e+01	5.778654e+02
2.160000e-06	4.461161e-06	8.704862e-09	3.187002e+01	5.708412e+02
2.170000e-06	4.333889e-06	8.598193e-09	3.096080e+01	5.636225e+02
2.180000e-06	4.205078e-06	8.491744e-09	3.004059e+01	5.561882e+02
2.190000e-06	4.074798e-06	8.374393e-09	2.910988e+01	5.485160e+02
2.200000e-06	3.942925e-06	8.251457e-09	2.816780e+01	5.405844e+02
2.210000e-06	3.809404e-06	8.119986e-09	2.721394e+01	5.323751e+02
2.220000e-06	3.674545e-06	7.990063e-09	2.625052e+01	5.238757e+02
2.230000e-06	3.538440e-06	7.861234e-09	2.527820e+01	5.150798e+02
2.240000e-06	3.400988e-06	7.728289e-09	2.429626e+01	5.059877e+02
2.250000e-06	3.262164e-06	7.588658e-09	2.330452e+01	4.966044e+02
2.260000e-06	3.122022e-06	7.444064e-09	2.230336e+01	4.869381e+02
2.270000e-06	2.980641e-06	7.292339e-09	2.129335e+01	4.769965e+02
2.280000e-06	2.838199e-06	7.128933e-09	2.027576e+01	4.667841e+02
2.290000e-06	2.694773e-06	6.965432e-09	1.925114e+01	4.562992e+02
2.300000e-06	2.550391e-06	6.802854e-09	1.821970e+01	4.455318e+02
2.310000e-06	2.405100e-06	6.638335e-09	1.718175e+01	4.344629e+02
2.320000e-06	2.258990e-06	6.467068e-09	1.613796e+01	4.230651e+02
2.330000e-06	2.112133e-06	6.289694e-09	1.508883e+01	4.113047e+02
2.340000e-06	1.964455e-06	6.105077e-09	1.403383e+01	3.991445e+02
2.350000e-06	1.815991e-06	5.908303e-09	1.297323e+01	3.865482e+02
2.360000e-06	1.666923e-06	5.702818e-09	1.190830e+01	3.734839e+02
2.370000e-06	1.517368e-06	5.493212e-09	1.083990e+01	3.599270e+02
2.380000e-06	1.367378e-06	5.283186e-09	9.768387e+00	3.458628e+02
2.390000e-06	1.216903e-06	5.066722e-09	8.693414e+00	3.312859e+02
2.400000e-06	1.066019e-06	4.839351e-09	7.615514e+00	3.161982e+02
2.410000e-06	9.148527e-07	4.601914e-09	6.535601e+00	3.006052e+02
2.420000e-06	7.634419e-07	4.356333e-09	5.453939e+00	2.845104e+02
2.430000e-06	6.117972e-07	4.106175e-09	4.370608e+00	2.679089e+02
2.440000e-06	4.599571e-07	3.847588e-09	3.285880e+00	2.507815e+02
2.450000e-06	3.079985e-07	3.577551e-09	2.200306e+00	2.330895e+02
2.460000e-06	1.559146e-07	3.295261e-09	1.113836e+00	2.147720e+02
2.470000e-06	3.723884e-09	2.998972e-09	2.660299e-02	1.957464e+02
2.480000e-06	-1.484807e-07	2.690619e-09	-1.060729e+00	1.759121e+02
2.490000e-06	-3.006702e-07	2.371573e-09	-2.147953e+00	1.551577e+02
2.500000e-06	-4.527962e-07	2.038431e-09	-3.234723e+00	1.333715e+02
2.510000e-06	-6.048089e-07	1.688312e-09	-4.320684e+00	1.104540e+02
2.520000e-06	-7.566438e-07	1.322044e-09	-5.405375e+00	8.633213e+01
2.530000e-06	-9.082092e-07	9.425297e-10	-6.488140e+00	6.097176e+01
2.540000e-06	-1.059491e-06	5.500487e-10	-7.568880e+00	3.438942e+01
2.550000e-06	-1.210477e-06	1.359897e-10	-8.647505e+00	6.659806e+00
2.560000e-06	-1.361038e-06	-3.021561e-10	-9.723095e+00	-2.208096e+01
2.570000e-06	-1.511051e-06	-7.566839e-10	-1.079477e+01	-5.163737e+01
2.580000e-06	-1.660600e-06	-1.220900e-09	-1.186314e+01	-8.176189e+01
2.590000e-06	-1.809638e-06	-1.690612e-09	-1.292784e+01	-1.121672e+02
2.600000e-06	-1.957969e-06	-2.161484e-09	-1.398750e+01	-1.425419e+02
2.610000e-06	-2.105409e-06	-2.626920e-09	-1.504079e+01	-1.725696e+02
2.620000e-06	-2.251937e-06	-3.080579e-09	-1.608758e+01	-2.019470e+02
2.630000e-06	-2.397676e-06	-3.515830e-09	-1.712872e+01	-2.304023e+02
2.640000e-06	-2.542507e-06	-3.929044e-09	-1.816337e+01	-2.577099e+02
2.650000e-06	-2.686291e-06	-4.319036e-09	-1.919055e+01	-2.837015e+02
2.660000e-06	-2.829031e-06	-4.689483e-09	-2.021026e+01	-3.082713e+02
2.670000e-06	-2.970796e-06	-5.042068e-09	-2.122302e+01	-3.313762e+02
2.680000e-06	-3.111454e-06	-5.373501e-09	-2.222787e+01	-3.530317e+02
2.690000e-06	-3.250769e-06	-5.682691e-09	-2.322311e+01	-3.733018e+02
2.700000e-06	-3.388786e-06	-5.973408e-09	-2.420909e+01	-3.922873e+02
2.710000e-06	-3.525478e-06	-6.248839e-09	-2.518560e+01	-4.101116e+02
2.720000e-06	-3.660816e-06	-6.510804e-09	-2.615244e+01	-4.269068e+02
2.730000e-06	-3.794944e-06	-6.758844e-09	-2.711064e+01	-4.428012e+02
2.740000e-06	-3.927749e-06	-6.992748e-09	-2.805938e+01	-4.579091e+02
2.750000e-06	-4.059080e-06	-7.215197e-09	-2.899760e+01	-4.723241e+02
2.760000e-06	-4.189039e-06	-7.428236e-09	-2.992600e+01	-4.861160e+02
2.770000e-06	-4.317549e-06	-7.633133e-09	-3.084406e+01	-4.993310e+02
2.780000e-06	-4.444538e-06	-7.828716e-09	-3.175126e+01	-5.119949e+02
2.790000e-06	-4.570113e-06	-8.010855e-09	-3.264835e+01	-5.241185e+02
2.800000e-06	-4.693968e-06	-8.182326e-09	-3.353316e+01	-5.357035e+02
2.810000e-06	-4.816065e-06	-8.348429e-09	-3.440541e+01	-5.467492e+02
2.820000e-06	-4.936507e-06	-8.507458e-09	-3.526583e+01	-5.572575e+02
2.830000e-06	-5.055113e-06	-8.658994e-09	-3.611314e+01	-5.672367e+02
2.840000e-06	-5.171686e-06	-8.802164e-09	-3.694592e+01	-5.767038e+02
2.850000e-06	-5.286095e-06	-8.937497e-09	-3.776325e+01	-5.856842e+02
2.860000e-06	-5.398454e-06	-9.067481e-09	-3.856592e+01	-5.942099e+02
2.870000e-06	-5.508788e-06	-9.192394e-09	-3.935414e+01	-6.023170e+02
2.880000e-06	-5.617097e-06	-9.311313e-09	-4.012789e+01	-6.100422e+02
2.890000e-06	-5.723485e-06	-9.426126e-09	-4.088791e+01	-6.174194e+02
2.900000e-06	-5.827819e-06	-9.536855e-09	-4.163326e+01	-6.244776e+02
2.910000e-06	-5.929966e-06	-9.640957e-09	-4.236299e+01	-6.312385e+02
2.920000e-06	-6.029921e-06	-9.738008e-09	-4.307705e+01	-6.377171e+02
2.930000e-06	-6.127710e-06	-9.829635e-09	-4.377564e+01	-6.439221e+02
2.940000e-06	-6.223336e-06	-9.918823e-09	-4.445878e+01	-6.498578e+02
