# Temperatura_=_44.55
# Concentracion g/m^3_=_10000.0
# C_Vs_to_Am_M_A/Vsm_=_65563218390.804596
# pendiente_HvsI_1/m_=_3716.3
# ordenada_HvsI_A/m_=_1297.0
# frecuencia_Hz_=_302622.3615132907

Tiempo_(s)	Campo_(V.s)	Magnetizacion_(V.s)	Campo_(kA/m)	Magnetizacion_(A/m)
0.000000e+00	-7.897028e-06	-1.039776e-08	-5.681583e+01	-6.810320e+02
1.000000e-08	-7.892600e-06	-1.039667e-08	-5.678397e+01	-6.806916e+02
2.000000e-08	-7.885622e-06	-1.039034e-08	-5.673378e+01	-6.802403e+02
3.000000e-08	-7.875939e-06	-1.038332e-08	-5.666411e+01	-6.796906e+02
4.000000e-08	-7.863392e-06	-1.037550e-08	-5.657383e+01	-6.790562e+02
5.000000e-08	-7.847836e-06	-1.036593e-08	-5.646192e+01	-6.783507e+02
6.000000e-08	-7.829636e-06	-1.035437e-08	-5.633098e+01	-6.775863e+02
7.000000e-08	-7.809270e-06	-1.034082e-08	-5.618445e+01	-6.767724e+02
8.000000e-08	-7.786379e-06	-1.033818e-08	-5.601976e+01	-6.759151e+02
9.000000e-08	-7.760376e-06	-1.037042e-08	-5.583268e+01	-6.750167e+02
1.000000e-07	-7.731222e-06	-1.035343e-08	-5.562293e+01	-6.740756e+02
1.100000e-07	-7.699237e-06	-1.029994e-08	-5.539281e+01	-6.730874e+02
1.200000e-07	-7.664539e-06	-1.026996e-08	-5.514317e+01	-6.720448e+02
1.300000e-07	-7.627252e-06	-1.024558e-08	-5.487491e+01	-6.709390e+02
1.400000e-07	-7.587755e-06	-1.020324e-08	-5.459074e+01	-6.697600e+02
1.500000e-07	-7.546137e-06	-1.014685e-08	-5.429132e+01	-6.684977e+02
1.600000e-07	-7.502050e-06	-1.018207e-08	-5.397413e+01	-6.671422e+02
1.700000e-07	-7.455234e-06	-1.015847e-08	-5.363731e+01	-6.656838e+02
1.800000e-07	-7.405615e-06	-1.007993e-08	-5.328032e+01	-6.641139e+02
1.900000e-07	-7.353021e-06	-1.012427e-08	-5.290193e+01	-6.624244e+02
2.000000e-07	-7.297544e-06	-1.007292e-08	-5.250280e+01	-6.606082e+02
2.100000e-07	-7.239359e-06	-1.001489e-08	-5.208418e+01	-6.586593e+02
2.200000e-07	-7.178591e-06	-1.000921e-08	-5.164698e+01	-6.565728e+02
2.300000e-07	-7.115288e-06	-9.967509e-09	-5.119154e+01	-6.543452e+02
2.400000e-07	-7.049189e-06	-9.935138e-09	-5.071599e+01	-6.519749e+02
2.500000e-07	-6.980374e-06	-9.874532e-09	-5.022089e+01	-6.494622e+02
2.600000e-07	-6.908992e-06	-9.862266e-09	-4.970733e+01	-6.468096e+02
2.700000e-07	-6.834843e-06	-9.814398e-09	-4.917385e+01	-6.440216e+02
2.800000e-07	-6.757907e-06	-9.756705e-09	-4.862033e+01	-6.411042e+02
2.900000e-07	-6.678220e-06	-9.716674e-09	-4.804702e+01	-6.380644e+02
3.000000e-07	-6.595967e-06	-9.671118e-09	-4.745524e+01	-6.349092e+02
3.100000e-07	-6.511512e-06	-9.635380e-09	-4.684762e+01	-6.316449e+02
3.200000e-07	-6.424781e-06	-9.566802e-09	-4.622363e+01	-6.282756e+02
3.300000e-07	-6.335740e-06	-9.525013e-09	-4.558301e+01	-6.248023e+02
3.400000e-07	-6.244451e-06	-9.476125e-09	-4.492623e+01	-6.212230e+02
3.500000e-07	-6.150949e-06	-9.418103e-09	-4.425352e+01	-6.175317e+02
3.600000e-07	-6.055214e-06	-9.357073e-09	-4.356475e+01	-6.137194e+02
3.700000e-07	-5.957197e-06	-9.292909e-09	-4.285956e+01	-6.097744e+02
3.800000e-07	-5.857038e-06	-9.232936e-09	-4.213895e+01	-6.056840e+02
3.900000e-07	-5.754801e-06	-9.161681e-09	-4.140340e+01	-6.014356e+02
4.000000e-07	-5.650503e-06	-9.098618e-09	-4.065302e+01	-5.970182e+02
4.100000e-07	-5.544188e-06	-9.027773e-09	-3.988813e+01	-5.924239e+02
4.200000e-07	-5.435920e-06	-8.959920e-09	-3.910918e+01	-5.876486e+02
4.300000e-07	-5.325822e-06	-8.884381e-09	-3.831708e+01	-5.826918e+02
4.400000e-07	-5.213827e-06	-8.805747e-09	-3.751132e+01	-5.775572e+02
4.500000e-07	-5.099729e-06	-8.722783e-09	-3.669043e+01	-5.722507e+02
4.600000e-07	-4.983534e-06	-8.640631e-09	-3.585446e+01	-5.667793e+02
4.700000e-07	-4.865430e-06	-8.558041e-09	-3.500475e+01	-5.611495e+02
4.800000e-07	-4.745559e-06	-8.468481e-09	-3.414233e+01	-5.553652e+02
4.900000e-07	-4.623978e-06	-8.378515e-09	-3.326760e+01	-5.494261e+02
5.000000e-07	-4.500716e-06	-8.284448e-09	-3.238078e+01	-5.433273e+02
5.100000e-07	-4.375843e-06	-8.187700e-09	-3.148237e+01	-5.370584e+02
5.200000e-07	-4.249402e-06	-8.084695e-09	-3.057268e+01	-5.306044e+02
5.300000e-07	-4.121451e-06	-7.982114e-09	-2.965213e+01	-5.239469e+02
5.400000e-07	-3.992047e-06	-7.875345e-09	-2.872112e+01	-5.170659e+02
5.500000e-07	-3.861028e-06	-7.768478e-09	-2.777849e+01	-5.099419e+02
5.600000e-07	-3.728450e-06	-7.656600e-09	-2.682465e+01	-5.025580e+02
5.700000e-07	-3.594495e-06	-7.536942e-09	-2.586090e+01	-4.949014e+02
5.800000e-07	-3.459246e-06	-7.411667e-09	-2.488783e+01	-4.869643e+02
5.900000e-07	-3.322710e-06	-7.284523e-09	-2.390552e+01	-4.787441e+02
6.000000e-07	-3.184831e-06	-7.158116e-09	-2.291354e+01	-4.702424e+02
6.100000e-07	-3.045570e-06	-7.028311e-09	-2.191161e+01	-4.614631e+02
6.200000e-07	-2.904954e-06	-6.894439e-09	-2.089994e+01	-4.524102e+02
6.300000e-07	-2.763214e-06	-6.751096e-09	-1.988017e+01	-4.430852e+02
6.400000e-07	-2.620378e-06	-6.602785e-09	-1.885253e+01	-4.334846e+02
6.500000e-07	-2.476498e-06	-6.448945e-09	-1.781737e+01	-4.235984e+02
6.600000e-07	-2.331756e-06	-6.290196e-09	-1.677602e+01	-4.134091e+02
6.700000e-07	-2.186134e-06	-6.127646e-09	-1.572832e+01	-4.028924e+02
6.800000e-07	-2.039708e-06	-5.959355e-09	-1.467485e+01	-3.920183e+02
6.900000e-07	-1.892635e-06	-5.786836e-09	-1.361673e+01	-3.807540e+02
7.000000e-07	-1.745006e-06	-5.609927e-09	-1.255459e+01	-3.690671e+02
7.100000e-07	-1.596923e-06	-5.428543e-09	-1.148920e+01	-3.569285e+02
7.200000e-07	-1.448395e-06	-5.239195e-09	-1.042060e+01	-3.443157e+02
7.300000e-07	-1.299412e-06	-5.041590e-09	-9.348728e+00	-3.312141e+02
7.400000e-07	-1.150021e-06	-4.833364e-09	-8.273923e+00	-3.176175e+02
7.500000e-07	-1.000261e-06	-4.618811e-09	-7.196464e+00	-3.035269e+02
7.600000e-07	-8.501214e-07	-4.398757e-09	-6.116270e+00	-2.889469e+02
7.700000e-07	-6.996459e-07	-4.171445e-09	-5.033661e+00	-2.738817e+02
7.800000e-07	-5.489497e-07	-3.935857e-09	-3.949465e+00	-2.583296e+02
7.900000e-07	-3.980647e-07	-3.691561e-09	-2.863910e+00	-2.422776e+02
8.000000e-07	-2.469824e-07	-3.440136e-09	-1.776936e+00	-2.256969e+02
8.100000e-07	-9.579316e-08	-3.177182e-09	-6.891920e-01	-2.085401e+02
8.200000e-07	5.544964e-08	-2.903418e-09	3.989371e-01	-1.907404e+02
8.300000e-07	2.067396e-07	-2.617808e-09	1.487406e+00	-1.722148e+02
8.400000e-07	3.579629e-07	-2.317516e-09	2.575394e+00	-1.528688e+02
8.500000e-07	5.090336e-07	-2.001216e-09	3.662285e+00	-1.326052e+02
8.600000e-07	6.599973e-07	-1.675340e-09	4.748406e+00	-1.113348e+02
8.700000e-07	8.108565e-07	-1.339515e-09	5.833776e+00	-8.898744e+01
8.800000e-07	9.614428e-07	-9.845962e-10	6.917182e+00	-6.552445e+01
8.900000e-07	1.111656e-06	-6.122077e-10	7.997899e+00	-4.094856e+01
9.000000e-07	1.261426e-06	-2.260657e-10	9.075433e+00	-1.531184e+01
9.100000e-07	1.410719e-06	1.738474e-10	1.014954e+01	1.128024e+01
9.200000e-07	1.559600e-06	5.918696e-10	1.122067e+01	3.866901e+01
9.300000e-07	1.707988e-06	1.023475e-09	1.228827e+01	6.664748e+01
9.400000e-07	1.855730e-06	1.459929e-09	1.335121e+01	9.496959e+01
9.500000e-07	2.002792e-06	1.896272e-09	1.440926e+01	1.233631e+02
9.600000e-07	2.149178e-06	2.328781e-09	1.546244e+01	1.515450e+02
9.700000e-07	2.294721e-06	2.752566e-09	1.650957e+01	1.792379e+02
9.800000e-07	2.439332e-06	3.162572e-09	1.754998e+01	2.061865e+02
9.900000e-07	2.583042e-06	3.555764e-09	1.858391e+01	2.321712e+02
1.000000e-06	2.725829e-06	3.928595e-09	1.961120e+01	2.570194e+02
1.010000e-06	2.867555e-06	4.282310e-09	2.063086e+01	2.806118e+02
1.020000e-06	3.008074e-06	4.615689e-09	2.164184e+01	3.028851e+02
1.030000e-06	3.147327e-06	4.932096e-09	2.264371e+01	3.238288e+02
1.040000e-06	3.285330e-06	5.230832e-09	2.363658e+01	3.434795e+02
1.050000e-06	3.422043e-06	5.511613e-09	2.462018e+01	3.619102e+02
1.060000e-06	3.557414e-06	5.778767e-09	2.559411e+01	3.792195e+02
1.070000e-06	3.691508e-06	6.030613e-09	2.655887e+01	3.955188e+02
1.080000e-06	3.824344e-06	6.267540e-09	2.751457e+01	4.109207e+02
1.090000e-06	3.955777e-06	6.490641e-09	2.846017e+01	4.255295e+02
1.100000e-06	4.085748e-06	6.701028e-09	2.939526e+01	4.394338e+02
1.110000e-06	4.214280e-06	6.901157e-09	3.031999e+01	4.527024e+02
1.120000e-06	4.341280e-06	7.092306e-09	3.123370e+01	4.653836e+02
1.130000e-06	4.466819e-06	7.276561e-09	3.213690e+01	4.775064e+02
1.140000e-06	4.590910e-06	7.454828e-09	3.302969e+01	4.890853e+02
1.150000e-06	4.713416e-06	7.622247e-09	3.391107e+01	5.001249e+02
1.160000e-06	4.834254e-06	7.778751e-09	3.478045e+01	5.106257e+02
1.170000e-06	4.953326e-06	7.926348e-09	3.563712e+01	5.205898e+02
1.180000e-06	5.070526e-06	8.066923e-09	3.648033e+01	5.300242e+02
1.190000e-06	5.185792e-06	8.202209e-09	3.730962e+01	5.389442e+02
1.200000e-06	5.299034e-06	8.330422e-09	3.812434e+01	5.473734e+02
1.210000e-06	5.410259e-06	8.453386e-09	3.892457e+01	5.553432e+02
1.220000e-06	5.519645e-06	8.573931e-09	3.971155e+01	5.628905e+02
1.230000e-06	5.627123e-06	8.690499e-09	4.048481e+01	5.700548e+02
1.240000e-06	5.732565e-06	8.798583e-09	4.124343e+01	5.768746e+02
1.250000e-06	5.835860e-06	8.895813e-09	4.198659e+01	5.833845e+02
1.260000e-06	5.936951e-06	8.986138e-09	4.271389e+01	5.896132e+02
1.270000e-06	6.035898e-06	9.072878e-09	4.342578e+01	5.955819e+02
1.280000e-06	6.132589e-06	9.156001e-09	4.412143e+01	6.013045e+02
1.290000e-06	6.226983e-06	9.235293e-09	4.480055e+01	6.067887e+02
1.300000e-06	6.319151e-06	9.312050e-09	4.546366e+01	6.120373e+02
1.310000e-06	6.409084e-06	9.387481e-09	4.611070e+01	6.170508e+02
1.320000e-06	6.496680e-06	9.460784e-09	4.674091e+01	6.218294e+02
1.330000e-06	6.581973e-06	9.531677e-09	4.735456e+01	6.263750e+02
1.340000e-06	6.665011e-06	9.600462e-09	4.795198e+01	6.306923e+02
1.350000e-06	6.745651e-06	9.664552e-09	4.853215e+01	6.347893e+02
1.360000e-06	6.823809e-06	9.723129e-09	4.909447e+01	6.386768e+02
1.370000e-06	6.899390e-06	9.779718e-09	4.963824e+01	6.423674e+02
1.380000e-06	6.972288e-06	9.834018e-09	5.016272e+01	6.458741e+02
1.390000e-06	7.042726e-06	9.883321e-09	5.066949e+01	6.492084e+02
1.400000e-06	7.110785e-06	9.929298e-09	5.115915e+01	6.523791e+02
1.410000e-06	7.176205e-06	9.975560e-09	5.162981e+01	6.553912e+02
1.420000e-06	7.239026e-06	1.002004e-08	5.208179e+01	6.582457e+02
1.430000e-06	7.299440e-06	1.005957e-08	5.251644e+01	6.609398e+02
1.440000e-06	7.357349e-06	1.009613e-08	5.293307e+01	6.634683e+02
1.450000e-06	7.412621e-06	1.013082e-08	5.333073e+01	6.658247e+02
1.460000e-06	7.465058e-06	1.016246e-08	5.370799e+01	6.680032e+02
1.470000e-06	7.514420e-06	1.019055e-08	5.406313e+01	6.700004e+02
1.480000e-06	7.560909e-06	1.021746e-08	5.439760e+01	6.718164e+02
1.490000e-06	7.604772e-06	1.024215e-08	5.471317e+01	6.734559e+02
1.500000e-06	7.645873e-06	1.026465e-08	5.500888e+01	6.749278e+02
1.510000e-06	7.684186e-06	1.028706e-08	5.528453e+01	6.762450e+02
1.520000e-06	7.719921e-06	1.030656e-08	5.554162e+01	6.774229e+02
1.530000e-06	7.752965e-06	1.032417e-08	5.577936e+01	6.784778e+02
1.540000e-06	7.783226e-06	1.034057e-08	5.599708e+01	6.794247e+02
1.550000e-06	7.810758e-06	1.035529e-08	5.619516e+01	6.802762e+02
1.560000e-06	7.835334e-06	1.036779e-08	5.637197e+01	6.810407e+02
1.570000e-06	7.857065e-06	1.037702e-08	5.652832e+01	6.817219e+02
1.580000e-06	7.876187e-06	1.038590e-08	5.666589e+01	6.823186e+02
1.590000e-06	7.892519e-06	1.039468e-08	5.678339e+01	6.828255e+02
1.600000e-06	7.905788e-06	1.040101e-08	5.687886e+01	6.832343e+02
1.610000e-06	7.915790e-06	1.040567e-08	5.695082e+01	6.835354e+02
1.620000e-06	7.922743e-06	1.040978e-08	5.700085e+01	6.837197e+02
1.630000e-06	7.926980e-06	1.041297e-08	5.703133e+01	6.837801e+02
1.640000e-06	7.928394e-06	1.041454e-08	5.704150e+01	6.837129e+02
1.650000e-06	7.927081e-06	1.041333e-08	5.703205e+01	6.835188e+02
1.660000e-06	7.923220e-06	1.040567e-08	5.700427e+01	6.832025e+02
1.670000e-06	7.916648e-06	1.039881e-08	5.695699e+01	6.827732e+02
1.680000e-06	7.907450e-06	1.039300e-08	5.689081e+01	6.822425e+02
1.690000e-06	7.895573e-06	1.038690e-08	5.680537e+01	6.816242e+02
1.700000e-06	7.880808e-06	1.038060e-08	5.669914e+01	6.809319e+02
1.710000e-06	7.863518e-06	1.037084e-08	5.657475e+01	6.801784e+02
1.720000e-06	7.844030e-06	1.035231e-08	5.643454e+01	6.793736e+02
1.730000e-06	7.822027e-06	1.029436e-08	5.627624e+01	6.785244e+02
1.740000e-06	7.796883e-06	1.023905e-08	5.609533e+01	6.776339e+02
1.750000e-06	7.768154e-06	1.025875e-08	5.588864e+01	6.767014e+02
1.760000e-06	7.736107e-06	1.026698e-08	5.565808e+01	6.757229e+02
1.770000e-06	7.701513e-06	1.025335e-08	5.540918e+01	6.746918e+02
1.780000e-06	7.664626e-06	1.026685e-08	5.514380e+01	6.735994e+02
1.790000e-06	7.625467e-06	1.030529e-08	5.486206e+01	6.724361e+02
1.800000e-06	7.584295e-06	1.023140e-08	5.456585e+01	6.711916e+02
1.810000e-06	7.540749e-06	1.020926e-08	5.425255e+01	6.698560e+02
1.820000e-06	7.494560e-06	1.024323e-08	5.392025e+01	6.684195e+02
1.830000e-06	7.445758e-06	1.015830e-08	5.356913e+01	6.668733e+02
1.840000e-06	7.393950e-06	1.018005e-08	5.319640e+01	6.652092e+02
1.850000e-06	7.339194e-06	1.012696e-08	5.280245e+01	6.634198e+02
1.860000e-06	7.281701e-06	1.009748e-08	5.238881e+01	6.614990e+02
1.870000e-06	7.221599e-06	1.008040e-08	5.195640e+01	6.594414e+02
1.880000e-06	7.158887e-06	1.000777e-08	5.150522e+01	6.572433e+02
1.890000e-06	7.093400e-06	1.003829e-08	5.103406e+01	6.549027e+02
1.900000e-06	7.025230e-06	9.944189e-09	5.054361e+01	6.524196e+02
1.910000e-06	6.954272e-06	9.908456e-09	5.003310e+01	6.497958e+02
1.920000e-06	6.880643e-06	9.886468e-09	4.950337e+01	6.470354e+02
1.930000e-06	6.804359e-06	9.830805e-09	4.895453e+01	6.441443e+02
1.940000e-06	6.725266e-06	9.808004e-09	4.838549e+01	6.411292e+02
1.950000e-06	6.643690e-06	9.725813e-09	4.779859e+01	6.379973e+02
1.960000e-06	6.559715e-06	9.707915e-09	4.719443e+01	6.347551e+02
1.970000e-06	6.473279e-06	9.631555e-09	4.657256e+01	6.314071e+02
1.980000e-06	6.384454e-06	9.576898e-09	4.593349e+01	6.279553e+02
1.990000e-06	6.293465e-06	9.537458e-09	4.527886e+01	6.243982e+02
2.000000e-06	6.200293e-06	9.470614e-09	4.460853e+01	6.207307e+02
2.010000e-06	6.104746e-06	9.421215e-09	4.392111e+01	6.169443e+02
2.020000e-06	6.007018e-06	9.350489e-09	4.321800e+01	6.130279e+02
2.030000e-06	5.907215e-06	9.305330e-09	4.249996e+01	6.089689e+02
2.040000e-06	5.805253e-06	9.229482e-09	4.176638e+01	6.047544e+02
2.050000e-06	5.701141e-06	9.162847e-09	4.101734e+01	6.003732e+02
2.060000e-06	5.595083e-06	9.089549e-09	4.025430e+01	5.958164e+02
2.070000e-06	5.487172e-06	9.014773e-09	3.947792e+01	5.910791e+02
2.080000e-06	5.377355e-06	8.938179e-09	3.868784e+01	5.861602e+02
2.090000e-06	5.265514e-06	8.865014e-09	3.788318e+01	5.810624e+02
2.100000e-06	5.151708e-06	8.794479e-09	3.706440e+01	5.757912e+02
2.110000e-06	5.036011e-06	8.708570e-09	3.623201e+01	5.703537e+02
2.120000e-06	4.918332e-06	8.621040e-09	3.538535e+01	5.647565e+02
2.130000e-06	4.798754e-06	8.528954e-09	3.452504e+01	5.590042e+02
2.140000e-06	4.677350e-06	8.445277e-09	3.365159e+01	5.530977e+02
2.150000e-06	4.554211e-06	8.352452e-09	3.276566e+01	5.470330e+02
2.160000e-06	4.429439e-06	8.261804e-09	3.186797e+01	5.408007e+02
2.170000e-06	4.303072e-06	8.164535e-09	3.095881e+01	5.343870e+02
2.180000e-06	4.175040e-06	8.065705e-09	3.003768e+01	5.277738e+02
2.190000e-06	4.045486e-06	7.958736e-09	2.910559e+01	5.209415e+02
2.200000e-06	3.914491e-06	7.848558e-09	2.816314e+01	5.138703e+02
2.210000e-06	3.782102e-06	7.734801e-09	2.721065e+01	5.065424e+02
2.220000e-06	3.648291e-06	7.619696e-09	2.624794e+01	4.989441e+02
2.230000e-06	3.513032e-06	7.504283e-09	2.527480e+01	4.910666e+02
2.240000e-06	3.376466e-06	7.383433e-09	2.429227e+01	4.829062e+02
2.250000e-06	3.238609e-06	7.258153e-09	2.330044e+01	4.744637e+02
2.260000e-06	3.099548e-06	7.126115e-09	2.229996e+01	4.657426e+02
2.270000e-06	2.959336e-06	6.990070e-09	2.129119e+01	4.567472e+02
2.280000e-06	2.817926e-06	6.846287e-09	2.027381e+01	4.474797e+02
2.290000e-06	2.675380e-06	6.700480e-09	1.924825e+01	4.379379e+02
2.300000e-06	2.531849e-06	6.550018e-09	1.821560e+01	4.281132e+02
2.310000e-06	2.387389e-06	6.397947e-09	1.717627e+01	4.179899e+02
2.320000e-06	2.242106e-06	6.239938e-09	1.613102e+01	4.075448e+02
2.330000e-06	2.096111e-06	6.074125e-09	1.508065e+01	3.967491e+02
2.340000e-06	1.949398e-06	5.901835e-09	1.402511e+01	3.855703e+02
2.350000e-06	1.802005e-06	5.722875e-09	1.296468e+01	3.739757e+02
2.360000e-06	1.654088e-06	5.537923e-09	1.190048e+01	3.619352e+02
2.370000e-06	1.505782e-06	5.344383e-09	1.083348e+01	3.494246e+02
2.380000e-06	1.357023e-06	5.146782e-09	9.763216e+00	3.364276e+02
2.390000e-06	1.207681e-06	4.943939e-09	8.688760e+00	3.229364e+02
2.400000e-06	1.057832e-06	4.731556e-09	7.610660e+00	3.089504e+02
2.410000e-06	9.076253e-07	4.510261e-09	6.529987e+00	2.944739e+02
2.420000e-06	7.571836e-07	4.283755e-09	5.447621e+00	2.795117e+02
2.430000e-06	6.065741e-07	4.051905e-09	4.364049e+00	2.640637e+02
2.440000e-06	4.557837e-07	3.809653e-09	3.279174e+00	2.481198e+02
2.450000e-06	3.048390e-07	3.556456e-09	2.193190e+00	2.316548e+02
2.460000e-06	1.537799e-07	3.293416e-09	1.106383e+00	2.146255e+02
2.470000e-06	2.638774e-09	3.020218e-09	1.898489e-02	1.969692e+02
2.480000e-06	-1.485142e-07	2.737774e-09	-1.068498e+00	1.786059e+02
2.490000e-06	-2.996321e-07	2.444075e-09	-2.155728e+00	1.594430e+02
2.500000e-06	-4.506812e-07	2.136730e-09	-3.242464e+00	1.393832e+02
2.510000e-06	-6.015856e-07	1.815682e-09	-4.328159e+00	1.183343e+02
2.520000e-06	-7.523104e-07	1.479410e-09	-5.412561e+00	9.622138e+01
2.530000e-06	-9.028466e-07	1.129268e-09	-6.495606e+00	7.299790e+01
2.540000e-06	-1.053158e-06	7.665591e-10	-7.577033e+00	4.865699e+01
2.550000e-06	-1.203121e-06	3.875030e-10	-8.655953e+00	2.323967e+01
2.560000e-06	-1.352598e-06	-1.070159e-11	-9.731384e+00	-3.160167e+00
2.570000e-06	-1.501543e-06	-4.270700e-10	-1.080298e+01	-3.039499e+01
2.580000e-06	-1.649901e-06	-8.564335e-10	-1.187035e+01	-5.826754e+01
2.590000e-06	-1.797666e-06	-1.292921e-09	-1.293346e+01	-8.653915e+01
2.600000e-06	-1.944863e-06	-1.732190e-09	-1.399248e+01	-1.149419e+02
2.610000e-06	-2.091352e-06	-2.170885e-09	-1.504641e+01	-1.431938e+02
2.620000e-06	-2.237043e-06	-2.601847e-09	-1.609459e+01	-1.710149e+02
2.630000e-06	-2.381890e-06	-3.016374e-09	-1.713671e+01	-1.981438e+02
2.640000e-06	-2.525718e-06	-3.413522e-09	-1.817149e+01	-2.243522e+02
2.650000e-06	-2.668541e-06	-3.794318e-09	-1.919905e+01	-2.494567e+02
2.660000e-06	-2.810375e-06	-4.157187e-09	-2.021948e+01	-2.733264e+02
2.670000e-06	-2.951045e-06	-4.499003e-09	-2.123154e+01	-2.958858e+02
2.680000e-06	-3.090475e-06	-4.819920e-09	-2.223468e+01	-3.171137e+02
2.690000e-06	-3.228718e-06	-5.121837e-09	-2.322929e+01	-3.370373e+02
2.700000e-06	-3.365783e-06	-5.406785e-09	-2.421541e+01	-3.557227e+02
2.710000e-06	-3.501519e-06	-5.677333e-09	-2.519197e+01	-3.732641e+02
2.720000e-06	-3.635959e-06	-5.933549e-09	-2.615921e+01	-3.897711e+02
2.730000e-06	-3.769152e-06	-6.176011e-09	-2.711748e+01	-4.053569e+02
2.740000e-06	-3.901013e-06	-6.405336e-09	-2.806616e+01	-4.201285e+02
2.750000e-06	-4.031473e-06	-6.624040e-09	-2.900477e+01	-4.341782e+02
2.760000e-06	-4.160539e-06	-6.833514e-09	-2.993335e+01	-4.475792e+02
2.770000e-06	-4.288154e-06	-7.031623e-09	-3.085148e+01	-4.603840e+02
2.780000e-06	-4.414299e-06	-7.217732e-09	-3.175905e+01	-4.726258e+02
2.790000e-06	-4.538995e-06	-7.391499e-09	-3.265618e+01	-4.843215e+02
2.800000e-06	-4.662052e-06	-7.556173e-09	-3.354152e+01	-4.954774e+02
2.810000e-06	-4.783376e-06	-7.714116e-09	-3.441440e+01	-5.060945e+02
2.820000e-06	-4.902922e-06	-7.866000e-09	-3.527449e+01	-5.161741e+02
2.830000e-06	-5.020579e-06	-8.012448e-09	-3.612098e+01	-5.257219e+02
2.840000e-06	-5.136204e-06	-8.152080e-09	-3.695286e+01	-5.347513e+02
2.850000e-06	-5.249682e-06	-8.284239e-09	-3.776928e+01	-5.432841e+02
2.860000e-06	-5.361119e-06	-8.410505e-09	-3.857102e+01	-5.513503e+02
2.870000e-06	-5.470569e-06	-8.530295e-09	-3.935847e+01	-5.589858e+02
2.880000e-06	-5.578100e-06	-8.640999e-09	-4.013211e+01	-5.662298e+02
2.890000e-06	-5.683778e-06	-8.745001e-09	-4.089242e+01	-5.731211e+02
2.900000e-06	-5.787400e-06	-8.844601e-09	-4.163794e+01	-5.796957e+02
2.910000e-06	-5.888823e-06	-8.941493e-09	-4.236763e+01	-5.859835e+02
2.920000e-06	-5.988058e-06	-9.034800e-09	-4.308159e+01	-5.920073e+02
2.930000e-06	-6.085126e-06	-9.122558e-09	-4.377995e+01	-5.977828e+02
2.940000e-06	-6.180013e-06	-9.207133e-09	-4.446263e+01	-6.033186e+02
