# Temperatura_=_35.8
# Concentracion g/m^3_=_10000.0
# C_Vs_to_Am_M_A/Vsm_=_65563218390.804596
# pendiente_HvsI_1/m_=_3716.3
# ordenada_HvsI_A/m_=_1297.0
# frecuencia_Hz_=_302619.34787691914

Tiempo_(s)	Campo_(V.s)	Magnetizacion_(V.s)	Campo_(kA/m)	Magnetizacion_(A/m)
0.000000e+00	-7.919406e-06	-1.016328e-08	-5.683105e+01	-6.665120e+02
1.000000e-08	-7.917031e-06	-1.016788e-08	-5.681401e+01	-6.662706e+02
2.000000e-08	-7.911975e-06	-1.016481e-08	-5.677772e+01	-6.659169e+02
3.000000e-08	-7.904421e-06	-1.015651e-08	-5.672352e+01	-6.654615e+02
4.000000e-08	-7.894143e-06	-1.014747e-08	-5.664976e+01	-6.649176e+02
5.000000e-08	-7.880917e-06	-1.013684e-08	-5.655485e+01	-6.642993e+02
6.000000e-08	-7.864744e-06	-1.012513e-08	-5.643878e+01	-6.636202e+02
7.000000e-08	-7.846059e-06	-1.011413e-08	-5.630470e+01	-6.628915e+02
8.000000e-08	-7.825154e-06	-1.010608e-08	-5.615468e+01	-6.621215e+02
9.000000e-08	-7.801527e-06	-1.014760e-08	-5.598513e+01	-6.613144e+02
1.000000e-07	-7.774688e-06	-1.015900e-08	-5.579253e+01	-6.604701e+02
1.100000e-07	-7.744782e-06	-1.009886e-08	-5.557792e+01	-6.595847e+02
1.200000e-07	-7.712083e-06	-1.005783e-08	-5.534326e+01	-6.586509e+02
1.300000e-07	-7.676693e-06	-1.003937e-08	-5.508930e+01	-6.576589e+02
1.400000e-07	-7.638885e-06	-1.000251e-08	-5.481798e+01	-6.565977e+02
1.500000e-07	-7.598934e-06	-9.942295e-09	-5.453129e+01	-6.554560e+02
1.600000e-07	-7.556727e-06	-9.961348e-09	-5.422840e+01	-6.542229e+02
1.700000e-07	-7.511890e-06	-9.987419e-09	-5.390665e+01	-6.528887e+02
1.800000e-07	-7.464334e-06	-9.902603e-09	-5.356537e+01	-6.514454e+02
1.900000e-07	-7.413975e-06	-9.908902e-09	-5.320399e+01	-6.498868e+02
2.000000e-07	-7.360637e-06	-9.895233e-09	-5.282123e+01	-6.482082e+02
2.100000e-07	-7.304501e-06	-9.808921e-09	-5.241838e+01	-6.464064e+02
2.200000e-07	-7.245718e-06	-9.798203e-09	-5.199655e+01	-6.444795e+02
2.300000e-07	-7.184310e-06	-9.787095e-09	-5.155587e+01	-6.424265e+02
2.400000e-07	-7.120280e-06	-9.766111e-09	-5.109638e+01	-6.402474e+02
2.500000e-07	-7.053507e-06	-9.697022e-09	-5.061721e+01	-6.379429e+02
2.600000e-07	-6.984045e-06	-9.674599e-09	-5.011873e+01	-6.355146e+02
2.700000e-07	-6.911912e-06	-9.654410e-09	-4.960110e+01	-6.329647e+02
2.800000e-07	-6.836991e-06	-9.596594e-09	-4.906345e+01	-6.302964e+02
2.900000e-07	-6.759257e-06	-9.558230e-09	-4.850562e+01	-6.275130e+02
3.000000e-07	-6.678783e-06	-9.522394e-09	-4.792812e+01	-6.246185e+02
3.100000e-07	-6.595923e-06	-9.488454e-09	-4.733351e+01	-6.216162e+02
3.200000e-07	-6.510894e-06	-9.419351e-09	-4.672332e+01	-6.185089e+02
3.300000e-07	-6.423539e-06	-9.366643e-09	-4.609644e+01	-6.152978e+02
3.400000e-07	-6.333801e-06	-9.327957e-09	-4.545247e+01	-6.119821e+02
3.500000e-07	-6.241783e-06	-9.271201e-09	-4.479213e+01	-6.085589e+02
3.600000e-07	-6.147572e-06	-9.211914e-09	-4.411606e+01	-6.050224e+02
3.700000e-07	-6.051094e-06	-9.163055e-09	-4.342372e+01	-6.013650e+02
3.800000e-07	-5.952337e-06	-9.117559e-09	-4.271502e+01	-5.975769e+02
3.900000e-07	-5.851424e-06	-9.046735e-09	-4.199085e+01	-5.936479e+02
4.000000e-07	-5.748436e-06	-8.979798e-09	-4.125179e+01	-5.895673e+02
4.100000e-07	-5.643405e-06	-8.916538e-09	-4.049807e+01	-5.853260e+02
4.200000e-07	-5.536392e-06	-8.844295e-09	-3.973012e+01	-5.809165e+02
4.300000e-07	-5.427474e-06	-8.774791e-09	-3.894851e+01	-5.763342e+02
4.400000e-07	-5.316697e-06	-8.715273e-09	-3.815355e+01	-5.715772e+02
4.500000e-07	-5.203919e-06	-8.648121e-09	-3.734424e+01	-5.666464e+02
4.600000e-07	-5.089015e-06	-8.563118e-09	-3.651967e+01	-5.615444e+02
4.700000e-07	-4.972157e-06	-8.475445e-09	-3.568107e+01	-5.562747e+02
4.800000e-07	-4.853518e-06	-8.390639e-09	-3.482970e+01	-5.508405e+02
4.900000e-07	-4.733043e-06	-8.305219e-09	-3.396515e+01	-5.452429e+02
5.000000e-07	-4.610836e-06	-8.218515e-09	-3.308817e+01	-5.394803e+02
5.100000e-07	-4.487001e-06	-8.130674e-09	-3.219951e+01	-5.335471e+02
5.200000e-07	-4.361482e-06	-8.035456e-09	-3.129877e+01	-5.274340e+02
5.300000e-07	-4.234382e-06	-7.938151e-09	-3.038667e+01	-5.211279e+02
5.400000e-07	-4.105745e-06	-7.838904e-09	-2.946355e+01	-5.146132e+02
5.500000e-07	-3.975584e-06	-7.735617e-09	-2.852949e+01	-5.078730e+02
5.600000e-07	-3.843872e-06	-7.626184e-09	-2.758430e+01	-5.008907e+02
5.700000e-07	-3.710711e-06	-7.513522e-09	-2.662872e+01	-4.936517e+02
5.800000e-07	-3.576217e-06	-7.396293e-09	-2.566356e+01	-4.861447e+02
5.900000e-07	-3.440324e-06	-7.273966e-09	-2.468837e+01	-4.783623e+02
6.000000e-07	-3.303029e-06	-7.150115e-09	-2.370312e+01	-4.703012e+02
6.100000e-07	-3.164467e-06	-7.026350e-09	-2.270877e+01	-4.619617e+02
6.200000e-07	-3.024607e-06	-6.897884e-09	-2.170511e+01	-4.533457e+02
6.300000e-07	-2.883369e-06	-6.763330e-09	-2.069156e+01	-4.444554e+02
6.400000e-07	-2.740851e-06	-6.629166e-09	-1.966883e+01	-4.352912e+02
6.500000e-07	-2.597250e-06	-6.489683e-09	-1.863833e+01	-4.258492e+02
6.600000e-07	-2.452796e-06	-6.337245e-09	-1.760170e+01	-4.161201e+02
6.700000e-07	-2.307563e-06	-6.175786e-09	-1.655948e+01	-4.060884e+02
6.800000e-07	-2.161507e-06	-6.014135e-09	-1.551135e+01	-3.957327e+02
6.900000e-07	-2.014722e-06	-5.848623e-09	-1.445800e+01	-3.850264e+02
7.000000e-07	-1.867302e-06	-5.678198e-09	-1.340009e+01	-3.739400e+02
7.100000e-07	-1.719303e-06	-5.504448e-09	-1.233802e+01	-3.624440e+02
7.200000e-07	-1.570764e-06	-5.326823e-09	-1.127208e+01	-3.505108e+02
7.300000e-07	-1.421737e-06	-5.141082e-09	-1.020263e+01	-3.381179e+02
7.400000e-07	-1.272307e-06	-4.945051e-09	-9.130297e+00	-3.252489e+02
7.500000e-07	-1.122439e-06	-4.742607e-09	-8.054820e+00	-3.118946e+02
7.600000e-07	-9.721668e-07	-4.533206e-09	-6.976440e+00	-2.980517e+02
7.700000e-07	-8.215829e-07	-4.316535e-09	-5.895824e+00	-2.837203e+02
7.800000e-07	-6.707106e-07	-4.090352e-09	-4.813138e+00	-2.689011e+02
7.900000e-07	-5.195649e-07	-3.857077e-09	-3.728489e+00	-2.535907e+02
8.000000e-07	-3.682017e-07	-3.617395e-09	-2.642280e+00	-2.377771e+02
8.100000e-07	-2.167110e-07	-3.369141e-09	-1.555157e+00	-2.214362e+02
8.200000e-07	-6.512198e-08	-3.111829e-09	-4.673268e-01	-2.045289e+02
8.300000e-07	8.653805e-08	-2.844039e-09	6.210123e-01	-1.870010e+02
8.400000e-07	2.381869e-07	-2.564407e-09	1.709271e+00	-1.687841e+02
8.500000e-07	3.897778e-07	-2.270115e-09	2.797114e+00	-1.498009e+02
8.600000e-07	5.412729e-07	-1.962627e-09	3.884270e+00	-1.299713e+02
8.700000e-07	6.926097e-07	-1.645730e-09	4.970289e+00	-1.092208e+02
8.800000e-07	8.437343e-07	-1.317498e-09	6.054786e+00	-8.749134e+01
8.900000e-07	9.945664e-07	-9.736352e-10	7.137184e+00	-6.475010e+01
9.000000e-07	1.145035e-06	-6.140651e-10	8.216972e+00	-4.099936e+01
9.100000e-07	1.295151e-06	-2.412040e-10	9.294232e+00	-1.628322e+01
9.200000e-07	1.444816e-06	1.451751e-10	1.036826e+01	9.308230e+00
9.300000e-07	1.593918e-06	5.453273e-10	1.143824e+01	3.563843e+01
9.400000e-07	1.742451e-06	9.552818e-10	1.250414e+01	6.252781e+01
9.500000e-07	1.890375e-06	1.372969e-09	1.356567e+01	8.976098e+01
9.600000e-07	2.037619e-06	1.792977e-09	1.462231e+01	1.170973e+02
9.700000e-07	2.184112e-06	2.210097e-09	1.567358e+01	1.442837e+02
9.800000e-07	2.329781e-06	2.621593e-09	1.671892e+01	1.710690e+02
9.900000e-07	2.474630e-06	3.021109e-09	1.775838e+01	1.972179e+02
1.000000e-06	2.618546e-06	3.406142e-09	1.879115e+01	2.225235e+02
1.010000e-06	2.761426e-06	3.771728e-09	1.981648e+01	2.468178e+02
1.020000e-06	2.903233e-06	4.118156e-09	2.083411e+01	2.699786e+02
1.030000e-06	3.043823e-06	4.446199e-09	2.184301e+01	2.919322e+02
1.040000e-06	3.183171e-06	4.758558e-09	2.284300e+01	3.126526e+02
1.050000e-06	3.321290e-06	5.056855e-09	2.383416e+01	3.321565e+02
1.060000e-06	3.458167e-06	5.337653e-09	2.481641e+01	3.504961e+02
1.070000e-06	3.593675e-06	5.602474e-09	2.578884e+01	3.677496e+02
1.080000e-06	3.727796e-06	5.852511e-09	2.675132e+01	3.840101e+02
1.090000e-06	3.860653e-06	6.088796e-09	2.770473e+01	3.993760e+02
1.100000e-06	3.992138e-06	6.311111e-09	2.864829e+01	4.139414e+02
1.110000e-06	4.122191e-06	6.520870e-09	2.958157e+01	4.277899e+02
1.120000e-06	4.250873e-06	6.720672e-09	3.050501e+01	4.409894e+02
1.130000e-06	4.378020e-06	6.910341e-09	3.141744e+01	4.535906e+02
1.140000e-06	4.503571e-06	7.091456e-09	3.231842e+01	4.656277e+02
1.150000e-06	4.627604e-06	7.266529e-09	3.320850e+01	4.771209e+02
1.160000e-06	4.750050e-06	7.431962e-09	3.408719e+01	4.880804e+02
1.170000e-06	4.870849e-06	7.587109e-09	3.495407e+01	4.985112e+02
1.180000e-06	4.989856e-06	7.735455e-09	3.580809e+01	5.084177e+02
1.190000e-06	5.106994e-06	7.878810e-09	3.664868e+01	5.178070e+02
1.200000e-06	5.222242e-06	8.014742e-09	3.747573e+01	5.266920e+02
1.210000e-06	5.335504e-06	8.143390e-09	3.828852e+01	5.350926e+02
1.220000e-06	5.446719e-06	8.266591e-09	3.908661e+01	5.430351e+02
1.230000e-06	5.555960e-06	8.385824e-09	3.987055e+01	5.505514e+02
1.240000e-06	5.663229e-06	8.499921e-09	4.064033e+01	5.576762e+02
1.250000e-06	5.768438e-06	8.605741e-09	4.139533e+01	5.644447e+02
1.260000e-06	5.871539e-06	8.702482e-09	4.213520e+01	5.708903e+02
1.270000e-06	5.972487e-06	8.791785e-09	4.285962e+01	5.770419e+02
1.280000e-06	6.071238e-06	8.876894e-09	4.356827e+01	5.829233e+02
1.290000e-06	6.167737e-06	8.958794e-09	4.426077e+01	5.885520e+02
1.300000e-06	6.261985e-06	9.038303e-09	4.493710e+01	5.939401e+02
1.310000e-06	6.353959e-06	9.115073e-09	4.559713e+01	5.990954e+02
1.320000e-06	6.443643e-06	9.189686e-09	4.624071e+01	6.040223e+02
1.330000e-06	6.531027e-06	9.262826e-09	4.686780e+01	6.087242e+02
1.340000e-06	6.616131e-06	9.332510e-09	4.747852e+01	6.132042e+02
1.350000e-06	6.698944e-06	9.397938e-09	4.807280e+01	6.174670e+02
1.360000e-06	6.779281e-06	9.459737e-09	4.864931e+01	6.215185e+02
1.370000e-06	6.857045e-06	9.517725e-09	4.920736e+01	6.253665e+02
1.380000e-06	6.932241e-06	9.573818e-09	4.974698e+01	6.290193e+02
1.390000e-06	7.004821e-06	9.627771e-09	5.026782e+01	6.324857e+02
1.400000e-06	7.074920e-06	9.678338e-09	5.077087e+01	6.357731e+02
1.410000e-06	7.142556e-06	9.725299e-09	5.125624e+01	6.388871e+02
1.420000e-06	7.207595e-06	9.770085e-09	5.172297e+01	6.418308e+02
1.430000e-06	7.270101e-06	9.813651e-09	5.217152e+01	6.446045e+02
1.440000e-06	7.330180e-06	9.853234e-09	5.260266e+01	6.472063e+02
1.450000e-06	7.387706e-06	9.889044e-09	5.301548e+01	6.496331e+02
1.460000e-06	7.442551e-06	9.922419e-09	5.340906e+01	6.518813e+02
1.470000e-06	7.494556e-06	9.954480e-09	5.378225e+01	6.539488e+02
1.480000e-06	7.543511e-06	9.983493e-09	5.413356e+01	6.558357e+02
1.490000e-06	7.589590e-06	1.000876e-08	5.446423e+01	6.575456e+02
1.500000e-06	7.633053e-06	1.003163e-08	5.477613e+01	6.590857e+02
1.510000e-06	7.673766e-06	1.005325e-08	5.506829e+01	6.604670e+02
1.520000e-06	7.711707e-06	1.007362e-08	5.534056e+01	6.617032e+02
1.530000e-06	7.746998e-06	1.009170e-08	5.559382e+01	6.628096e+02
1.540000e-06	7.779472e-06	1.010950e-08	5.582686e+01	6.638018e+02
1.550000e-06	7.809189e-06	1.012686e-08	5.604011e+01	6.646937e+02
1.560000e-06	7.836211e-06	1.014217e-08	5.623403e+01	6.654961e+02
1.570000e-06	7.860304e-06	1.015347e-08	5.640692e+01	6.662159e+02
1.580000e-06	7.881538e-06	1.016156e-08	5.655931e+01	6.668553e+02
1.590000e-06	7.900077e-06	1.016963e-08	5.669234e+01	6.674122e+02
1.600000e-06	7.915734e-06	1.017761e-08	5.680470e+01	6.678807e+02
1.610000e-06	7.928320e-06	1.018517e-08	5.689502e+01	6.682524e+02
1.620000e-06	7.937767e-06	1.019101e-08	5.696281e+01	6.685181e+02
1.630000e-06	7.944227e-06	1.019484e-08	5.700917e+01	6.686695e+02
1.640000e-06	7.947903e-06	1.019651e-08	5.703555e+01	6.687005e+02
1.650000e-06	7.948732e-06	1.019616e-08	5.704150e+01	6.686089e+02
1.660000e-06	7.946865e-06	1.018979e-08	5.702811e+01	6.683965e+02
1.670000e-06	7.942419e-06	1.018351e-08	5.699619e+01	6.680695e+02
1.680000e-06	7.935236e-06	1.017851e-08	5.694465e+01	6.676379e+02
1.690000e-06	7.925427e-06	1.017220e-08	5.687426e+01	6.671143e+02
1.700000e-06	7.912929e-06	1.016716e-08	5.678457e+01	6.665129e+02
1.710000e-06	7.897658e-06	1.016573e-08	5.667499e+01	6.658473e+02
1.720000e-06	7.879933e-06	1.016196e-08	5.654779e+01	6.651297e+02
1.730000e-06	7.859904e-06	1.012249e-08	5.640406e+01	6.643690e+02
1.740000e-06	7.837165e-06	1.003230e-08	5.624088e+01	6.635706e+02
1.750000e-06	7.811152e-06	1.003228e-08	5.605420e+01	6.627353e+02
1.760000e-06	7.781587e-06	1.006388e-08	5.584204e+01	6.618603e+02
1.770000e-06	7.748819e-06	1.004806e-08	5.560689e+01	6.609389e+02
1.780000e-06	7.713663e-06	1.005029e-08	5.535460e+01	6.599620e+02
1.790000e-06	7.676206e-06	1.010606e-08	5.508581e+01	6.589188e+02
1.800000e-06	7.636516e-06	1.005820e-08	5.480098e+01	6.577978e+02
1.810000e-06	7.594798e-06	9.973651e-09	5.450161e+01	6.565880e+02
1.820000e-06	7.550560e-06	1.002077e-08	5.418415e+01	6.552794e+02
1.830000e-06	7.503706e-06	9.963392e-09	5.384792e+01	6.538636e+02
1.840000e-06	7.454199e-06	9.977682e-09	5.349264e+01	6.523339e+02
1.850000e-06	7.401661e-06	9.974492e-09	5.311562e+01	6.506852e+02
1.860000e-06	7.346252e-06	9.918534e-09	5.271800e+01	6.489139e+02
1.870000e-06	7.288192e-06	9.915417e-09	5.230135e+01	6.470179e+02
1.880000e-06	7.227480e-06	9.811267e-09	5.186567e+01	6.449960e+02
1.890000e-06	7.163999e-06	9.834696e-09	5.141012e+01	6.428480e+02
1.900000e-06	7.097742e-06	9.794795e-09	5.093464e+01	6.405743e+02
1.910000e-06	7.028731e-06	9.715008e-09	5.043941e+01	6.381763e+02
1.920000e-06	6.956875e-06	9.723798e-09	4.992376e+01	6.356561e+02
1.930000e-06	6.882437e-06	9.660032e-09	4.938958e+01	6.330166e+02
1.940000e-06	6.805350e-06	9.633395e-09	4.883639e+01	6.302611e+02
1.950000e-06	6.725509e-06	9.555461e-09	4.826344e+01	6.273936e+02
1.960000e-06	6.643211e-06	9.534034e-09	4.767285e+01	6.244175e+02
1.970000e-06	6.558484e-06	9.501902e-09	4.706483e+01	6.213358e+02
1.980000e-06	6.471275e-06	9.425921e-09	4.643901e+01	6.181501e+02
1.990000e-06	6.381712e-06	9.402189e-09	4.579629e+01	6.148604e+02
2.000000e-06	6.290011e-06	9.346176e-09	4.513823e+01	6.114640e+02
2.010000e-06	6.196063e-06	9.288270e-09	4.446404e+01	6.079560e+02
2.020000e-06	6.099780e-06	9.204598e-09	4.377310e+01	6.043292e+02
2.030000e-06	6.001402e-06	9.166957e-09	4.306712e+01	6.005743e+02
2.040000e-06	5.900930e-06	9.114208e-09	4.234612e+01	5.966810e+02
2.050000e-06	5.798278e-06	9.050940e-09	4.160946e+01	5.926388e+02
2.060000e-06	5.693576e-06	8.990012e-09	4.085810e+01	5.884380e+02
2.070000e-06	5.587025e-06	8.921756e-09	4.009348e+01	5.840706e+02
2.080000e-06	5.478562e-06	8.843801e-09	3.931512e+01	5.795314e+02
2.090000e-06	5.368086e-06	8.756187e-09	3.852233e+01	5.748176e+02
2.100000e-06	5.255627e-06	8.695050e-09	3.771531e+01	5.699296e+02
2.110000e-06	5.141199e-06	8.621297e-09	3.689415e+01	5.648696e+02
2.120000e-06	5.024747e-06	8.549007e-09	3.605847e+01	5.596411e+02
2.130000e-06	4.906303e-06	8.465844e-09	3.520849e+01	5.542473e+02
2.140000e-06	4.786010e-06	8.385031e-09	3.434525e+01	5.486901e+02
2.150000e-06	4.663971e-06	8.292436e-09	3.346948e+01	5.429686e+02
2.160000e-06	4.540272e-06	8.199105e-09	3.258179e+01	5.370784e+02
2.170000e-06	4.414878e-06	8.106733e-09	3.168194e+01	5.310109e+02
2.180000e-06	4.287829e-06	8.013810e-09	3.077022e+01	5.247540e+02
2.190000e-06	4.159200e-06	7.918861e-09	2.984715e+01	5.182925e+02
2.200000e-06	4.029095e-06	7.819163e-09	2.891349e+01	5.116098e+02
2.210000e-06	3.897568e-06	7.711251e-09	2.796963e+01	5.046890e+02
2.220000e-06	3.764548e-06	7.593258e-09	2.701506e+01	4.975150e+02
2.230000e-06	3.630070e-06	7.482455e-09	2.605002e+01	4.900753e+02
2.240000e-06	3.494268e-06	7.372289e-09	2.507548e+01	4.823618e+02
2.250000e-06	3.357182e-06	7.258644e-09	2.409173e+01	4.743700e+02
2.260000e-06	3.218798e-06	7.134056e-09	2.309866e+01	4.660995e+02
2.270000e-06	3.079163e-06	7.004215e-09	2.209661e+01	4.575519e+02
2.280000e-06	2.938226e-06	6.864303e-09	2.108523e+01	4.487296e+02
2.290000e-06	2.796071e-06	6.718227e-09	2.006509e+01	4.396336e+02
2.300000e-06	2.652916e-06	6.574279e-09	1.903779e+01	4.302612e+02
2.310000e-06	2.508876e-06	6.430579e-09	1.800414e+01	4.206046e+02
2.320000e-06	2.364028e-06	6.281682e-09	1.696468e+01	4.106499e+02
2.330000e-06	2.218372e-06	6.127285e-09	1.591943e+01	4.003771e+02
2.340000e-06	2.071938e-06	5.967898e-09	1.486859e+01	3.897606e+02
2.350000e-06	1.924796e-06	5.800613e-09	1.381267e+01	3.787716e+02
2.360000e-06	1.777032e-06	5.622261e-09	1.275229e+01	3.673803e+02
2.370000e-06	1.628647e-06	5.437509e-09	1.168746e+01	3.555583e+02
2.380000e-06	1.479732e-06	5.249159e-09	1.061882e+01	3.432816e+02
2.390000e-06	1.330369e-06	5.057248e-09	9.546965e+00	3.305323e+02
2.400000e-06	1.180555e-06	4.857101e-09	8.471870e+00	3.172994e+02
2.410000e-06	1.030364e-06	4.645331e-09	7.394073e+00	3.035782e+02
2.420000e-06	8.798239e-07	4.423785e-09	6.313771e+00	2.893684e+02
2.430000e-06	7.290052e-07	4.197670e-09	5.231469e+00	2.746708e+02
2.440000e-06	5.779424e-07	3.971601e-09	4.147416e+00	2.594834e+02
2.450000e-06	4.266601e-07	3.739758e-09	3.061788e+00	2.437969e+02
2.460000e-06	2.751784e-07	3.495078e-09	1.974728e+00	2.275904e+02
2.470000e-06	1.235562e-07	3.235154e-09	8.866612e-01	2.108288e+02
2.480000e-06	-2.809612e-08	2.963557e-09	-2.016227e-01	1.934614e+02
2.490000e-06	-1.797770e-07	2.683074e-09	-1.290111e+00	1.754233e+02
2.500000e-06	-3.314441e-07	2.392430e-09	-2.378501e+00	1.566388e+02
2.510000e-06	-4.830108e-07	2.092219e-09	-3.466171e+00	1.370277e+02
2.520000e-06	-6.344094e-07	1.780603e-09	-4.552634e+00	1.165132e+02
2.530000e-06	-7.856078e-07	1.455527e-09	-5.637660e+00	9.503227e+01
2.540000e-06	-9.365243e-07	1.116905e-09	-6.720663e+00	7.254479e+01
2.550000e-06	-1.087055e-06	7.649903e-10	-7.800901e+00	4.904356e+01
2.560000e-06	-1.237210e-06	3.967140e-10	-8.878433e+00	2.456170e+01
2.570000e-06	-1.386950e-06	9.533879e-12	-9.952998e+00	-8.224001e-01
2.580000e-06	-1.536207e-06	-3.915175e-10	-1.102409e+01	-2.698363e+01
2.590000e-06	-1.684945e-06	-8.035374e-10	-1.209146e+01	-5.375262e+01
2.600000e-06	-1.833049e-06	-1.222024e-09	-1.315428e+01	-8.092209e+01
2.610000e-06	-1.980413e-06	-1.643544e-09	-1.421179e+01	-1.082566e+02
2.620000e-06	-2.127026e-06	-2.065850e-09	-1.526391e+01	-1.355048e+02
2.630000e-06	-2.272806e-06	-2.482784e-09	-1.631006e+01	-1.624138e+02
2.640000e-06	-2.417695e-06	-2.888435e-09	-1.734980e+01	-1.887429e+02
2.650000e-06	-2.561709e-06	-3.277896e-09	-1.838328e+01	-2.142771e+02
2.660000e-06	-2.704727e-06	-3.648565e-09	-1.940960e+01	-2.388381e+02
2.670000e-06	-2.846644e-06	-4.002346e-09	-2.042802e+01	-2.622916e+02
2.680000e-06	-2.987423e-06	-4.338119e-09	-2.143828e+01	-2.845517e+02
2.690000e-06	-3.127026e-06	-4.655825e-09	-2.244009e+01	-3.055808e+02
2.700000e-06	-3.265413e-06	-4.957962e-09	-2.343318e+01	-3.253856e+02
2.710000e-06	-3.402548e-06	-5.243733e-09	-2.441728e+01	-3.440103e+02
2.720000e-06	-3.538380e-06	-5.512626e-09	-2.539203e+01	-3.615275e+02
2.730000e-06	-3.672909e-06	-5.766692e-09	-2.635744e+01	-3.780275e+02
2.740000e-06	-3.806177e-06	-6.008923e-09	-2.731379e+01	-3.936083e+02
2.750000e-06	-3.938057e-06	-6.238718e-09	-2.826019e+01	-4.083660e+02
2.760000e-06	-4.068520e-06	-6.456361e-09	-2.919641e+01	-4.223872e+02
2.770000e-06	-4.197588e-06	-6.663365e-09	-3.012263e+01	-4.357439e+02
2.780000e-06	-4.325150e-06	-6.860593e-09	-3.103804e+01	-4.484914e+02
2.790000e-06	-4.451275e-06	-7.047635e-09	-3.194313e+01	-4.606676e+02
2.800000e-06	-4.575912e-06	-7.223054e-09	-3.283755e+01	-4.722959e+02
2.810000e-06	-4.698891e-06	-7.388150e-09	-3.372007e+01	-4.833887e+02
2.820000e-06	-4.820191e-06	-7.544781e-09	-3.459054e+01	-4.939518e+02
2.830000e-06	-4.939636e-06	-7.694400e-09	-3.544770e+01	-5.039893e+02
2.840000e-06	-5.057169e-06	-7.839266e-09	-3.629114e+01	-5.135074e+02
2.850000e-06	-5.172681e-06	-7.978703e-09	-3.712007e+01	-5.225174e+02
2.860000e-06	-5.286036e-06	-8.109459e-09	-3.793352e+01	-5.310373e+02
2.870000e-06	-5.397321e-06	-8.232434e-09	-3.873213e+01	-5.390920e+02
2.880000e-06	-5.506592e-06	-8.350181e-09	-3.951627e+01	-5.467121e+02
2.890000e-06	-5.613994e-06	-8.464016e-09	-4.028701e+01	-5.539319e+02
2.900000e-06	-5.719561e-06	-8.572984e-09	-4.104458e+01	-5.607868e+02
2.910000e-06	-5.822991e-06	-8.674149e-09	-4.178681e+01	-5.673106e+02
2.920000e-06	-5.924154e-06	-8.767497e-09	-4.251278e+01	-5.735338e+02
2.930000e-06	-6.023126e-06	-8.855090e-09	-4.322301e+01	-5.794813e+02
2.940000e-06	-6.119994e-06	-8.940280e-09	-4.391815e+01	-5.851722e+02
