# Temperatura_=_34.46
# Concentracion g/m^3_=_10000.0
# C_Vs_to_Am_M_A/Vsm_=_65563218390.804596
# pendiente_HvsI_1/m_=_3716.3
# ordenada_HvsI_A/m_=_1297.0
# frecuencia_Hz_=_302622.4997929946

Tiempo_(s)	Campo_(V.s)	Magnetizacion_(V.s)	Campo_(kA/m)	Magnetizacion_(A/m)
0.000000e+00	-7.931762e-06	-1.016171e-08	-5.681659e+01	-6.659129e+02
1.000000e-08	-7.927229e-06	-1.016032e-08	-5.678412e+01	-6.655857e+02
2.000000e-08	-7.920226e-06	-1.015275e-08	-5.673396e+01	-6.651554e+02
3.000000e-08	-7.910512e-06	-1.014435e-08	-5.666437e+01	-6.646360e+02
4.000000e-08	-7.897875e-06	-1.013572e-08	-5.657385e+01	-6.640421e+02
5.000000e-08	-7.882280e-06	-1.012568e-08	-5.646215e+01	-6.633874e+02
6.000000e-08	-7.864040e-06	-1.011576e-08	-5.633149e+01	-6.626831e+02
7.000000e-08	-7.843590e-06	-1.010585e-08	-5.618500e+01	-6.619362e+02
8.000000e-08	-7.820621e-06	-1.011679e-08	-5.602047e+01	-6.611489e+02
9.000000e-08	-7.794458e-06	-1.014387e-08	-5.583306e+01	-6.603187e+02
1.000000e-07	-7.765062e-06	-1.010565e-08	-5.562249e+01	-6.594385e+02
1.100000e-07	-7.732876e-06	-1.005436e-08	-5.539194e+01	-6.584980e+02
1.200000e-07	-7.697972e-06	-1.003693e-08	-5.514192e+01	-6.574852e+02
1.300000e-07	-7.660527e-06	-1.000686e-08	-5.487369e+01	-6.563874e+02
1.400000e-07	-7.620923e-06	-9.953844e-09	-5.459000e+01	-6.551934e+02
1.500000e-07	-7.579065e-06	-9.926196e-09	-5.429016e+01	-6.538940e+02
1.600000e-07	-7.534697e-06	-9.976495e-09	-5.397235e+01	-6.524831e+02
1.700000e-07	-7.487660e-06	-9.930454e-09	-5.363541e+01	-6.509575e+02
1.800000e-07	-7.437751e-06	-9.871336e-09	-5.327791e+01	-6.493171e+02
1.900000e-07	-7.384807e-06	-9.896010e-09	-5.289866e+01	-6.475639e+02
2.000000e-07	-7.329027e-06	-9.817038e-09	-5.249910e+01	-6.457011e+02
2.100000e-07	-7.270592e-06	-9.776112e-09	-5.208052e+01	-6.437323e+02
2.200000e-07	-7.209537e-06	-9.786595e-09	-5.164317e+01	-6.416604e+02
2.300000e-07	-7.145911e-06	-9.757135e-09	-5.118741e+01	-6.394871e+02
2.400000e-07	-7.079532e-06	-9.710624e-09	-5.071192e+01	-6.372126e+02
2.500000e-07	-7.010431e-06	-9.666268e-09	-5.021694e+01	-6.348358e+02
2.600000e-07	-6.938668e-06	-9.651966e-09	-4.970289e+01	-6.323543e+02
2.700000e-07	-6.864139e-06	-9.595787e-09	-4.916902e+01	-6.297651e+02
2.800000e-07	-6.786830e-06	-9.553902e-09	-4.861524e+01	-6.270652e+02
2.900000e-07	-6.706730e-06	-9.519728e-09	-4.804148e+01	-6.242521e+02
3.000000e-07	-6.624159e-06	-9.473978e-09	-4.745001e+01	-6.213239e+02
3.100000e-07	-6.539373e-06	-9.429618e-09	-4.684267e+01	-6.182798e+02
3.200000e-07	-6.452280e-06	-9.366145e-09	-4.621881e+01	-6.151193e+02
3.300000e-07	-6.362828e-06	-9.321184e-09	-4.557805e+01	-6.118422e+02
3.400000e-07	-6.271080e-06	-9.269196e-09	-4.492084e+01	-6.084480e+02
3.500000e-07	-6.177115e-06	-9.217945e-09	-4.424775e+01	-6.049350e+02
3.600000e-07	-6.080898e-06	-9.166675e-09	-4.355854e+01	-6.013004e+02
3.700000e-07	-5.982406e-06	-9.112267e-09	-4.285302e+01	-5.975396e+02
3.800000e-07	-5.881724e-06	-9.049423e-09	-4.213181e+01	-5.936466e+02
3.900000e-07	-5.779032e-06	-8.981325e-09	-4.139621e+01	-5.896139e+02
4.000000e-07	-5.674296e-06	-8.919114e-09	-4.064597e+01	-5.854339e+02
4.100000e-07	-5.567492e-06	-8.845941e-09	-3.988092e+01	-5.810990e+02
4.200000e-07	-5.458735e-06	-8.785788e-09	-3.910187e+01	-5.766023e+02
4.300000e-07	-5.348093e-06	-8.727408e-09	-3.830932e+01	-5.719387e+02
4.400000e-07	-5.235413e-06	-8.656513e-09	-3.750218e+01	-5.671046e+02
4.500000e-07	-5.120611e-06	-8.571311e-09	-3.667983e+01	-5.620985e+02
4.600000e-07	-5.003852e-06	-8.491157e-09	-3.584346e+01	-5.569197e+02
4.700000e-07	-4.885316e-06	-8.409715e-09	-3.499437e+01	-5.515683e+02
4.800000e-07	-4.764962e-06	-8.321375e-09	-3.413225e+01	-5.460439e+02
4.900000e-07	-4.642785e-06	-8.237637e-09	-3.325708e+01	-5.403446e+02
5.000000e-07	-4.518994e-06	-8.150461e-09	-3.237034e+01	-5.344664e+02
5.100000e-07	-4.393616e-06	-8.054994e-09	-3.147224e+01	-5.284024e+02
5.200000e-07	-4.266618e-06	-7.952664e-09	-3.056253e+01	-5.221426e+02
5.300000e-07	-4.137990e-06	-7.856183e-09	-2.964114e+01	-5.156749e+02
5.400000e-07	-4.007840e-06	-7.754208e-09	-2.870885e+01	-5.089852e+02
5.500000e-07	-3.876202e-06	-7.646859e-09	-2.776591e+01	-5.020594e+02
5.600000e-07	-3.743008e-06	-7.538565e-09	-2.681182e+01	-4.948837e+02
5.700000e-07	-3.608476e-06	-7.426266e-09	-2.584814e+01	-4.874468e+02
5.800000e-07	-3.472594e-06	-7.305244e-09	-2.487479e+01	-4.797401e+02
5.900000e-07	-3.335272e-06	-7.178202e-09	-2.389114e+01	-4.717584e+02
6.000000e-07	-3.196656e-06	-7.053748e-09	-2.289820e+01	-4.634994e+02
6.100000e-07	-3.056770e-06	-6.925076e-09	-2.189617e+01	-4.549630e+02
6.200000e-07	-2.915496e-06	-6.791753e-09	-2.088421e+01	-4.461495e+02
6.300000e-07	-2.772925e-06	-6.657874e-09	-1.986294e+01	-4.370584e+02
6.400000e-07	-2.629373e-06	-6.520870e-09	-1.883466e+01	-4.276860e+02
6.500000e-07	-2.484842e-06	-6.370139e-09	-1.779936e+01	-4.180240e+02
6.600000e-07	-2.339417e-06	-6.209325e-09	-1.675765e+01	-4.080588e+02
6.700000e-07	-2.193311e-06	-6.048075e-09	-1.571107e+01	-3.977712e+02
6.800000e-07	-2.046451e-06	-5.882849e-09	-1.465909e+01	-3.871370e+02
6.900000e-07	-1.898853e-06	-5.712768e-09	-1.360182e+01	-3.761286e+02
7.000000e-07	-1.750690e-06	-5.537953e-09	-1.254050e+01	-3.647174e+02
7.100000e-07	-1.602022e-06	-5.359702e-09	-1.147557e+01	-3.528760e+02
7.200000e-07	-1.452900e-06	-5.174172e-09	-1.040738e+01	-3.405812e+02
7.300000e-07	-1.303399e-06	-4.981626e-09	-9.336476e+00	-3.278151e+02
7.400000e-07	-1.153501e-06	-4.781942e-09	-8.262726e+00	-3.145665e+02
7.500000e-07	-1.003143e-06	-4.574195e-09	-7.185686e+00	-3.008304e+02
7.600000e-07	-8.523745e-07	-4.358822e-09	-6.105707e+00	-2.866062e+02
7.700000e-07	-7.012550e-07	-4.135579e-09	-5.023212e+00	-2.718947e+02
7.800000e-07	-5.497888e-07	-3.904932e-09	-3.938233e+00	-2.566943e+02
7.900000e-07	-3.980643e-07	-3.666467e-09	-2.851404e+00	-2.409964e+02
8.000000e-07	-2.462151e-07	-3.419766e-09	-1.763681e+00	-2.247816e+02
8.100000e-07	-9.425693e-08	-3.162829e-09	-6.751788e-01	-2.080167e+02
8.200000e-07	5.775946e-08	-2.897648e-09	4.137410e-01	-1.906532e+02
8.300000e-07	2.097790e-07	-2.621729e-09	1.502684e+00	-1.726284e+02
8.400000e-07	3.617398e-07	-2.332653e-09	2.591206e+00	-1.538687e+02
8.500000e-07	5.135653e-07	-2.029926e-09	3.678758e+00	-1.342952e+02
8.600000e-07	6.652764e-07	-1.716801e-09	4.765490e+00	-1.138321e+02
8.700000e-07	8.167744e-07	-1.391994e-09	5.850697e+00	-9.241597e+01
8.800000e-07	9.679099e-07	-1.050992e-09	6.933307e+00	-7.000585e+01
8.900000e-07	1.118675e-06	-6.948731e-10	8.013266e+00	-4.659252e+01
9.000000e-07	1.269038e-06	-3.256371e-10	9.090337e+00	-2.220648e+01
9.100000e-07	1.418948e-06	5.437429e-11	1.016417e+01	3.076990e+00
9.200000e-07	1.568392e-06	4.497829e-10	1.123467e+01	2.913608e+01
9.300000e-07	1.717262e-06	8.560742e-10	1.230105e+01	5.580466e+01
9.400000e-07	1.865498e-06	1.269055e-09	1.336289e+01	8.287836e+01
9.500000e-07	2.013150e-06	1.685284e-09	1.442054e+01	1.101241e+02
9.600000e-07	2.160170e-06	2.101717e-09	1.547368e+01	1.372926e+02
9.700000e-07	2.306292e-06	2.516829e-09	1.652037e+01	1.641321e+02
9.800000e-07	2.451539e-06	2.920093e-09	1.756080e+01	1.904028e+02
9.900000e-07	2.595982e-06	3.307921e-09	1.859547e+01	2.158900e+02
1.000000e-06	2.739397e-06	3.677211e-09	1.962278e+01	2.404156e+02
1.010000e-06	2.881667e-06	4.027498e-09	2.064189e+01	2.638453e+02
1.020000e-06	3.022728e-06	4.357496e-09	2.165233e+01	2.860932e+02
1.030000e-06	3.162562e-06	4.671233e-09	2.265398e+01	3.071216e+02
1.040000e-06	3.301220e-06	4.971771e-09	2.364721e+01	3.269372e+02
1.050000e-06	3.438636e-06	5.255978e-09	2.463155e+01	3.455839e+02
1.060000e-06	3.574646e-06	5.525386e-09	2.560581e+01	3.631336e+02
1.070000e-06	3.709243e-06	5.781509e-09	2.656995e+01	3.796757e+02
1.080000e-06	3.842545e-06	6.023924e-09	2.752482e+01	3.953069e+02
1.090000e-06	3.974513e-06	6.250748e-09	2.847013e+01	4.101212e+02
1.100000e-06	4.105071e-06	6.464461e-09	2.940534e+01	4.242027e+02
1.110000e-06	4.234233e-06	6.666941e-09	3.033055e+01	4.376208e+02
1.120000e-06	4.361879e-06	6.857326e-09	3.124490e+01	4.504277e+02
1.130000e-06	4.488013e-06	7.039425e-09	3.214842e+01	4.626589e+02
1.140000e-06	4.612666e-06	7.217017e-09	3.304133e+01	4.743353e+02
1.150000e-06	4.735689e-06	7.385598e-09	3.392257e+01	4.854677e+02
1.160000e-06	4.857066e-06	7.542839e-09	3.479201e+01	4.960614e+02
1.170000e-06	4.976686e-06	7.692230e-09	3.564887e+01	5.061206e+02
1.180000e-06	5.094438e-06	7.837711e-09	3.649234e+01	5.156528e+02
1.190000e-06	5.210305e-06	7.977859e-09	3.732232e+01	5.246713e+02
1.200000e-06	5.324137e-06	8.109863e-09	3.813772e+01	5.331964e+02
1.210000e-06	5.435884e-06	8.231840e-09	3.893819e+01	5.412558e+02
1.220000e-06	5.545697e-06	8.346953e-09	3.972480e+01	5.488823e+02
1.230000e-06	5.653584e-06	8.461855e-09	4.049761e+01	5.561119e+02
1.240000e-06	5.759407e-06	8.572865e-09	4.125563e+01	5.629809e+02
1.250000e-06	5.863046e-06	8.674058e-09	4.199802e+01	5.695228e+02
1.260000e-06	5.964545e-06	8.765949e-09	4.272508e+01	5.757668e+02
1.270000e-06	6.063941e-06	8.852515e-09	4.343707e+01	5.817358e+02
1.280000e-06	6.161072e-06	8.936271e-09	4.413283e+01	5.874462e+02
1.290000e-06	6.255831e-06	9.015712e-09	4.481160e+01	5.929084e+02
1.300000e-06	6.348351e-06	9.091316e-09	4.547434e+01	5.981282e+02
1.310000e-06	6.438730e-06	9.165260e-09	4.612174e+01	6.031090e+02
1.320000e-06	6.526769e-06	9.236660e-09	4.675238e+01	6.078529e+02
1.330000e-06	6.612396e-06	9.304951e-09	4.736574e+01	6.123632e+02
1.340000e-06	6.695700e-06	9.371742e-09	4.796247e+01	6.166454e+02
1.350000e-06	6.776647e-06	9.435936e-09	4.854230e+01	6.207076e+02
1.360000e-06	6.855075e-06	9.494933e-09	4.910410e+01	6.245604e+02
1.370000e-06	6.930895e-06	9.550317e-09	4.964721e+01	6.282158e+02
1.380000e-06	7.004168e-06	9.603824e-09	5.017208e+01	6.316862e+02
1.390000e-06	7.074931e-06	9.655391e-09	5.067897e+01	6.349827e+02
1.400000e-06	7.143170e-06	9.703558e-09	5.116777e+01	6.381137e+02
1.410000e-06	7.208869e-06	9.747942e-09	5.163839e+01	6.410842e+02
1.420000e-06	7.272002e-06	9.789829e-09	5.209062e+01	6.438951e+02
1.430000e-06	7.332640e-06	9.829516e-09	5.252498e+01	6.465438e+02
1.440000e-06	7.390729e-06	9.866745e-09	5.294108e+01	6.490250e+02
1.450000e-06	7.446155e-06	9.900880e-09	5.333811e+01	6.513324e+02
1.460000e-06	7.498775e-06	9.932070e-09	5.371503e+01	6.534601e+02
1.470000e-06	7.548312e-06	9.960758e-09	5.406987e+01	6.554048e+02
1.480000e-06	7.594929e-06	9.989095e-09	5.440380e+01	6.571668e+02
1.490000e-06	7.638951e-06	1.001606e-08	5.471914e+01	6.587509e+02
1.500000e-06	7.680281e-06	1.003984e-08	5.501519e+01	6.601667e+02
1.510000e-06	7.718800e-06	1.005964e-08	5.529111e+01	6.614279e+02
1.520000e-06	7.754655e-06	1.007510e-08	5.554795e+01	6.625507e+02
1.530000e-06	7.787761e-06	1.009085e-08	5.578509e+01	6.635525e+02
1.540000e-06	7.818033e-06	1.010702e-08	5.600193e+01	6.644498e+02
1.550000e-06	7.845565e-06	1.012247e-08	5.619915e+01	6.652562e+02
1.560000e-06	7.870183e-06	1.013597e-08	5.637549e+01	6.659809e+02
1.570000e-06	7.891943e-06	1.014617e-08	5.653136e+01	6.666283e+02
1.580000e-06	7.911049e-06	1.015487e-08	5.666822e+01	6.671973e+02
1.590000e-06	7.927286e-06	1.016209e-08	5.678453e+01	6.676823e+02
1.600000e-06	7.940455e-06	1.016823e-08	5.687887e+01	6.680747e+02
1.610000e-06	7.950467e-06	1.017446e-08	5.695058e+01	6.683641e+02
1.620000e-06	7.957457e-06	1.017987e-08	5.700065e+01	6.685410e+02
1.630000e-06	7.961708e-06	1.018234e-08	5.703110e+01	6.685979e+02
1.640000e-06	7.963160e-06	1.018286e-08	5.704150e+01	6.685315e+02
1.650000e-06	7.961860e-06	1.018145e-08	5.703219e+01	6.683430e+02
1.660000e-06	7.957979e-06	1.017540e-08	5.700439e+01	6.680385e+02
1.670000e-06	7.951386e-06	1.017166e-08	5.695716e+01	6.676284e+02
1.680000e-06	7.942119e-06	1.016700e-08	5.689078e+01	6.671260e+02
1.690000e-06	7.930165e-06	1.015961e-08	5.680516e+01	6.665460e+02
1.700000e-06	7.915376e-06	1.015265e-08	5.669922e+01	6.659025e+02
1.710000e-06	7.898049e-06	1.014339e-08	5.657510e+01	6.652072e+02
1.720000e-06	7.878502e-06	1.012177e-08	5.643508e+01	6.644682e+02
1.730000e-06	7.856402e-06	1.005180e-08	5.627678e+01	6.636887e+02
1.740000e-06	7.831093e-06	1.001560e-08	5.609549e+01	6.628673e+02
1.750000e-06	7.802179e-06	1.004952e-08	5.588836e+01	6.619977e+02
1.760000e-06	7.769924e-06	1.004972e-08	5.565732e+01	6.610703e+02
1.770000e-06	7.735172e-06	1.003513e-08	5.540839e+01	6.600731e+02
1.780000e-06	7.698155e-06	1.006506e-08	5.514322e+01	6.589938e+02
1.790000e-06	7.658866e-06	1.008671e-08	5.486179e+01	6.578204e+02
1.800000e-06	7.617525e-06	9.992262e-09	5.456566e+01	6.565433e+02
1.810000e-06	7.573736e-06	9.988862e-09	5.425199e+01	6.551558e+02
1.820000e-06	7.527300e-06	9.999834e-09	5.391936e+01	6.536540e+02
1.830000e-06	7.478233e-06	9.932797e-09	5.356788e+01	6.520373e+02
1.840000e-06	7.426170e-06	9.963277e-09	5.319495e+01	6.503071e+02
1.850000e-06	7.371167e-06	9.910112e-09	5.280095e+01	6.484667e+02
1.860000e-06	7.313437e-06	9.884116e-09	5.238742e+01	6.465195e+02
1.870000e-06	7.253085e-06	9.826428e-09	5.195511e+01	6.444686e+02
1.880000e-06	7.190052e-06	9.779224e-09	5.150360e+01	6.423161e+02
1.890000e-06	7.124247e-06	9.804539e-09	5.103223e+01	6.400625e+02
1.900000e-06	7.055745e-06	9.716302e-09	5.054153e+01	6.377069e+02
1.910000e-06	6.984356e-06	9.716164e-09	5.003016e+01	6.352472e+02
1.920000e-06	6.910263e-06	9.668324e-09	4.949942e+01	6.326805e+02
1.930000e-06	6.833510e-06	9.609857e-09	4.894962e+01	6.300037e+02
1.940000e-06	6.753970e-06	9.574602e-09	4.837987e+01	6.272141e+02
1.950000e-06	6.671984e-06	9.508775e-09	4.779259e+01	6.243099e+02
1.960000e-06	6.587605e-06	9.501531e-09	4.718817e+01	6.212898e+02
1.970000e-06	6.500747e-06	9.428419e-09	4.656598e+01	6.181534e+02
1.980000e-06	6.411460e-06	9.394719e-09	4.592640e+01	6.149004e+02
1.990000e-06	6.319987e-06	9.350583e-09	4.527117e+01	6.115306e+02
2.000000e-06	6.226289e-06	9.286809e-09	4.459999e+01	6.080424e+02
2.010000e-06	6.130243e-06	9.224813e-09	4.391200e+01	6.044334e+02
2.020000e-06	6.032073e-06	9.163413e-09	4.320879e+01	6.006992e+02
2.030000e-06	5.931767e-06	9.118517e-09	4.249028e+01	5.968342e+02
2.040000e-06	5.829325e-06	9.049631e-09	4.175647e+01	5.928312e+02
2.050000e-06	5.724807e-06	8.999158e-09	4.100779e+01	5.886826e+02
2.060000e-06	5.618360e-06	8.927141e-09	4.024529e+01	5.843806e+02
2.070000e-06	5.510026e-06	8.848850e-09	3.946928e+01	5.799182e+02
2.080000e-06	5.399731e-06	8.765700e-09	3.867922e+01	5.752899e+02
2.090000e-06	5.287450e-06	8.700219e-09	3.787493e+01	5.704917e+02
2.100000e-06	5.173153e-06	8.632149e-09	3.705619e+01	5.655216e+02
2.110000e-06	5.056789e-06	8.560265e-09	3.622266e+01	5.603790e+02
2.120000e-06	4.938478e-06	8.484593e-09	3.537518e+01	5.550637e+02
2.130000e-06	4.818357e-06	8.393656e-09	3.451473e+01	5.495756e+02
2.140000e-06	4.696463e-06	8.301843e-09	3.364158e+01	5.439133e+02
2.150000e-06	4.572917e-06	8.212229e-09	3.275660e+01	5.380730e+02
2.160000e-06	4.447652e-06	8.130412e-09	3.185931e+01	5.320487e+02
2.170000e-06	4.320699e-06	8.038265e-09	3.094992e+01	5.258309e+02
2.180000e-06	4.192105e-06	7.944194e-09	3.002878e+01	5.194080e+02
2.190000e-06	4.062031e-06	7.842290e-09	2.909704e+01	5.127663e+02
2.200000e-06	3.930531e-06	7.736642e-09	2.815508e+01	5.058914e+02
2.210000e-06	3.797525e-06	7.623447e-09	2.720233e+01	4.987695e+02
2.220000e-06	3.663040e-06	7.512960e-09	2.623899e+01	4.913885e+02
2.230000e-06	3.527214e-06	7.399224e-09	2.526605e+01	4.837394e+02
2.240000e-06	3.390103e-06	7.277581e-09	2.428390e+01	4.758160e+02
2.250000e-06	3.251695e-06	7.154211e-09	2.329246e+01	4.676156e+02
2.260000e-06	3.112021e-06	7.030680e-09	2.229195e+01	4.591377e+02
2.270000e-06	2.971041e-06	6.898531e-09	2.128208e+01	4.503828e+02
2.280000e-06	2.828852e-06	6.754049e-09	2.026356e+01	4.413505e+02
2.290000e-06	2.685600e-06	6.610908e-09	1.923742e+01	4.320380e+02
2.300000e-06	2.541450e-06	6.467391e-09	1.820485e+01	4.224381e+02
2.310000e-06	2.396428e-06	6.321643e-09	1.716603e+01	4.125385e+02
2.320000e-06	2.250607e-06	6.169884e-09	1.612149e+01	4.023211e+02
2.330000e-06	2.104137e-06	6.011039e-09	1.507230e+01	3.917625e+02
2.340000e-06	1.957005e-06	5.841530e-09	1.401837e+01	3.808358e+02
2.350000e-06	1.809052e-06	5.662029e-09	1.295856e+01	3.695124e+02
2.360000e-06	1.660333e-06	5.480523e-09	1.189326e+01	3.577645e+02
2.370000e-06	1.511106e-06	5.296233e-09	1.082431e+01	3.455677e+02
2.380000e-06	1.361446e-06	5.106688e-09	9.752273e+00	3.329029e+02
2.390000e-06	1.211383e-06	4.907525e-09	8.677348e+00	3.197574e+02
2.400000e-06	1.060935e-06	4.697711e-09	7.599663e+00	3.061251e+02
2.410000e-06	9.101091e-07	4.479436e-09	6.519270e+00	2.920046e+02
2.420000e-06	7.589818e-07	4.257004e-09	5.436719e+00	2.773967e+02
2.430000e-06	6.075923e-07	4.031642e-09	4.352290e+00	2.623006e+02
2.440000e-06	4.560204e-07	3.796092e-09	3.266553e+00	2.467096e+02
2.450000e-06	3.043417e-07	3.547534e-09	2.180052e+00	2.306070e+02
2.460000e-06	1.525387e-07	3.288847e-09	1.092661e+00	2.139627e+02
2.470000e-06	6.618002e-10	3.022817e-09	4.740590e-03	1.967315e+02
2.480000e-06	-1.512228e-07	2.748598e-09	-1.083235e+00	1.788534e+02
2.490000e-06	-3.030620e-07	2.463095e-09	-2.170886e+00	1.602569e+02
2.500000e-06	-4.548197e-07	2.164607e-09	-3.257953e+00	1.408635e+02
2.510000e-06	-6.064504e-07	1.854123e-09	-4.344110e+00	1.205961e+02
2.520000e-06	-7.579178e-07	1.533250e-09	-5.429097e+00	9.938772e+01
2.530000e-06	-9.091720e-07	1.200808e-09	-6.512558e+00	7.719174e+01
2.540000e-06	-1.060105e-06	8.541214e-10	-7.593715e+00	5.399141e+01
2.550000e-06	-1.210639e-06	4.879424e-10	-8.672015e+00	2.980819e+01
2.560000e-06	-1.360710e-06	1.021708e-10	-9.747001e+00	4.707493e+00
2.570000e-06	-1.510308e-06	-2.946904e-10	-1.081860e+01	-2.119879e+01
2.580000e-06	-1.659438e-06	-6.993623e-10	-1.188685e+01	-4.775365e+01
2.590000e-06	-1.808031e-06	-1.111709e-09	-1.295124e+01	-7.476021e+01
2.600000e-06	-1.955831e-06	-1.531086e-09	-1.400996e+01	-1.019906e+02
2.610000e-06	-2.102741e-06	-1.954209e-09	-1.506230e+01	-1.291979e+02
2.620000e-06	-2.248934e-06	-2.373249e-09	-1.610951e+01	-1.561295e+02
2.630000e-06	-2.394332e-06	-2.779173e-09	-1.715102e+01	-1.825420e+02
2.640000e-06	-2.538767e-06	-3.170210e-09	-1.818563e+01	-2.082144e+02
2.650000e-06	-2.682263e-06	-3.547019e-09	-1.921351e+01	-2.329598e+02
2.660000e-06	-2.824730e-06	-3.907642e-09	-2.023404e+01	-2.566340e+02
2.670000e-06	-2.966063e-06	-4.249431e-09	-2.124642e+01	-2.791408e+02
2.680000e-06	-3.106198e-06	-4.569779e-09	-2.225024e+01	-3.004323e+02
2.690000e-06	-3.245061e-06	-4.871731e-09	-2.324494e+01	-3.205061e+02
2.700000e-06	-3.382687e-06	-5.159628e-09	-2.423078e+01	-3.393988e+02
2.710000e-06	-3.519039e-06	-5.434612e-09	-2.520749e+01	-3.571774e+02
2.720000e-06	-3.654109e-06	-5.696131e-09	-2.617502e+01	-3.739283e+02
2.730000e-06	-3.787852e-06	-5.942708e-09	-2.713304e+01	-3.897474e+02
2.740000e-06	-3.920184e-06	-6.174020e-09	-2.808096e+01	-4.047300e+02
2.750000e-06	-4.051118e-06	-6.394431e-09	-2.901886e+01	-4.189630e+02
2.760000e-06	-4.180708e-06	-6.606403e-09	-2.994714e+01	-4.325192e+02
2.770000e-06	-4.308853e-06	-6.808369e-09	-3.086506e+01	-4.454544e+02
2.780000e-06	-4.435519e-06	-6.998684e-09	-3.177240e+01	-4.578076e+02
2.790000e-06	-4.560752e-06	-7.174943e-09	-3.266946e+01	-4.696025e+02
2.800000e-06	-4.684304e-06	-7.339813e-09	-3.355449e+01	-4.808518e+02
2.810000e-06	-4.806106e-06	-7.498480e-09	-3.442697e+01	-4.915615e+02
2.820000e-06	-4.926200e-06	-7.653056e-09	-3.528723e+01	-5.017356e+02
2.830000e-06	-5.044419e-06	-7.801324e-09	-3.613405e+01	-5.113807e+02
2.840000e-06	-5.160603e-06	-7.941464e-09	-3.696630e+01	-5.205086e+02
2.850000e-06	-5.274680e-06	-8.073250e-09	-3.778345e+01	-5.291383e+02
2.860000e-06	-5.386651e-06	-8.199757e-09	-3.858552e+01	-5.372957e+02
2.870000e-06	-5.496578e-06	-8.320554e-09	-3.937294e+01	-5.450129e+02
2.880000e-06	-5.604512e-06	-8.432883e-09	-4.014610e+01	-5.523253e+02
2.890000e-06	-5.710544e-06	-8.538155e-09	-4.090562e+01	-5.592694e+02
2.900000e-06	-5.814586e-06	-8.636834e-09	-4.165090e+01	-5.658797e+02
2.910000e-06	-5.916421e-06	-8.731960e-09	-4.238036e+01	-5.721862e+02
2.920000e-06	-6.015998e-06	-8.824427e-09	-4.309364e+01	-5.782134e+02
2.930000e-06	-6.113468e-06	-8.913811e-09	-4.379184e+01	-5.839790e+02
2.940000e-06	-6.208851e-06	-9.000844e-09	-4.447508e+01	-5.894946e+02
