# Temperatura_=_67.94
# Concentracion g/m^3_=_10000.0
# C_Vs_to_Am_M_A/Vsm_=_65563218390.804596
# pendiente_HvsI_1/m_=_3716.3
# ordenada_HvsI_A/m_=_1297.0
# frecuencia_Hz_=_302620.4814501826

Tiempo_(s)	Campo_(V.s)	Magnetizacion_(V.s)	Campo_(kA/m)	Magnetizacion_(A/m)
0.000000e+00	-7.853790e-06	-1.126530e-08	-5.681478e+01	-7.371662e+02
1.000000e-08	-7.849139e-06	-1.126332e-08	-5.678114e+01	-7.366985e+02
2.000000e-08	-7.841993e-06	-1.125384e-08	-5.672945e+01	-7.361014e+02
3.000000e-08	-7.832125e-06	-1.124091e-08	-5.665806e+01	-7.353937e+02
4.000000e-08	-7.819406e-06	-1.122831e-08	-5.656605e+01	-7.345953e+02
5.000000e-08	-7.803878e-06	-1.121684e-08	-5.645372e+01	-7.337246e+02
6.000000e-08	-7.785735e-06	-1.120473e-08	-5.632247e+01	-7.327969e+02
7.000000e-08	-7.765309e-06	-1.119310e-08	-5.617471e+01	-7.318231e+02
8.000000e-08	-7.742314e-06	-1.119260e-08	-5.600836e+01	-7.308087e+02
9.000000e-08	-7.716185e-06	-1.120114e-08	-5.581934e+01	-7.297537e+02
1.000000e-07	-7.686943e-06	-1.118892e-08	-5.560781e+01	-7.286530e+02
1.100000e-07	-7.654927e-06	-1.114367e-08	-5.537620e+01	-7.274973e+02
1.200000e-07	-7.620201e-06	-1.109992e-08	-5.512499e+01	-7.262744e+02
1.300000e-07	-7.582958e-06	-1.106169e-08	-5.485557e+01	-7.249702e+02
1.400000e-07	-7.543594e-06	-1.102109e-08	-5.457081e+01	-7.235699e+02
1.500000e-07	-7.502077e-06	-1.100168e-08	-5.427047e+01	-7.220590e+02
1.600000e-07	-7.458035e-06	-1.100158e-08	-5.395187e+01	-7.204243e+02
1.700000e-07	-7.411301e-06	-1.098935e-08	-5.361379e+01	-7.186536e+02
1.800000e-07	-7.361803e-06	-1.092004e-08	-5.325572e+01	-7.167367e+02
1.900000e-07	-7.309345e-06	-1.088110e-08	-5.287623e+01	-7.146649e+02
2.000000e-07	-7.254022e-06	-1.082678e-08	-5.247603e+01	-7.124313e+02
2.100000e-07	-7.196059e-06	-1.076471e-08	-5.205672e+01	-7.100310e+02
2.200000e-07	-7.135486e-06	-1.076841e-08	-5.161853e+01	-7.074606e+02
2.300000e-07	-7.072301e-06	-1.073834e-08	-5.116145e+01	-7.047193e+02
2.400000e-07	-7.006374e-06	-1.069716e-08	-5.068453e+01	-7.018085e+02
2.500000e-07	-6.937778e-06	-1.064889e-08	-5.018830e+01	-6.987319e+02
2.600000e-07	-6.866614e-06	-1.060127e-08	-4.967350e+01	-6.954956e+02
2.700000e-07	-6.792733e-06	-1.054532e-08	-4.913904e+01	-6.921078e+02
2.800000e-07	-6.716108e-06	-1.049457e-08	-4.858472e+01	-6.885780e+02
2.900000e-07	-6.636756e-06	-1.045512e-08	-4.801069e+01	-6.849161e+02
3.000000e-07	-6.554814e-06	-1.038908e-08	-4.741792e+01	-6.811313e+02
3.100000e-07	-6.470594e-06	-1.032949e-08	-4.680866e+01	-6.772310e+02
3.200000e-07	-6.384209e-06	-1.026453e-08	-4.618375e+01	-6.732191e+02
3.300000e-07	-6.295584e-06	-1.018974e-08	-4.554263e+01	-6.690959e+02
3.400000e-07	-6.204679e-06	-1.012097e-08	-4.488502e+01	-6.648571e+02
3.500000e-07	-6.111520e-06	-1.005747e-08	-4.421110e+01	-6.604941e+02
3.600000e-07	-6.016084e-06	-1.000212e-08	-4.352071e+01	-6.559949e+02
3.700000e-07	-5.918406e-06	-9.931389e-09	-4.281410e+01	-6.513450e+02
3.800000e-07	-5.818535e-06	-9.853366e-09	-4.209163e+01	-6.465294e+02
3.900000e-07	-5.716591e-06	-9.777535e-09	-4.135416e+01	-6.415339e+02
4.000000e-07	-5.612725e-06	-9.694762e-09	-4.060279e+01	-6.363476e+02
4.100000e-07	-5.506904e-06	-9.602961e-09	-3.983727e+01	-6.309633e+02
4.200000e-07	-5.399043e-06	-9.523202e-09	-3.905700e+01	-6.253788e+02
4.300000e-07	-5.289309e-06	-9.460226e-09	-3.826318e+01	-6.195967e+02
4.400000e-07	-5.177707e-06	-9.375805e-09	-3.745584e+01	-6.136235e+02
4.500000e-07	-5.064060e-06	-9.270641e-09	-3.663371e+01	-6.074680e+02
4.600000e-07	-4.948399e-06	-9.168569e-09	-3.579701e+01	-6.011396e+02
4.700000e-07	-4.830889e-06	-9.068663e-09	-3.494694e+01	-5.946460e+02
4.800000e-07	-4.711586e-06	-8.961357e-09	-3.408390e+01	-5.879911e+02
4.900000e-07	-4.590536e-06	-8.858001e-09	-3.320821e+01	-5.811736e+02
5.000000e-07	-4.467848e-06	-8.759223e-09	-3.232068e+01	-5.741862e+02
5.100000e-07	-4.343503e-06	-8.648041e-09	-3.142116e+01	-5.670156e+02
5.200000e-07	-4.217573e-06	-8.527543e-09	-3.051017e+01	-5.596440e+02
5.300000e-07	-4.090113e-06	-8.409923e-09	-2.958812e+01	-5.520506e+02
5.400000e-07	-3.961229e-06	-8.293839e-09	-2.865577e+01	-5.442141e+02
5.500000e-07	-3.830931e-06	-8.169937e-09	-2.771318e+01	-5.361151e+02
5.600000e-07	-3.699038e-06	-8.038006e-09	-2.675906e+01	-5.277385e+02
5.700000e-07	-3.565737e-06	-7.902816e-09	-2.579475e+01	-5.190749e+02
5.800000e-07	-3.431152e-06	-7.761685e-09	-2.482116e+01	-5.101211e+02
5.900000e-07	-3.295211e-06	-7.616528e-09	-2.383775e+01	-5.008796e+02
6.000000e-07	-3.158046e-06	-7.472571e-09	-2.284549e+01	-4.913570e+02
6.100000e-07	-3.019661e-06	-7.328387e-09	-2.184441e+01	-4.815614e+02
6.200000e-07	-2.879896e-06	-7.179475e-09	-2.083334e+01	-4.714995e+02
6.300000e-07	-2.738798e-06	-7.027609e-09	-1.981263e+01	-4.611733e+02
6.400000e-07	-2.596599e-06	-6.871832e-09	-1.878396e+01	-4.505778e+02
6.500000e-07	-2.453495e-06	-6.703371e-09	-1.774873e+01	-4.396996e+02
6.600000e-07	-2.309520e-06	-6.524113e-09	-1.670721e+01	-4.285160e+02
6.700000e-07	-2.164615e-06	-6.340076e-09	-1.565895e+01	-4.169969e+02
6.800000e-07	-2.018884e-06	-6.151751e-09	-1.460473e+01	-4.051068e+02
6.900000e-07	-1.872520e-06	-5.960238e-09	-1.354592e+01	-3.928083e+02
7.000000e-07	-1.725587e-06	-5.766494e-09	-1.248300e+01	-3.800661e+02
7.100000e-07	-1.578119e-06	-5.568971e-09	-1.141621e+01	-3.668506e+02
7.200000e-07	-1.430189e-06	-5.361974e-09	-1.034607e+01	-3.531406e+02
7.300000e-07	-1.281823e-06	-5.146121e-09	-9.272785e+00	-3.389249e+02
7.400000e-07	-1.133062e-06	-4.926045e-09	-8.196637e+00	-3.242013e+02
7.500000e-07	-9.839889e-07	-4.699243e-09	-7.118234e+00	-3.089742e+02
7.600000e-07	-8.346391e-07	-4.461952e-09	-6.037829e+00	-2.932502e+02
7.700000e-07	-6.850223e-07	-4.214424e-09	-4.955492e+00	-2.770322e+02
7.800000e-07	-5.351648e-07	-3.958514e-09	-3.871414e+00	-2.603130e+02
7.900000e-07	-3.851233e-07	-3.694389e-09	-2.786005e+00	-2.430694e+02
8.000000e-07	-2.349330e-07	-3.421554e-09	-1.699519e+00	-2.252584e+02
8.100000e-07	-8.463789e-08	-3.138714e-09	-6.122756e-01	-2.068140e+02
8.200000e-07	6.567517e-08	-2.844091e-09	4.750981e-01	-1.876497e+02
8.300000e-07	2.160054e-07	-2.535407e-09	1.562596e+00	-1.676621e+02
8.400000e-07	3.663109e-07	-2.212035e-09	2.649915e+00	-1.467393e+02
8.500000e-07	5.165084e-07	-1.875051e-09	3.736452e+00	-1.247723e+02
8.600000e-07	6.666353e-07	-1.525294e-09	4.822479e+00	-1.016669e+02
8.700000e-07	8.166068e-07	-1.158180e-09	5.907383e+00	-7.735836e+01
8.800000e-07	9.662715e-07	-7.728252e-10	6.990065e+00	-5.182317e+01
8.900000e-07	1.115619e-06	-3.717888e-10	8.070453e+00	-2.508982e+01
9.000000e-07	1.264630e-06	4.492509e-11	9.148409e+00	2.754673e+00
9.100000e-07	1.413249e-06	4.785769e-10	1.022353e+01	3.156286e+01
9.200000e-07	1.561361e-06	9.309057e-10	1.129498e+01	6.113006e+01
9.300000e-07	1.708895e-06	1.396164e-09	1.236225e+01	9.120282e+01
9.400000e-07	1.855798e-06	1.866521e-09	1.342495e+01	1.214918e+02
9.500000e-07	2.001992e-06	2.333421e-09	1.448253e+01	1.516883e+02
9.600000e-07	2.147464e-06	2.790906e-09	1.553488e+01	1.814824e+02
9.700000e-07	2.292121e-06	3.236301e-09	1.658134e+01	2.105815e+02
9.800000e-07	2.435883e-06	3.664226e-09	1.762132e+01	2.387272e+02
9.900000e-07	2.578716e-06	4.069820e-09	1.865458e+01	2.657092e+02
1.000000e-06	2.720590e-06	4.451360e-09	1.968091e+01	2.913743e+02
1.010000e-06	2.861425e-06	4.812650e-09	2.069972e+01	3.156313e+02
1.020000e-06	3.001022e-06	5.154646e-09	2.170957e+01	3.384493e+02
1.030000e-06	3.139317e-06	5.477636e-09	2.271001e+01	3.598526e+02
1.040000e-06	3.276397e-06	5.782729e-09	2.370165e+01	3.799105e+02
1.050000e-06	3.412257e-06	6.070399e-09	2.468447e+01	3.987248e+02
1.060000e-06	3.546849e-06	6.342097e-09	2.565811e+01	4.164164e+02
1.070000e-06	3.680175e-06	6.598651e-09	2.662260e+01	4.331120e+02
1.080000e-06	3.812191e-06	6.842387e-09	2.757761e+01	4.489319e+02
1.090000e-06	3.942795e-06	7.073008e-09	2.852242e+01	4.639817e+02
1.100000e-06	4.071975e-06	7.290873e-09	2.945691e+01	4.783462e+02
1.110000e-06	4.199739e-06	7.497035e-09	3.038116e+01	4.920876e+02
1.120000e-06	4.326057e-06	7.692201e-09	3.129496e+01	5.052462e+02
1.130000e-06	4.450952e-06	7.879862e-09	3.219845e+01	5.178445e+02
1.140000e-06	4.574304e-06	8.061186e-09	3.309079e+01	5.298922e+02
1.150000e-06	4.695957e-06	8.233476e-09	3.397083e+01	5.413929e+02
1.160000e-06	4.815961e-06	8.396876e-09	3.483895e+01	5.523492e+02
1.170000e-06	4.934280e-06	8.553234e-09	3.569487e+01	5.627679e+02
1.180000e-06	5.050762e-06	8.704187e-09	3.653751e+01	5.726629e+02
1.190000e-06	5.165248e-06	8.847489e-09	3.736571e+01	5.820562e+02
1.200000e-06	5.277723e-06	8.984800e-09	3.817936e+01	5.909775e+02
1.210000e-06	5.388279e-06	9.117163e-09	3.897913e+01	5.994617e+02
1.220000e-06	5.496985e-06	9.245786e-09	3.976552e+01	6.075459e+02
1.230000e-06	5.603788e-06	9.370284e-09	4.053813e+01	6.152659e+02
1.240000e-06	5.708504e-06	9.485762e-09	4.129566e+01	6.226533e+02
1.250000e-06	5.811083e-06	9.592960e-09	4.203772e+01	6.297331e+02
1.260000e-06	5.911515e-06	9.692568e-09	4.276425e+01	6.365226e+02
1.270000e-06	6.009677e-06	9.787929e-09	4.347436e+01	6.430320e+02
1.280000e-06	6.105574e-06	9.878809e-09	4.416809e+01	6.492655e+02
1.290000e-06	6.199363e-06	9.964466e-09	4.484657e+01	6.552236e+02
1.300000e-06	6.290974e-06	1.004694e-08	4.550928e+01	6.609060e+02
1.310000e-06	6.380315e-06	1.012821e-08	4.615558e+01	6.663142e+02
1.320000e-06	6.467403e-06	1.020823e-08	4.678558e+01	6.714532e+02
1.330000e-06	6.552230e-06	1.028493e-08	4.739922e+01	6.763331e+02
1.340000e-06	6.634699e-06	1.035909e-08	4.799581e+01	6.809688e+02
1.350000e-06	6.714704e-06	1.042928e-08	4.857457e+01	6.853790e+02
1.360000e-06	6.792207e-06	1.049300e-08	4.913523e+01	6.895846e+02
1.370000e-06	6.867102e-06	1.055306e-08	4.967702e+01	6.936060e+02
1.380000e-06	6.939436e-06	1.061224e-08	5.020029e+01	6.974608e+02
1.390000e-06	7.009305e-06	1.066860e-08	5.070573e+01	7.011611e+02
1.400000e-06	7.076704e-06	1.072023e-08	5.119330e+01	7.047130e+02
1.410000e-06	7.141600e-06	1.076918e-08	5.166276e+01	7.081151e+02
1.420000e-06	7.204009e-06	1.081829e-08	5.211423e+01	7.113598e+02
1.430000e-06	7.263981e-06	1.086553e-08	5.254807e+01	7.144347e+02
1.440000e-06	7.321385e-06	1.090790e-08	5.296334e+01	7.173249e+02
1.450000e-06	7.376116e-06	1.094609e-08	5.335926e+01	7.200159e+02
1.460000e-06	7.427952e-06	1.098286e-08	5.373425e+01	7.224961e+02
1.470000e-06	7.476785e-06	1.101750e-08	5.408751e+01	7.247595e+02
1.480000e-06	7.522836e-06	1.104877e-08	5.442064e+01	7.268067e+02
1.490000e-06	7.566285e-06	1.107712e-08	5.473496e+01	7.286456e+02
1.500000e-06	7.607032e-06	1.110265e-08	5.502972e+01	7.302906e+02
1.510000e-06	7.645032e-06	1.112507e-08	5.530462e+01	7.317612e+02
1.520000e-06	7.680407e-06	1.114370e-08	5.556052e+01	7.330795e+02
1.530000e-06	7.713035e-06	1.116237e-08	5.579656e+01	7.342672e+02
1.540000e-06	7.742934e-06	1.118233e-08	5.601285e+01	7.353434e+02
1.550000e-06	7.770101e-06	1.120056e-08	5.620937e+01	7.363220e+02
1.560000e-06	7.794345e-06	1.121467e-08	5.638475e+01	7.372104e+02
1.570000e-06	7.815771e-06	1.122527e-08	5.653975e+01	7.380090e+02
1.580000e-06	7.834518e-06	1.123557e-08	5.667537e+01	7.387113e+02
1.590000e-06	7.850372e-06	1.124447e-08	5.679006e+01	7.393060e+02
1.600000e-06	7.863164e-06	1.124948e-08	5.688260e+01	7.397786e+02
1.610000e-06	7.872916e-06	1.125275e-08	5.695314e+01	7.401144e+02
1.620000e-06	7.879752e-06	1.125766e-08	5.700260e+01	7.403004e+02
1.630000e-06	7.883853e-06	1.126207e-08	5.703226e+01	7.403281e+02
1.640000e-06	7.885130e-06	1.126264e-08	5.704150e+01	7.401945e+02
1.650000e-06	7.883639e-06	1.125819e-08	5.703072e+01	7.399033e+02
1.660000e-06	7.879578e-06	1.125246e-08	5.700133e+01	7.394642e+02
1.670000e-06	7.872870e-06	1.124491e-08	5.695281e+01	7.388920e+02
1.680000e-06	7.863573e-06	1.123533e-08	5.688556e+01	7.382052e+02
1.690000e-06	7.851573e-06	1.122578e-08	5.679875e+01	7.374233e+02
1.700000e-06	7.836709e-06	1.121741e-08	5.669122e+01	7.365653e+02
1.710000e-06	7.819345e-06	1.120555e-08	5.656561e+01	7.356475e+02
1.720000e-06	7.799820e-06	1.117523e-08	5.642437e+01	7.346817e+02
1.730000e-06	7.777743e-06	1.112728e-08	5.626465e+01	7.336745e+02
1.740000e-06	7.752462e-06	1.108250e-08	5.608177e+01	7.326272e+02
1.750000e-06	7.723619e-06	1.107841e-08	5.587312e+01	7.315357e+02
1.760000e-06	7.691468e-06	1.108491e-08	5.564054e+01	7.303915e+02
1.770000e-06	7.656835e-06	1.108570e-08	5.539000e+01	7.291829e+02
1.780000e-06	7.619993e-06	1.108906e-08	5.512349e+01	7.278960e+02
1.790000e-06	7.580958e-06	1.107028e-08	5.484110e+01	7.265162e+02
1.800000e-06	7.539870e-06	1.104936e-08	5.454387e+01	7.250290e+02
1.810000e-06	7.496376e-06	1.101044e-08	5.422923e+01	7.234206e+02
1.820000e-06	7.450236e-06	1.101603e-08	5.389545e+01	7.216787e+02
1.830000e-06	7.401459e-06	1.101316e-08	5.354259e+01	7.197926e+02
1.840000e-06	7.349760e-06	1.100432e-08	5.316860e+01	7.177534e+02
1.850000e-06	7.295162e-06	1.099623e-08	5.277363e+01	7.155537e+02
1.860000e-06	7.237852e-06	1.091450e-08	5.235905e+01	7.131881e+02
1.870000e-06	7.177971e-06	1.084713e-08	5.192587e+01	7.106531e+02
1.880000e-06	7.115465e-06	1.078372e-08	5.147370e+01	7.079472e+02
1.890000e-06	7.050193e-06	1.074517e-08	5.100152e+01	7.050712e+02
1.900000e-06	6.982232e-06	1.071732e-08	5.050988e+01	7.020284e+02
1.910000e-06	6.911492e-06	1.069007e-08	4.999815e+01	6.988244e+02
1.920000e-06	6.838072e-06	1.064515e-08	4.946702e+01	6.954670e+02
1.930000e-06	6.761948e-06	1.054874e-08	4.891633e+01	6.919655e+02
1.940000e-06	6.683022e-06	1.048795e-08	4.834538e+01	6.883298e+02
1.950000e-06	6.601631e-06	1.043564e-08	4.775659e+01	6.845694e+02
1.960000e-06	6.517922e-06	1.039337e-08	4.715103e+01	6.806921e+02
1.970000e-06	6.431755e-06	1.035039e-08	4.652770e+01	6.767027e+02
1.980000e-06	6.343166e-06	1.029488e-08	4.588684e+01	6.726023e+02
1.990000e-06	6.252447e-06	1.023222e-08	4.523058e+01	6.683876e+02
2.000000e-06	6.159607e-06	1.013295e-08	4.455896e+01	6.640509e+02
2.010000e-06	6.064372e-06	1.006594e-08	4.387003e+01	6.595807e+02
2.020000e-06	5.966911e-06	1.000069e-08	4.316499e+01	6.549631e+02
2.030000e-06	5.867441e-06	9.929444e-09	4.244542e+01	6.501830e+02
2.040000e-06	5.765909e-06	9.852490e-09	4.171093e+01	6.452258e+02
2.050000e-06	5.662273e-06	9.785950e-09	4.096122e+01	6.400799e+02
2.060000e-06	5.556684e-06	9.710042e-09	4.019738e+01	6.347371e+02
2.070000e-06	5.449235e-06	9.600376e-09	3.942009e+01	6.291942e+02
2.080000e-06	5.339928e-06	9.503016e-09	3.862936e+01	6.234528e+02
2.090000e-06	5.228662e-06	9.415550e-09	3.782445e+01	6.175185e+02
2.100000e-06	5.115413e-06	9.331680e-09	3.700521e+01	6.113999e+02
2.110000e-06	5.000232e-06	9.242135e-09	3.617197e+01	6.051066e+02
2.120000e-06	4.883129e-06	9.161089e-09	3.532485e+01	5.986467e+02
2.130000e-06	4.764085e-06	9.060978e-09	3.446367e+01	5.920250e+02
2.140000e-06	4.643151e-06	8.941366e-09	3.358883e+01	5.852415e+02
2.150000e-06	4.520526e-06	8.821388e-09	3.270176e+01	5.782901e+02
2.160000e-06	4.396297e-06	8.717589e-09	3.180308e+01	5.711589e+02
2.170000e-06	4.270533e-06	8.618684e-09	3.089329e+01	5.638308e+02
2.180000e-06	4.143140e-06	8.508334e-09	2.997173e+01	5.562855e+02
2.190000e-06	4.014196e-06	8.392291e-09	2.903893e+01	5.485015e+02
2.200000e-06	3.883820e-06	8.264302e-09	2.809579e+01	5.404590e+02
2.210000e-06	3.752010e-06	8.131198e-09	2.714227e+01	5.321416e+02
2.220000e-06	3.618811e-06	8.002908e-09	2.617870e+01	5.235387e+02
2.230000e-06	3.484235e-06	7.879169e-09	2.520516e+01	5.146457e+02
2.240000e-06	3.348293e-06	7.743812e-09	2.422175e+01	5.054641e+02
2.250000e-06	3.211151e-06	7.599511e-09	2.322966e+01	4.959998e+02
2.260000e-06	3.072886e-06	7.452334e-09	2.222944e+01	4.862608e+02
2.270000e-06	2.933344e-06	7.299572e-09	2.121999e+01	4.762543e+02
2.280000e-06	2.792630e-06	7.136785e-09	2.020205e+01	4.659836e+02
2.290000e-06	2.650949e-06	6.971979e-09	1.917712e+01	4.554455e+02
2.300000e-06	2.508274e-06	6.806420e-09	1.814500e+01	4.446281e+02
2.310000e-06	2.364550e-06	6.639692e-09	1.710530e+01	4.335110e+02
2.320000e-06	2.219944e-06	6.472126e-09	1.605920e+01	4.220654e+02
2.330000e-06	2.074685e-06	6.298364e-09	1.500839e+01	4.102567e+02
2.340000e-06	1.928844e-06	6.111738e-09	1.395337e+01	3.980475e+02
2.350000e-06	1.782318e-06	5.910529e-09	1.289340e+01	3.854019e+02
2.360000e-06	1.635056e-06	5.704126e-09	1.182809e+01	3.722886e+02
2.370000e-06	1.487261e-06	5.496940e-09	1.075894e+01	3.586846e+02
2.380000e-06	1.339121e-06	5.288425e-09	9.687278e+00	3.445764e+02
2.390000e-06	1.190586e-06	5.070810e-09	8.612771e+00	3.299602e+02
2.400000e-06	1.041662e-06	4.840200e-09	7.535446e+00	3.148392e+02
2.410000e-06	8.924281e-07	4.599148e-09	6.455878e+00	2.992200e+02
2.420000e-06	7.429159e-07	4.353755e-09	5.374298e+00	2.831067e+02
2.430000e-06	5.931967e-07	4.107229e-09	4.291220e+00	2.664949e+02
2.440000e-06	4.432987e-07	3.850375e-09	3.206849e+00	2.493653e+02
2.450000e-06	2.932363e-07	3.575651e-09	2.121289e+00	2.316794e+02
2.460000e-06	1.430447e-07	3.287641e-09	1.034794e+00	2.133761e+02
2.470000e-06	-7.230012e-09	2.992634e-09	-5.230234e-02	1.943730e+02
2.480000e-06	-1.575670e-07	2.688968e-09	-1.139849e+00	1.745698e+02
2.490000e-06	-3.078932e-07	2.371077e-09	-2.227318e+00	1.538557e+02
2.500000e-06	-4.581039e-07	2.036940e-09	-3.313951e+00	1.321197e+02
2.510000e-06	-6.081498e-07	1.687043e-09	-4.399392e+00	1.092637e+02
2.520000e-06	-7.580426e-07	1.321875e-09	-5.483725e+00	8.521525e+01
2.530000e-06	-9.077275e-07	9.449358e-10	-6.566555e+00	5.994114e+01
2.540000e-06	-1.057115e-06	5.536035e-10	-7.647234e+00	3.345800e+01
2.550000e-06	-1.206161e-06	1.384435e-10	-8.725442e+00	5.839976e+00
2.560000e-06	-1.354771e-06	-3.020757e-10	-9.800492e+00	-2.277835e+01
2.570000e-06	-1.502926e-06	-7.585520e-10	-1.087226e+01	-5.220402e+01
2.580000e-06	-1.650595e-06	-1.220621e-09	-1.194051e+01	-8.219308e+01
2.590000e-06	-1.797666e-06	-1.685465e-09	-1.300442e+01	-1.124626e+02
2.600000e-06	-1.943996e-06	-2.151287e-09	-1.406298e+01	-1.427066e+02
2.610000e-06	-2.089551e-06	-2.613960e-09	-1.511594e+01	-1.726137e+02
2.620000e-06	-2.234406e-06	-3.065712e-09	-1.616382e+01	-2.018861e+02
2.630000e-06	-2.378435e-06	-3.498694e-09	-1.720574e+01	-2.302569e+02
2.640000e-06	-2.521417e-06	-3.910768e-09	-1.824008e+01	-2.575044e+02
2.650000e-06	-2.663307e-06	-4.302215e-09	-1.926652e+01	-2.834628e+02
2.660000e-06	-2.804128e-06	-4.675433e-09	-2.028523e+01	-3.080274e+02
2.670000e-06	-2.943872e-06	-5.028140e-09	-2.129614e+01	-3.311547e+02
2.680000e-06	-3.082479e-06	-5.357208e-09	-2.229884e+01	-3.528580e+02
2.690000e-06	-3.219914e-06	-5.665548e-09	-2.329305e+01	-3.731978e+02
2.700000e-06	-3.356129e-06	-5.957260e-09	-2.427844e+01	-3.922701e+02
2.710000e-06	-3.491033e-06	-6.235048e-09	-2.525434e+01	-4.101930e+02
2.720000e-06	-3.624661e-06	-6.499304e-09	-2.622102e+01	-4.270927e+02
2.730000e-06	-3.757060e-06	-6.749013e-09	-2.717879e+01	-4.430920e+02
2.740000e-06	-3.888147e-06	-6.984014e-09	-2.812709e+01	-4.583002e+02
2.750000e-06	-4.017879e-06	-7.207496e-09	-2.906558e+01	-4.728068e+02
2.760000e-06	-4.146283e-06	-7.423744e-09	-2.999446e+01	-4.866789e+02
2.770000e-06	-4.273172e-06	-7.632184e-09	-3.091238e+01	-4.999613e+02
2.780000e-06	-4.398524e-06	-7.829517e-09	-3.181918e+01	-5.126797e+02
2.790000e-06	-4.522427e-06	-8.011489e-09	-3.271551e+01	-5.248463e+02
2.800000e-06	-4.644708e-06	-8.180938e-09	-3.360010e+01	-5.364653e+02
2.810000e-06	-4.765293e-06	-8.344907e-09	-3.447242e+01	-5.475391e+02
2.820000e-06	-4.884039e-06	-8.504235e-09	-3.533143e+01	-5.580734e+02
2.830000e-06	-5.000799e-06	-8.658869e-09	-3.617607e+01	-5.680803e+02
2.840000e-06	-5.115587e-06	-8.806342e-09	-3.700646e+01	-5.775802e+02
2.850000e-06	-5.228351e-06	-8.944666e-09	-3.782220e+01	-5.866011e+02
2.860000e-06	-5.339077e-06	-9.076857e-09	-3.862320e+01	-5.951771e+02
2.870000e-06	-5.447866e-06	-9.204160e-09	-3.941019e+01	-6.033451e+02
2.880000e-06	-5.554786e-06	-9.324347e-09	-4.018365e+01	-6.111416e+02
2.890000e-06	-5.659741e-06	-9.438924e-09	-4.094290e+01	-6.185992e+02
2.900000e-06	-5.762574e-06	-9.549226e-09	-4.168680e+01	-6.257444e+02
2.910000e-06	-5.863242e-06	-9.654403e-09	-4.241504e+01	-6.325964e+02
2.920000e-06	-5.961773e-06	-9.754992e-09	-4.312782e+01	-6.391665e+02
2.930000e-06	-6.058221e-06	-9.851234e-09	-4.382553e+01	-6.454603e+02
2.940000e-06	-6.152503e-06	-9.942900e-09	-4.450757e+01	-6.514787e+02
