# Temperatura_=_58.99
# Concentracion g/m^3_=_10000.0
# C_Vs_to_Am_M_A/Vsm_=_65563218390.804596
# pendiente_HvsI_1/m_=_3716.3
# ordenada_HvsI_A/m_=_1297.0
# frecuencia_Hz_=_302608.1020167965

Tiempo_(s)	Campo_(V.s)	Magnetizacion_(V.s)	Campo_(kA/m)	Magnetizacion_(A/m)
0.000000e+00	-7.918620e-06	-1.091610e-08	-5.683429e+01	-7.159810e+02
1.000000e-08	-7.916232e-06	-1.091880e-08	-5.681715e+01	-7.156500e+02
2.000000e-08	-7.911118e-06	-1.091425e-08	-5.678045e+01	-7.152021e+02
3.000000e-08	-7.903427e-06	-1.090682e-08	-5.672525e+01	-7.146531e+02
4.000000e-08	-7.892963e-06	-1.089840e-08	-5.665015e+01	-7.140189e+02
5.000000e-08	-7.879587e-06	-1.088839e-08	-5.655414e+01	-7.133139e+02
6.000000e-08	-7.863301e-06	-1.087513e-08	-5.643725e+01	-7.125489e+02
7.000000e-08	-7.844505e-06	-1.085980e-08	-5.630235e+01	-7.117305e+02
8.000000e-08	-7.823517e-06	-1.084260e-08	-5.615171e+01	-7.108604e+02
9.000000e-08	-7.799866e-06	-1.088350e-08	-5.598196e+01	-7.099357e+02
1.000000e-07	-7.773037e-06	-1.089538e-08	-5.578940e+01	-7.089498e+02
1.100000e-07	-7.743131e-06	-1.084071e-08	-5.557476e+01	-7.078934e+02
1.200000e-07	-7.710402e-06	-1.079872e-08	-5.533985e+01	-7.067564e+02
1.300000e-07	-7.674920e-06	-1.077535e-08	-5.508518e+01	-7.055287e+02
1.400000e-07	-7.637068e-06	-1.074247e-08	-5.481351e+01	-7.042017e+02
1.500000e-07	-7.597127e-06	-1.066914e-08	-5.452684e+01	-7.027686e+02
1.600000e-07	-7.554867e-06	-1.066738e-08	-5.422353e+01	-7.012247e+02
1.700000e-07	-7.509992e-06	-1.068568e-08	-5.390145e+01	-6.995668e+02
1.800000e-07	-7.462453e-06	-1.059894e-08	-5.356024e+01	-6.977929e+02
1.900000e-07	-7.411997e-06	-1.060629e-08	-5.319811e+01	-6.959008e+02
2.000000e-07	-7.358528e-06	-1.059677e-08	-5.281435e+01	-6.938881e+02
2.100000e-07	-7.302325e-06	-1.051481e-08	-5.241096e+01	-6.917510e+02
2.200000e-07	-7.243428e-06	-1.049419e-08	-5.198824e+01	-6.894845e+02
2.300000e-07	-7.181921e-06	-1.046691e-08	-5.154679e+01	-6.870827e+02
2.400000e-07	-7.117831e-06	-1.044838e-08	-5.108679e+01	-6.845393e+02
2.500000e-07	-7.050997e-06	-1.037708e-08	-5.060710e+01	-6.818488e+02
2.600000e-07	-6.981491e-06	-1.034158e-08	-5.010824e+01	-6.790072e+02
2.700000e-07	-6.909270e-06	-1.030490e-08	-4.958989e+01	-6.760129e+02
2.800000e-07	-6.834237e-06	-1.024060e-08	-4.905135e+01	-6.728677e+02
2.900000e-07	-6.756436e-06	-1.019547e-08	-4.849295e+01	-6.695760e+02
3.000000e-07	-6.675897e-06	-1.015544e-08	-4.791490e+01	-6.661450e+02
3.100000e-07	-6.592930e-06	-1.012264e-08	-4.731942e+01	-6.625832e+02
3.200000e-07	-6.507771e-06	-1.004572e-08	-4.670821e+01	-6.588994e+02
3.300000e-07	-6.420285e-06	-9.981125e-09	-4.608030e+01	-6.551007e+02
3.400000e-07	-6.330435e-06	-9.929552e-09	-4.543542e+01	-6.511914e+02
3.500000e-07	-6.238342e-06	-9.868210e-09	-4.477444e+01	-6.471719e+02
3.600000e-07	-6.144064e-06	-9.803624e-09	-4.409778e+01	-6.430379e+02
3.700000e-07	-6.047509e-06	-9.742909e-09	-4.340477e+01	-6.387805e+02
3.800000e-07	-5.948687e-06	-9.683580e-09	-4.269550e+01	-6.343876e+02
3.900000e-07	-5.847778e-06	-9.603379e-09	-4.197124e+01	-6.298445e+02
4.000000e-07	-5.744857e-06	-9.528646e-09	-4.123255e+01	-6.251366e+02
4.100000e-07	-5.639798e-06	-9.455878e-09	-4.047851e+01	-6.202504e+02
4.200000e-07	-5.532682e-06	-9.378642e-09	-3.970971e+01	-6.151759e+02
4.300000e-07	-5.423681e-06	-9.296876e-09	-3.892737e+01	-6.099075e+02
4.400000e-07	-5.312810e-06	-9.223137e-09	-3.813162e+01	-6.044443e+02
4.500000e-07	-5.199911e-06	-9.145040e-09	-3.732131e+01	-5.987900e+02
4.600000e-07	-5.084872e-06	-9.052426e-09	-3.649564e+01	-5.929514e+02
4.700000e-07	-4.967932e-06	-8.954384e-09	-3.565633e+01	-5.869369e+02
4.800000e-07	-4.849248e-06	-8.857766e-09	-3.480450e+01	-5.807542e+02
4.900000e-07	-4.728728e-06	-8.761660e-09	-3.393949e+01	-5.744081e+02
5.000000e-07	-4.606440e-06	-8.663917e-09	-3.306179e+01	-5.678990e+02
5.100000e-07	-4.482514e-06	-8.565066e-09	-3.217234e+01	-5.612214e+02
5.200000e-07	-4.356973e-06	-8.457398e-09	-3.127130e+01	-5.543640e+02
5.300000e-07	-4.229874e-06	-8.343406e-09	-3.035906e+01	-5.473104e+02
5.400000e-07	-4.101084e-06	-8.225724e-09	-2.943470e+01	-5.400408e+02
5.500000e-07	-3.970793e-06	-8.112247e-09	-2.849956e+01	-5.325339e+02
5.600000e-07	-3.839077e-06	-7.995524e-09	-2.755420e+01	-5.247695e+02
5.700000e-07	-3.705883e-06	-7.875633e-09	-2.659823e+01	-5.167312e+02
5.800000e-07	-3.571429e-06	-7.747802e-09	-2.563321e+01	-5.084077e+02
5.900000e-07	-3.435548e-06	-7.612809e-09	-2.465795e+01	-4.997934e+02
6.000000e-07	-3.298174e-06	-7.474917e-09	-2.367198e+01	-4.908890e+02
6.100000e-07	-3.159541e-06	-7.334749e-09	-2.267697e+01	-4.816990e+02
6.200000e-07	-3.019657e-06	-7.193164e-09	-2.167298e+01	-4.722303e+02
6.300000e-07	-2.878416e-06	-7.044901e-09	-2.065925e+01	-4.624888e+02
6.400000e-07	-2.735850e-06	-6.895502e-09	-1.963601e+01	-4.524766e+02
6.500000e-07	-2.592233e-06	-6.741351e-09	-1.860523e+01	-4.421894e+02
6.600000e-07	-2.447727e-06	-6.579110e-09	-1.756806e+01	-4.316147e+02
6.700000e-07	-2.302363e-06	-6.408697e-09	-1.652475e+01	-4.207316e+02
6.800000e-07	-2.156325e-06	-6.233367e-09	-1.547659e+01	-4.095113e+02
6.900000e-07	-2.009636e-06	-6.052523e-09	-1.442375e+01	-3.979197e+02
7.000000e-07	-1.862232e-06	-5.865149e-09	-1.336579e+01	-3.859205e+02
7.100000e-07	-1.714233e-06	-5.674637e-09	-1.230356e+01	-3.734791e+02
7.200000e-07	-1.565716e-06	-5.482559e-09	-1.123761e+01	-3.605660e+02
7.300000e-07	-1.416686e-06	-5.283408e-09	-1.016798e+01	-3.471598e+02
7.400000e-07	-1.267215e-06	-5.071391e-09	-9.095183e+00	-3.332485e+02
7.500000e-07	-1.117394e-06	-4.852900e-09	-8.019871e+00	-3.188292e+02
7.600000e-07	-9.672633e-07	-4.627302e-09	-6.942337e+00	-3.039054e+02
7.700000e-07	-8.168042e-07	-4.393119e-09	-5.862447e+00	-2.884829e+02
7.800000e-07	-6.660329e-07	-4.148930e-09	-4.780317e+00	-2.725642e+02
7.900000e-07	-5.150062e-07	-3.897959e-09	-3.696353e+00	-2.561425e+02
8.000000e-07	-3.637245e-07	-3.641463e-09	-2.610559e+00	-2.391957e+02
8.100000e-07	-2.122383e-07	-3.374037e-09	-1.523298e+00	-2.216823e+02
8.200000e-07	-6.066283e-08	-3.094085e-09	-4.353952e-01	-2.035393e+02
8.300000e-07	9.097074e-08	-2.803373e-09	6.529241e-01	-1.846832e+02
8.400000e-07	2.426168e-07	-2.500914e-09	1.741333e+00	-1.650148e+02
8.500000e-07	3.941911e-07	-2.182917e-09	2.829227e+00	-1.444270e+02
8.600000e-07	5.456294e-07	-1.850866e-09	3.916145e+00	-1.228152e+02
8.700000e-07	6.968904e-07	-1.505566e-09	5.001790e+00	-1.000903e+02
8.800000e-07	8.479389e-07	-1.143121e-09	6.085910e+00	-7.619170e+01
8.900000e-07	9.986894e-07	-7.623754e-10	7.167891e+00	-5.109955e+01
9.000000e-07	1.149076e-06	-3.669532e-10	8.247264e+00	-2.484497e+01
9.100000e-07	1.299057e-06	4.072393e-11	9.323720e+00	2.483832e+00
9.200000e-07	1.448585e-06	4.641878e-10	1.039693e+01	3.073974e+01
9.300000e-07	1.597590e-06	9.073844e-10	1.146638e+01	5.972018e+01
9.400000e-07	1.746023e-06	1.364312e-09	1.253173e+01	8.917556e+01
9.500000e-07	1.893855e-06	1.824851e-09	1.359276e+01	1.188222e+02
9.600000e-07	2.041066e-06	2.281820e-09	1.464934e+01	1.483583e+02
9.700000e-07	2.187595e-06	2.728020e-09	1.570102e+01	1.774822e+02
9.800000e-07	2.333276e-06	3.162274e-09	1.674662e+01	2.059103e+02
9.900000e-07	2.478113e-06	3.580018e-09	1.778615e+01	2.333932e+02
1.000000e-06	2.622041e-06	3.976447e-09	1.881917e+01	2.597291e+02
1.010000e-06	2.764895e-06	4.350649e-09	1.984448e+01	2.847729e+02
1.020000e-06	2.906590e-06	4.703225e-09	2.086147e+01	3.084394e+02
1.030000e-06	3.047136e-06	5.036547e-09	2.187020e+01	3.307026e+02
1.040000e-06	3.186518e-06	5.351968e-09	2.287059e+01	3.515890e+02
1.050000e-06	3.324653e-06	5.650986e-09	2.386202e+01	3.711683e+02
1.060000e-06	3.461475e-06	5.932492e-09	2.484403e+01	3.895409e+02
1.070000e-06	3.596921e-06	6.199291e-09	2.581617e+01	4.068242e+02
1.080000e-06	3.731043e-06	6.452097e-09	2.677880e+01	4.231403e+02
1.090000e-06	3.863833e-06	6.690903e-09	2.773188e+01	4.386041e+02
1.100000e-06	3.995265e-06	6.915796e-09	2.867521e+01	4.533153e+02
1.110000e-06	4.125328e-06	7.126977e-09	2.960871e+01	4.673531e+02
1.120000e-06	4.253928e-06	7.329468e-09	3.053171e+01	4.807745e+02
1.130000e-06	4.380993e-06	7.524034e-09	3.144369e+01	4.936157e+02
1.140000e-06	4.506534e-06	7.709378e-09	3.234473e+01	5.058962e+02
1.150000e-06	4.630596e-06	7.886173e-09	3.323516e+01	5.176240e+02
1.160000e-06	4.753097e-06	8.052560e-09	3.411439e+01	5.288016e+02
1.170000e-06	4.873857e-06	8.211665e-09	3.498113e+01	5.394320e+02
1.180000e-06	4.992828e-06	8.364993e-09	3.583501e+01	5.495225e+02
1.190000e-06	5.109960e-06	8.512206e-09	3.667571e+01	5.590883e+02
1.200000e-06	5.225130e-06	8.651719e-09	3.750231e+01	5.681527e+02
1.210000e-06	5.338257e-06	8.784106e-09	3.831426e+01	5.767467e+02
1.220000e-06	5.449353e-06	8.910194e-09	3.911163e+01	5.849061e+02
1.230000e-06	5.558486e-06	9.033424e-09	3.989491e+01	5.926690e+02
1.240000e-06	5.665713e-06	9.153175e-09	4.066451e+01	6.000722e+02
1.250000e-06	5.770905e-06	9.263410e-09	4.141950e+01	6.071478e+02
1.260000e-06	5.873919e-06	9.365158e-09	4.215887e+01	6.139217e+02
1.270000e-06	5.974755e-06	9.459903e-09	4.288259e+01	6.204124e+02
1.280000e-06	6.073402e-06	9.551708e-09	4.359062e+01	6.266310e+02
1.290000e-06	6.169756e-06	9.641005e-09	4.428218e+01	6.325832e+02
1.300000e-06	6.263763e-06	9.724996e-09	4.495689e+01	6.382710e+02
1.310000e-06	6.355572e-06	9.803105e-09	4.561583e+01	6.436956e+02
1.320000e-06	6.445159e-06	9.879311e-09	4.625883e+01	6.488593e+02
1.330000e-06	6.532457e-06	9.955252e-09	4.688539e+01	6.537678e+02
1.340000e-06	6.617532e-06	1.002975e-08	4.749600e+01	6.584309e+02
1.350000e-06	6.700290e-06	1.009982e-08	4.808998e+01	6.628626e+02
1.360000e-06	6.780550e-06	1.016422e-08	4.866603e+01	6.670798e+02
1.370000e-06	6.858267e-06	1.022565e-08	4.922383e+01	6.711008e+02
1.380000e-06	6.933384e-06	1.028559e-08	4.976296e+01	6.749430e+02
1.390000e-06	7.005903e-06	1.034376e-08	5.028345e+01	6.786206e+02
1.400000e-06	7.075937e-06	1.039787e-08	5.078611e+01	6.821432e+02
1.410000e-06	7.143443e-06	1.044802e-08	5.127062e+01	6.855143e+02
1.420000e-06	7.208327e-06	1.049592e-08	5.173631e+01	6.887314e+02
1.430000e-06	7.270714e-06	1.054157e-08	5.218408e+01	6.917868e+02
1.440000e-06	7.330733e-06	1.058446e-08	5.261485e+01	6.946693e+02
1.450000e-06	7.388169e-06	1.062496e-08	5.302709e+01	6.973667e+02
1.460000e-06	7.442909e-06	1.066146e-08	5.341998e+01	6.998678e+02
1.470000e-06	7.494777e-06	1.069408e-08	5.379225e+01	7.021651e+02
1.480000e-06	7.543605e-06	1.072504e-08	5.414270e+01	7.042566e+02
1.490000e-06	7.589636e-06	1.075511e-08	5.447308e+01	7.061464e+02
1.500000e-06	7.632997e-06	1.078235e-08	5.478429e+01	7.078449e+02
1.510000e-06	7.673586e-06	1.080617e-08	5.507561e+01	7.093676e+02
1.520000e-06	7.711447e-06	1.082692e-08	5.534735e+01	7.107335e+02
1.530000e-06	7.746646e-06	1.084487e-08	5.559999e+01	7.119626e+02
1.540000e-06	7.779063e-06	1.086394e-08	5.583265e+01	7.130733e+02
1.550000e-06	7.808750e-06	1.088279e-08	5.604573e+01	7.140806e+02
1.560000e-06	7.835653e-06	1.089896e-08	5.623881e+01	7.149940e+02
1.570000e-06	7.859603e-06	1.091249e-08	5.641071e+01	7.158168e+02
1.580000e-06	7.880787e-06	1.092243e-08	5.656276e+01	7.165464e+02
1.590000e-06	7.899246e-06	1.093106e-08	5.669524e+01	7.171752e+02
1.600000e-06	7.914770e-06	1.093891e-08	5.680666e+01	7.176924e+02
1.610000e-06	7.927264e-06	1.094473e-08	5.689634e+01	7.180859e+02
1.620000e-06	7.936639e-06	1.094941e-08	5.696362e+01	7.183453e+02
1.630000e-06	7.943048e-06	1.095240e-08	5.700962e+01	7.184632e+02
1.640000e-06	7.946689e-06	1.095349e-08	5.703575e+01	7.184370e+02
1.650000e-06	7.947490e-06	1.095466e-08	5.704150e+01	7.182697e+02
1.660000e-06	7.945594e-06	1.094693e-08	5.702790e+01	7.179693e+02
1.670000e-06	7.941114e-06	1.094046e-08	5.699574e+01	7.175486e+02
1.680000e-06	7.933925e-06	1.093422e-08	5.694414e+01	7.170226e+02
1.690000e-06	7.924080e-06	1.092740e-08	5.687348e+01	7.164076e+02
1.700000e-06	7.911444e-06	1.092171e-08	5.678279e+01	7.157183e+02
1.710000e-06	7.896047e-06	1.091764e-08	5.667228e+01	7.149668e+02
1.720000e-06	7.878236e-06	1.091106e-08	5.654444e+01	7.141607e+02
1.730000e-06	7.858162e-06	1.086871e-08	5.640037e+01	7.133029e+02
1.740000e-06	7.835414e-06	1.077259e-08	5.623710e+01	7.123917e+02
1.750000e-06	7.809346e-06	1.076986e-08	5.605000e+01	7.114211e+02
1.760000e-06	7.779704e-06	1.079623e-08	5.583725e+01	7.103826e+02
1.770000e-06	7.746896e-06	1.077787e-08	5.560178e+01	7.092659e+02
1.780000e-06	7.711739e-06	1.077340e-08	5.534945e+01	7.080611e+02
1.790000e-06	7.674308e-06	1.083578e-08	5.508079e+01	7.067589e+02
1.800000e-06	7.634633e-06	1.078349e-08	5.479603e+01	7.053522e+02
1.810000e-06	7.592884e-06	1.070664e-08	5.449639e+01	7.038356e+02
1.820000e-06	7.548592e-06	1.076515e-08	5.417849e+01	7.022057e+02
1.830000e-06	7.501653e-06	1.067786e-08	5.384160e+01	7.004603e+02
1.840000e-06	7.452029e-06	1.069374e-08	5.348543e+01	6.985972e+02
1.850000e-06	7.399347e-06	1.065636e-08	5.310732e+01	6.966143e+02
1.860000e-06	7.343753e-06	1.059334e-08	5.270830e+01	6.945080e+02
1.870000e-06	7.285527e-06	1.060459e-08	5.229040e+01	6.922736e+02
1.880000e-06	7.224719e-06	1.048169e-08	5.185396e+01	6.899055e+02
1.890000e-06	7.161167e-06	1.051486e-08	5.139783e+01	6.873974e+02
1.900000e-06	7.094880e-06	1.047041e-08	5.092207e+01	6.847434e+02
1.910000e-06	7.025922e-06	1.039261e-08	5.042713e+01	6.819391e+02
1.920000e-06	6.954150e-06	1.038711e-08	4.991201e+01	6.789823e+02
1.930000e-06	6.879737e-06	1.031199e-08	4.937792e+01	6.758737e+02
1.940000e-06	6.802599e-06	1.028062e-08	4.882428e+01	6.726174e+02
1.950000e-06	6.722739e-06	1.017770e-08	4.825110e+01	6.692197e+02
1.960000e-06	6.640443e-06	1.015620e-08	4.766044e+01	6.656890e+02
1.970000e-06	6.555651e-06	1.011664e-08	4.705186e+01	6.620342e+02
1.980000e-06	6.468380e-06	1.003620e-08	4.642549e+01	6.582630e+02
1.990000e-06	6.378787e-06	1.000428e-08	4.578245e+01	6.543805e+02
2.000000e-06	6.287037e-06	9.934530e-09	4.512394e+01	6.503881e+02
2.010000e-06	6.192968e-06	9.869392e-09	4.444878e+01	6.462826e+02
2.020000e-06	6.096571e-06	9.770329e-09	4.375690e+01	6.420564e+02
2.030000e-06	5.998143e-06	9.721882e-09	4.305046e+01	6.376979e+02
2.040000e-06	5.897637e-06	9.661192e-09	4.232910e+01	6.331931e+02
2.050000e-06	5.794970e-06	9.590583e-09	4.159223e+01	6.285270e+02
2.060000e-06	5.690229e-06	9.516628e-09	4.084047e+01	6.236858e+02
2.070000e-06	5.583636e-06	9.440438e-09	4.007542e+01	6.186584e+02
2.080000e-06	5.475153e-06	9.354919e-09	3.929680e+01	6.134380e+02
2.090000e-06	5.364615e-06	9.254397e-09	3.850344e+01	6.080226e+02
2.100000e-06	5.252046e-06	9.181655e-09	3.769550e+01	6.024148e+02
2.110000e-06	5.137583e-06	9.099404e-09	3.687396e+01	5.966208e+02
2.120000e-06	5.021105e-06	9.013637e-09	3.603796e+01	5.906487e+02
2.130000e-06	4.902557e-06	8.912782e-09	3.518711e+01	5.845068e+02
2.140000e-06	4.782170e-06	8.820023e-09	3.432306e+01	5.782006e+02
2.150000e-06	4.660122e-06	8.719865e-09	3.344708e+01	5.717318e+02
2.160000e-06	4.536466e-06	8.618654e-09	3.255957e+01	5.650964e+02
2.170000e-06	4.411047e-06	8.516075e-09	3.165940e+01	5.582846e+02
2.180000e-06	4.283968e-06	8.415350e-09	3.074732e+01	5.512812e+02
2.190000e-06	4.155336e-06	8.309062e-09	2.982409e+01	5.440668e+02
2.200000e-06	4.025246e-06	8.194245e-09	2.889039e+01	5.366205e+02
2.210000e-06	3.893734e-06	8.073096e-09	2.794649e+01	5.289215e+02
2.220000e-06	3.760637e-06	7.943401e-09	2.699121e+01	5.209523e+02
2.230000e-06	3.626049e-06	7.817493e-09	2.602523e+01	5.127000e+02
2.240000e-06	3.490245e-06	7.691152e-09	2.505053e+01	5.041579e+02
2.250000e-06	3.353188e-06	7.565091e-09	2.406683e+01	4.953250e+02
2.260000e-06	3.214846e-06	7.430641e-09	2.307391e+01	4.862051e+02
2.270000e-06	3.075202e-06	7.291479e-09	2.207164e+01	4.768047e+02
2.280000e-06	2.934171e-06	7.141362e-09	2.105942e+01	4.671303e+02
2.290000e-06	2.791942e-06	6.984334e-09	2.003860e+01	4.571852e+02
2.300000e-06	2.648735e-06	6.825264e-09	1.901076e+01	4.469668e+02
2.310000e-06	2.504674e-06	6.668091e-09	1.797679e+01	4.364650e+02
2.320000e-06	2.359781e-06	6.507977e-09	1.693685e+01	4.256607e+02
2.330000e-06	2.214104e-06	6.340532e-09	1.589129e+01	4.145270e+02
2.340000e-06	2.067751e-06	6.163342e-09	1.484086e+01	4.030308e+02
2.350000e-06	1.920769e-06	5.976015e-09	1.378593e+01	3.911362e+02
2.360000e-06	1.773111e-06	5.783444e-09	1.272615e+01	3.788076e+02
2.370000e-06	1.624736e-06	5.585798e-09	1.166121e+01	3.660141e+02
2.380000e-06	1.475715e-06	5.385462e-09	1.059165e+01	3.527320e+02
2.390000e-06	1.326214e-06	5.180445e-09	9.518632e+00	3.389469e+02
2.400000e-06	1.176362e-06	4.967467e-09	8.443097e+00	3.246538e+02
2.410000e-06	1.026127e-06	4.742778e-09	7.364820e+00	3.098548e+02
2.420000e-06	8.755106e-07	4.507479e-09	6.283800e+00	2.945558e+02
2.430000e-06	7.246173e-07	4.265028e-09	5.200794e+00	2.787606e+02
2.440000e-06	5.735482e-07	4.017309e-09	4.116526e+00	2.624653e+02
2.450000e-06	4.222681e-07	3.763892e-09	3.030744e+00	2.456522e+02
2.460000e-06	2.707392e-07	3.501282e-09	1.943176e+00	2.282848e+02
2.470000e-06	1.190812e-07	3.225488e-09	8.546815e-01	2.103055e+02
2.480000e-06	-3.260573e-08	2.935294e-09	-2.340210e-01	1.916357e+02
2.490000e-06	-1.843049e-07	2.634058e-09	-1.322811e+00	1.721796e+02
2.500000e-06	-3.359706e-07	2.320759e-09	-2.411361e+00	1.518311e+02
2.510000e-06	-4.875248e-07	1.993276e-09	-3.499110e+00	1.304838e+02
2.520000e-06	-6.388900e-07	1.650492e-09	-4.585504e+00	1.080435e+02
2.530000e-06	-7.900365e-07	1.293025e-09	-5.670327e+00	8.444118e+01
2.540000e-06	-9.409593e-07	9.217555e-10	-6.753545e+00	5.964591e+01
2.550000e-06	-1.091580e-06	5.342949e-10	-7.834594e+00	3.367525e+01
2.560000e-06	-1.241788e-06	1.270418e-10	-8.912682e+00	6.602778e+00
2.570000e-06	-1.391578e-06	-2.999910e-10	-9.987772e+00	-2.143900e+01
2.580000e-06	-1.540874e-06	-7.417092e-10	-1.105931e+01	-5.026077e+01
2.590000e-06	-1.689554e-06	-1.194310e-09	-1.212643e+01	-7.962365e+01
2.600000e-06	-1.837558e-06	-1.653144e-09	-1.318870e+01	-1.092510e+02
2.610000e-06	-1.984822e-06	-2.112078e-09	-1.424566e+01	-1.388441e+02
2.620000e-06	-2.131380e-06	-2.565291e-09	-1.529755e+01	-1.680994e+02
2.630000e-06	-2.277106e-06	-3.006403e-09	-1.634346e+01	-1.967271e+02
2.640000e-06	-2.421891e-06	-3.429731e-09	-1.738264e+01	-2.244680e+02
2.650000e-06	-2.565841e-06	-3.832100e-09	-1.841580e+01	-2.511073e+02
2.660000e-06	-2.708891e-06	-4.214164e-09	-1.944251e+01	-2.764852e+02
2.670000e-06	-2.850886e-06	-4.577668e-09	-2.046166e+01	-3.005014e+02
2.680000e-06	-2.991694e-06	-4.920452e-09	-2.147228e+01	-3.231155e+02
2.690000e-06	-3.131223e-06	-5.242330e-09	-2.247372e+01	-3.443418e+02
2.700000e-06	-3.269431e-06	-5.547054e-09	-2.346568e+01	-3.642402e+02
2.710000e-06	-3.406327e-06	-5.835816e-09	-2.444822e+01	-3.829046e+02
2.720000e-06	-3.542065e-06	-6.108529e-09	-2.542245e+01	-4.004495e+02
2.730000e-06	-3.676601e-06	-6.364564e-09	-2.638806e+01	-4.169969e+02
2.740000e-06	-3.809768e-06	-6.605458e-09	-2.734384e+01	-4.326644e+02
2.750000e-06	-3.941517e-06	-6.834848e-09	-2.828944e+01	-4.475562e+02
2.760000e-06	-4.071861e-06	-7.055094e-09	-2.922496e+01	-4.617568e+02
2.770000e-06	-4.200797e-06	-7.265978e-09	-3.015037e+01	-4.753288e+02
2.780000e-06	-4.328325e-06	-7.465691e-09	-3.106568e+01	-4.883134e+02
2.790000e-06	-4.454382e-06	-7.653958e-09	-3.197043e+01	-5.007338e+02
2.800000e-06	-4.578839e-06	-7.831407e-09	-3.286369e+01	-5.126001e+02
2.810000e-06	-4.701645e-06	-8.000171e-09	-3.374511e+01	-5.239158e+02
2.820000e-06	-4.822805e-06	-8.161726e-09	-3.461471e+01	-5.346832e+02
2.830000e-06	-4.942215e-06	-8.315781e-09	-3.547175e+01	-5.449083e+02
2.840000e-06	-5.059658e-06	-8.463557e-09	-3.631467e+01	-5.546042e+02
2.850000e-06	-5.175056e-06	-8.604724e-09	-3.714292e+01	-5.637920e+02
2.860000e-06	-5.288380e-06	-8.738110e-09	-3.795628e+01	-5.725011e+02
2.870000e-06	-5.399597e-06	-8.864906e-09	-3.875452e+01	-5.807663e+02
2.880000e-06	-5.508826e-06	-8.984955e-09	-3.953848e+01	-5.886255e+02
2.890000e-06	-5.616172e-06	-9.099931e-09	-4.030894e+01	-5.961161e+02
2.900000e-06	-5.721561e-06	-9.211179e-09	-4.106534e+01	-6.032716e+02
2.910000e-06	-5.824851e-06	-9.316913e-09	-4.180669e+01	-6.101196e+02
2.920000e-06	-5.925935e-06	-9.417711e-09	-4.253220e+01	-6.166805e+02
2.930000e-06	-6.024889e-06	-9.512389e-09	-4.324242e+01	-6.229671e+02
2.940000e-06	-6.121755e-06	-9.603835e-09	-4.393766e+01	-6.289864e+02
