# Temperatura_=_56.87
# Concentracion g/m^3_=_10000.0
# C_Vs_to_Am_M_A/Vsm_=_65563218390.804596
# pendiente_HvsI_1/m_=_3716.3
# ordenada_HvsI_A/m_=_1297.0
# frecuencia_Hz_=_302617.5945032562

Tiempo_(s)	Campo_(V.s)	Magnetizacion_(V.s)	Campo_(kA/m)	Magnetizacion_(A/m)
0.000000e+00	-7.895119e-06	-1.076155e-08	-5.683089e+01	-7.058615e+02
1.000000e-08	-7.893106e-06	-1.076501e-08	-5.681640e+01	-7.055685e+02
2.000000e-08	-7.888368e-06	-1.075973e-08	-5.678230e+01	-7.051570e+02
3.000000e-08	-7.881103e-06	-1.075170e-08	-5.673000e+01	-7.046425e+02
4.000000e-08	-7.871113e-06	-1.074242e-08	-5.665809e+01	-7.040419e+02
5.000000e-08	-7.858300e-06	-1.073078e-08	-5.656586e+01	-7.033715e+02
6.000000e-08	-7.842571e-06	-1.071873e-08	-5.645264e+01	-7.026450e+02
7.000000e-08	-7.824198e-06	-1.070956e-08	-5.632039e+01	-7.018723e+02
8.000000e-08	-7.803618e-06	-1.069680e-08	-5.617225e+01	-7.010581e+02
9.000000e-08	-7.780526e-06	-1.072535e-08	-5.600602e+01	-7.002018e+02
1.000000e-07	-7.754291e-06	-1.073797e-08	-5.581718e+01	-6.992981e+02
1.100000e-07	-7.724839e-06	-1.070139e-08	-5.560518e+01	-6.983377e+02
1.200000e-07	-7.692539e-06	-1.065957e-08	-5.537268e+01	-6.973084e+02
1.300000e-07	-7.657541e-06	-1.062285e-08	-5.512075e+01	-6.961971e+02
1.400000e-07	-7.620082e-06	-1.058781e-08	-5.485112e+01	-6.949906e+02
1.500000e-07	-7.580428e-06	-1.053045e-08	-5.456567e+01	-6.936772e+02
1.600000e-07	-7.538558e-06	-1.052015e-08	-5.426429e+01	-6.922472e+02
1.700000e-07	-7.494155e-06	-1.055912e-08	-5.394466e+01	-6.906931e+02
1.800000e-07	-7.447019e-06	-1.049589e-08	-5.360537e+01	-6.890099e+02
1.900000e-07	-7.397085e-06	-1.047429e-08	-5.324593e+01	-6.871944e+02
2.000000e-07	-7.344262e-06	-1.045505e-08	-5.286570e+01	-6.852447e+02
2.100000e-07	-7.288676e-06	-1.035859e-08	-5.246557e+01	-6.831600e+02
2.200000e-07	-7.230387e-06	-1.032987e-08	-5.204600e+01	-6.809396e+02
2.300000e-07	-7.169452e-06	-1.032236e-08	-5.160737e+01	-6.785830e+02
2.400000e-07	-7.105934e-06	-1.031947e-08	-5.115016e+01	-6.760900e+02
2.500000e-07	-7.039658e-06	-1.025509e-08	-5.067308e+01	-6.734605e+02
2.600000e-07	-6.970652e-06	-1.021475e-08	-5.017637e+01	-6.706954e+02
2.700000e-07	-6.899038e-06	-1.018301e-08	-4.966087e+01	-6.677963e+02
2.800000e-07	-6.824722e-06	-1.012878e-08	-4.912593e+01	-6.647661e+02
2.900000e-07	-6.747632e-06	-1.008624e-08	-4.857101e+01	-6.616086e+02
3.000000e-07	-6.667814e-06	-1.004442e-08	-4.799647e+01	-6.583286e+02
3.100000e-07	-6.585489e-06	-1.000083e-08	-4.740387e+01	-6.549307e+02
3.200000e-07	-6.500872e-06	-9.926309e-09	-4.679478e+01	-6.514189e+02
3.300000e-07	-6.413990e-06	-9.864290e-09	-4.616938e+01	-6.477958e+02
3.400000e-07	-6.324822e-06	-9.814231e-09	-4.552754e+01	-6.440611e+02
3.500000e-07	-6.233338e-06	-9.752812e-09	-4.486901e+01	-6.402119e+02
3.600000e-07	-6.139604e-06	-9.687539e-09	-4.419429e+01	-6.362418e+02
3.700000e-07	-6.043674e-06	-9.632855e-09	-4.350377e+01	-6.321415e+02
3.800000e-07	-5.945500e-06	-9.578326e-09	-4.279709e+01	-6.278997e+02
3.900000e-07	-5.845198e-06	-9.506523e-09	-4.207509e+01	-6.235041e+02
4.000000e-07	-5.742827e-06	-9.436516e-09	-4.133820e+01	-6.189424e+02
4.100000e-07	-5.638392e-06	-9.363429e-09	-4.058645e+01	-6.142046e+02
4.200000e-07	-5.531943e-06	-9.281189e-09	-3.982020e+01	-6.092832e+02
4.300000e-07	-5.423539e-06	-9.205125e-09	-3.903989e+01	-6.041745e+02
4.400000e-07	-5.313241e-06	-9.142938e-09	-3.824594e+01	-5.988788e+02
4.500000e-07	-5.200984e-06	-9.066846e-09	-3.743789e+01	-5.933994e+02
4.600000e-07	-5.086687e-06	-8.968326e-09	-3.661515e+01	-5.877423e+02
4.700000e-07	-4.970398e-06	-8.869118e-09	-3.577808e+01	-5.819139e+02
4.800000e-07	-4.852248e-06	-8.779117e-09	-3.492761e+01	-5.759194e+02
4.900000e-07	-4.732298e-06	-8.687803e-09	-3.406418e+01	-5.697614e+02
5.000000e-07	-4.610640e-06	-8.595864e-09	-3.318845e+01	-5.634382e+02
5.100000e-07	-4.487335e-06	-8.501862e-09	-3.230087e+01	-5.569431e+02
5.200000e-07	-4.362426e-06	-8.394759e-09	-3.140175e+01	-5.502642e+02
5.300000e-07	-4.235850e-06	-8.282358e-09	-3.049063e+01	-5.433858e+02
5.400000e-07	-4.107695e-06	-8.172349e-09	-2.956814e+01	-5.362890e+02
5.500000e-07	-3.978137e-06	-8.063734e-09	-2.863555e+01	-5.289545e+02
5.600000e-07	-3.847046e-06	-7.945859e-09	-2.769193e+01	-5.213644e+02
5.700000e-07	-3.714457e-06	-7.823615e-09	-2.673752e+01	-5.135039e+02
5.800000e-07	-3.580420e-06	-7.698855e-09	-2.577269e+01	-5.053636e+02
5.900000e-07	-3.444951e-06	-7.569893e-09	-2.479755e+01	-4.969392e+02
6.000000e-07	-3.308227e-06	-7.435693e-09	-2.381338e+01	-4.882317e+02
6.100000e-07	-3.170312e-06	-7.300093e-09	-2.282064e+01	-4.792457e+02
6.200000e-07	-3.031047e-06	-7.161669e-09	-2.181818e+01	-4.699875e+02
6.300000e-07	-2.890388e-06	-7.018110e-09	-2.080568e+01	-4.604625e+02
6.400000e-07	-2.748566e-06	-6.874441e-09	-1.978481e+01	-4.506721e+02
6.500000e-07	-2.605708e-06	-6.725862e-09	-1.875649e+01	-4.406115e+02
6.600000e-07	-2.461918e-06	-6.564793e-09	-1.772145e+01	-4.302682e+02
6.700000e-07	-2.317277e-06	-6.391485e-09	-1.668029e+01	-4.196216e+02
6.800000e-07	-2.171723e-06	-6.218005e-09	-1.563256e+01	-4.086437e+02
6.900000e-07	-2.025373e-06	-6.042850e-09	-1.457910e+01	-3.973012e+02
7.000000e-07	-1.878407e-06	-5.862769e-09	-1.352120e+01	-3.855588e+02
7.100000e-07	-1.730786e-06	-5.676724e-09	-1.245859e+01	-3.733824e+02
7.200000e-07	-1.582627e-06	-5.485933e-09	-1.139211e+01	-3.607426e+02
7.300000e-07	-1.434092e-06	-5.288077e-09	-1.032293e+01	-3.476178e+02
7.400000e-07	-1.285158e-06	-5.080686e-09	-9.250865e+00	-3.339949e+02
7.500000e-07	-1.135759e-06	-4.869288e-09	-8.175456e+00	-3.198698e+02
7.600000e-07	-9.859182e-07	-4.649721e-09	-7.096867e+00	-3.052446e+02
7.700000e-07	-8.356733e-07	-4.420220e-09	-6.015370e+00	-2.901242e+02
7.800000e-07	-6.851018e-07	-4.181886e-09	-4.931521e+00	-2.745110e+02
7.900000e-07	-5.342905e-07	-3.937578e-09	-3.845947e+00	-2.583990e+02
8.000000e-07	-3.832890e-07	-3.685473e-09	-2.759003e+00	-2.417681e+02
8.100000e-07	-2.321907e-07	-3.422118e-09	-1.671362e+00	-2.245803e+02
8.200000e-07	-8.101191e-08	-3.147135e-09	-5.831425e-01	-2.067768e+02
8.300000e-07	7.025543e-08	-2.862548e-09	5.057148e-01	-1.882794e+02
8.400000e-07	2.215680e-07	-2.566945e-09	1.594898e+00	-1.689935e+02
8.500000e-07	3.728448e-07	-2.254911e-09	2.683823e+00	-1.488157e+02
8.600000e-07	5.239983e-07	-1.928025e-09	3.771861e+00	-1.276436e+02
8.700000e-07	6.750286e-07	-1.588977e-09	4.859012e+00	-1.053877e+02
8.800000e-07	8.258689e-07	-1.235018e-09	5.944795e+00	-8.198370e+01
8.900000e-07	9.764172e-07	-8.633182e-10	7.028477e+00	-5.740510e+01
9.000000e-07	1.126589e-06	-4.754679e-10	8.109446e+00	-3.167303e+01
9.100000e-07	1.276282e-06	-7.338942e-11	9.186976e+00	-4.863154e+00
9.200000e-07	1.425493e-06	3.441878e-10	1.026103e+01	2.289167e+01
9.300000e-07	1.574252e-06	7.804399e-10	1.133183e+01	5.140368e+01
9.400000e-07	1.722536e-06	1.229663e-09	1.239921e+01	8.043735e+01
9.500000e-07	1.870169e-06	1.684553e-09	1.346191e+01	1.097209e+02
9.600000e-07	2.017036e-06	2.137348e-09	1.451909e+01	1.389614e+02
9.700000e-07	2.163192e-06	2.581398e-09	1.557115e+01	1.678617e+02
9.800000e-07	2.308578e-06	3.014032e-09	1.661768e+01	1.961383e+02
9.900000e-07	2.453054e-06	3.428449e-09	1.765765e+01	2.235373e+02
1.000000e-06	2.596591e-06	3.823861e-09	1.869086e+01	2.498485e+02
1.010000e-06	2.739111e-06	4.197168e-09	1.971675e+01	2.749150e+02
1.020000e-06	2.880615e-06	4.550953e-09	2.073534e+01	2.986380e+02
1.030000e-06	3.021011e-06	4.887142e-09	2.174594e+01	3.209773e+02
1.040000e-06	3.160007e-06	5.205273e-09	2.274646e+01	3.419460e+02
1.050000e-06	3.297689e-06	5.506233e-09	2.373753e+01	3.616025e+02
1.060000e-06	3.434234e-06	5.788044e-09	2.472041e+01	3.800387e+02
1.070000e-06	3.569501e-06	6.055376e-09	2.569409e+01	3.973671e+02
1.080000e-06	3.703428e-06	6.308405e-09	2.665813e+01	4.137080e+02
1.090000e-06	3.836117e-06	6.546688e-09	2.761325e+01	4.291779e+02
1.100000e-06	3.967383e-06	6.769944e-09	2.855814e+01	4.438806e+02
1.110000e-06	4.097082e-06	6.980861e-09	2.949175e+01	4.579005e+02
1.120000e-06	4.225414e-06	7.183720e-09	3.041551e+01	4.713005e+02
1.130000e-06	4.352298e-06	7.376580e-09	3.132885e+01	4.841220e+02
1.140000e-06	4.477693e-06	7.561137e-09	3.223147e+01	4.963882e+02
1.150000e-06	4.601625e-06	7.739154e-09	3.312356e+01	5.081089e+02
1.160000e-06	4.723860e-06	7.908017e-09	3.400344e+01	5.192863e+02
1.170000e-06	4.844440e-06	8.067502e-09	3.487140e+01	5.299213e+02
1.180000e-06	4.963308e-06	8.218954e-09	3.572704e+01	5.400175e+02
1.190000e-06	5.080294e-06	8.365088e-09	3.656913e+01	5.495858e+02
1.200000e-06	5.195307e-06	8.504026e-09	3.739702e+01	5.586452e+02
1.210000e-06	5.308303e-06	8.636259e-09	3.821040e+01	5.672229e+02
1.220000e-06	5.419313e-06	8.761928e-09	3.900947e+01	5.753530e+02
1.230000e-06	5.528438e-06	8.884221e-09	3.979498e+01	5.830733e+02
1.240000e-06	5.635625e-06	9.003173e-09	4.056654e+01	5.904219e+02
1.250000e-06	5.740708e-06	9.113565e-09	4.132294e+01	5.974346e+02
1.260000e-06	5.843677e-06	9.215686e-09	4.206414e+01	6.041417e+02
1.270000e-06	5.944567e-06	9.310432e-09	4.279037e+01	6.105667e+02
1.280000e-06	6.043313e-06	9.401425e-09	4.350117e+01	6.167259e+02
1.290000e-06	6.139695e-06	9.488292e-09	4.419494e+01	6.226291e+02
1.300000e-06	6.233804e-06	9.570365e-09	4.487236e+01	6.282813e+02
1.310000e-06	6.325737e-06	9.647998e-09	4.553412e+01	6.336845e+02
1.320000e-06	6.415406e-06	9.723817e-09	4.617958e+01	6.388407e+02
1.330000e-06	6.502715e-06	9.799740e-09	4.680805e+01	6.437531e+02
1.340000e-06	6.587726e-06	9.872846e-09	4.741998e+01	6.484280e+02
1.350000e-06	6.670485e-06	9.942548e-09	4.801570e+01	6.528752e+02
1.360000e-06	6.750784e-06	1.000887e-08	4.859370e+01	6.571074e+02
1.370000e-06	6.828555e-06	1.007087e-08	4.915352e+01	6.611390e+02
1.380000e-06	6.903793e-06	1.012889e-08	4.969510e+01	6.649847e+02
1.390000e-06	6.976406e-06	1.018410e-08	5.021778e+01	6.686573e+02
1.400000e-06	7.046501e-06	1.023664e-08	5.072235e+01	6.721663e+02
1.410000e-06	7.114174e-06	1.028732e-08	5.120947e+01	6.755161e+02
1.420000e-06	7.179241e-06	1.033707e-08	5.167784e+01	6.787066e+02
1.430000e-06	7.241751e-06	1.038459e-08	5.212780e+01	6.817324e+02
1.440000e-06	7.301886e-06	1.042807e-08	5.256067e+01	6.845851e+02
1.450000e-06	7.359485e-06	1.046813e-08	5.297528e+01	6.872544e+02
1.460000e-06	7.414432e-06	1.050541e-08	5.337080e+01	6.897309e+02
1.470000e-06	7.466519e-06	1.054043e-08	5.374573e+01	6.920074e+02
1.480000e-06	7.515503e-06	1.057188e-08	5.409833e+01	6.940818e+02
1.490000e-06	7.561670e-06	1.060040e-08	5.443065e+01	6.959570e+02
1.500000e-06	7.605220e-06	1.062721e-08	5.474413e+01	6.976421e+02
1.510000e-06	7.646015e-06	1.065229e-08	5.503779e+01	6.991513e+02
1.520000e-06	7.684099e-06	1.067500e-08	5.531192e+01	7.005022e+02
1.530000e-06	7.719563e-06	1.069359e-08	5.556720e+01	7.017145e+02
1.540000e-06	7.752275e-06	1.071074e-08	5.580267e+01	7.028069e+02
1.550000e-06	7.782222e-06	1.072745e-08	5.601823e+01	7.037955e+02
1.560000e-06	7.809442e-06	1.074307e-08	5.621417e+01	7.046915e+02
1.570000e-06	7.833777e-06	1.075641e-08	5.638934e+01	7.055004e+02
1.580000e-06	7.855308e-06	1.076721e-08	5.654433e+01	7.062218e+02
1.590000e-06	7.874115e-06	1.077623e-08	5.667970e+01	7.068498e+02
1.600000e-06	7.890001e-06	1.078351e-08	5.679405e+01	7.073749e+02
1.610000e-06	7.902844e-06	1.078991e-08	5.688650e+01	7.077853e+02
1.620000e-06	7.912591e-06	1.079563e-08	5.695666e+01	7.080697e+02
1.630000e-06	7.919307e-06	1.079971e-08	5.700500e+01	7.082192e+02
1.640000e-06	7.923243e-06	1.080081e-08	5.703334e+01	7.082292e+02
1.650000e-06	7.924377e-06	1.080048e-08	5.704150e+01	7.081002e+02
1.660000e-06	7.922762e-06	1.079382e-08	5.702988e+01	7.078382e+02
1.670000e-06	7.918598e-06	1.078888e-08	5.699990e+01	7.074544e+02
1.680000e-06	7.911775e-06	1.078290e-08	5.695079e+01	7.069635e+02
1.690000e-06	7.902300e-06	1.077571e-08	5.688259e+01	7.063822e+02
1.700000e-06	7.890085e-06	1.076965e-08	5.679466e+01	7.057272e+02
1.710000e-06	7.875063e-06	1.076585e-08	5.668653e+01	7.050131e+02
1.720000e-06	7.857558e-06	1.075862e-08	5.656052e+01	7.042507e+02
1.730000e-06	7.837854e-06	1.072905e-08	5.641869e+01	7.034461e+02
1.740000e-06	7.815575e-06	1.064482e-08	5.625832e+01	7.026000e+02
1.750000e-06	7.790088e-06	1.063075e-08	5.607486e+01	7.017084e+02
1.760000e-06	7.761022e-06	1.064285e-08	5.586563e+01	7.007626e+02
1.770000e-06	7.728674e-06	1.063439e-08	5.563279e+01	6.997511e+02
1.780000e-06	7.693866e-06	1.063862e-08	5.538223e+01	6.986610e+02
1.790000e-06	7.656735e-06	1.068454e-08	5.511495e+01	6.974789e+02
1.800000e-06	7.617370e-06	1.064675e-08	5.483159e+01	6.961926e+02
1.810000e-06	7.576007e-06	1.056546e-08	5.453385e+01	6.947919e+02
1.820000e-06	7.532211e-06	1.061160e-08	5.421860e+01	6.932688e+02
1.830000e-06	7.485783e-06	1.054244e-08	5.388440e+01	6.916176e+02
1.840000e-06	7.436663e-06	1.055988e-08	5.353082e+01	6.898348e+02
1.850000e-06	7.384599e-06	1.055612e-08	5.315606e+01	6.879182e+02
1.860000e-06	7.329678e-06	1.050198e-08	5.276072e+01	6.858668e+02
1.870000e-06	7.272023e-06	1.049174e-08	5.234571e+01	6.836797e+02
1.880000e-06	7.211786e-06	1.035818e-08	5.191210e+01	6.813566e+02
1.890000e-06	7.148889e-06	1.036475e-08	5.145936e+01	6.788971e+02
1.900000e-06	7.083196e-06	1.033056e-08	5.098649e+01	6.763011e+02
1.910000e-06	7.014727e-06	1.026169e-08	5.049363e+01	6.735692e+02
1.920000e-06	6.943434e-06	1.026393e-08	4.998045e+01	6.707028e+02
1.930000e-06	6.869508e-06	1.019742e-08	4.944831e+01	6.677044e+02
1.940000e-06	6.792891e-06	1.014873e-08	4.889680e+01	6.645778e+02
1.950000e-06	6.713533e-06	1.005395e-08	4.832557e+01	6.613273e+02
1.960000e-06	6.631677e-06	1.003870e-08	4.773635e+01	6.579578e+02
1.970000e-06	6.547395e-06	1.000625e-08	4.712967e+01	6.544737e+02
1.980000e-06	6.460706e-06	9.929750e-09	4.650566e+01	6.508777e+02
1.990000e-06	6.371638e-06	9.899688e-09	4.586453e+01	6.471705e+02
2.000000e-06	6.280341e-06	9.834231e-09	4.520735e+01	6.433498e+02
2.010000e-06	6.186855e-06	9.765583e-09	4.453441e+01	6.394100e+02
2.020000e-06	6.091109e-06	9.676340e-09	4.384521e+01	6.353427e+02
2.030000e-06	5.993155e-06	9.632543e-09	4.314012e+01	6.311368e+02
2.040000e-06	5.893133e-06	9.568780e-09	4.242013e+01	6.267802e+02
2.050000e-06	5.791058e-06	9.495039e-09	4.168538e+01	6.222605e+02
2.060000e-06	5.686907e-06	9.425851e-09	4.093567e+01	6.175670e+02
2.070000e-06	5.580802e-06	9.356149e-09	4.017190e+01	6.126913e+02
2.080000e-06	5.472751e-06	9.268845e-09	3.939413e+01	6.076290e+02
2.090000e-06	5.362805e-06	9.167730e-09	3.860271e+01	6.023792e+02
2.100000e-06	5.250953e-06	9.095435e-09	3.779757e+01	5.969447e+02
2.110000e-06	5.137098e-06	9.015768e-09	3.697802e+01	5.913309e+02
2.120000e-06	5.021255e-06	8.936771e-09	3.614415e+01	5.855441e+02
2.130000e-06	4.903470e-06	8.848896e-09	3.529631e+01	5.795901e+02
2.140000e-06	4.783785e-06	8.760363e-09	3.443479e+01	5.734724e+02
2.150000e-06	4.662267e-06	8.653269e-09	3.356008e+01	5.671903e+02
2.160000e-06	4.539022e-06	8.546381e-09	3.267293e+01	5.607385e+02
2.170000e-06	4.414183e-06	8.445630e-09	3.177431e+01	5.541063e+02
2.180000e-06	4.287745e-06	8.350290e-09	3.086418e+01	5.472789e+02
2.190000e-06	4.159668e-06	8.247883e-09	2.994225e+01	5.402379e+02
2.200000e-06	4.030075e-06	8.137301e-09	2.900942e+01	5.329640e+02
2.210000e-06	3.898918e-06	8.019211e-09	2.806532e+01	5.254387e+02
2.220000e-06	3.766331e-06	7.892675e-09	2.711092e+01	5.176464e+02
2.230000e-06	3.632413e-06	7.772472e-09	2.614695e+01	5.095760e+02
2.240000e-06	3.497088e-06	7.651312e-09	2.517285e+01	5.012222e+02
2.250000e-06	3.360474e-06	7.524714e-09	2.418947e+01	4.925845e+02
2.260000e-06	3.222586e-06	7.388413e-09	2.319692e+01	4.836669e+02
2.270000e-06	3.083437e-06	7.250837e-09	2.219529e+01	4.744756e+02
2.280000e-06	2.943133e-06	7.103728e-09	2.118535e+01	4.650164e+02
2.290000e-06	2.801725e-06	6.948693e-09	2.016746e+01	4.552919e+02
2.300000e-06	2.659233e-06	6.793953e-09	1.914177e+01	4.452991e+02
2.310000e-06	2.515692e-06	6.641047e-09	1.810853e+01	4.350275e+02
2.320000e-06	2.371257e-06	6.484463e-09	1.706886e+01	4.244585e+02
2.330000e-06	2.226067e-06	6.322543e-09	1.602374e+01	4.135658e+02
2.340000e-06	2.080091e-06	6.154559e-09	1.497297e+01	4.023171e+02
2.350000e-06	1.933300e-06	5.976000e-09	1.391634e+01	3.906774e+02
2.360000e-06	1.785820e-06	5.785285e-09	1.285475e+01	3.786119e+02
2.370000e-06	1.637813e-06	5.588550e-09	1.178936e+01	3.660898e+02
2.380000e-06	1.489344e-06	5.390180e-09	1.072064e+01	3.530872e+02
2.390000e-06	1.340426e-06	5.187817e-09	9.648695e+00	3.395889e+02
2.400000e-06	1.191089e-06	4.978027e-09	8.573735e+00	3.255887e+02
2.410000e-06	1.041414e-06	4.758624e-09	7.496338e+00	3.110875e+02
2.420000e-06	8.914947e-07	4.529434e-09	6.417185e+00	2.960899e+02
2.430000e-06	7.413742e-07	4.291662e-09	5.336583e+00	2.805995e+02
2.440000e-06	5.910186e-07	4.049920e-09	4.254288e+00	2.646128e+02
2.450000e-06	4.404284e-07	3.801826e-09	3.170306e+00	2.481138e+02
2.460000e-06	2.896729e-07	3.542563e-09	2.085132e+00	2.310693e+02
2.470000e-06	1.387986e-07	3.269005e-09	9.991048e-01	2.134258e+02
2.480000e-06	-1.221256e-08	2.984213e-09	-8.790881e-02	1.951096e+02
2.490000e-06	-1.633072e-07	2.689837e-09	-1.175523e+00	1.760297e+02
2.500000e-06	-3.143666e-07	2.382229e-09	-2.262884e+00	1.560841e+02
2.510000e-06	-4.652702e-07	2.060463e-09	-3.349122e+00	1.351691e+02
2.520000e-06	-6.159864e-07	1.724546e-09	-4.434013e+00	1.131908e+02
2.530000e-06	-7.665465e-07	1.375240e-09	-5.517779e+00	9.007737e+01
2.540000e-06	-9.168566e-07	1.011945e-09	-6.599746e+00	6.579186e+01
2.550000e-06	-1.066896e-06	6.341829e-10	-7.679763e+00	4.034268e+01
2.560000e-06	-1.216628e-06	2.372175e-10	-8.757571e+00	1.379143e+01
2.570000e-06	-1.365938e-06	-1.805891e-10	-9.832337e+00	-1.374329e+01
2.580000e-06	-1.514769e-06	-6.157574e-10	-1.090366e+01	-4.208699e+01
2.590000e-06	-1.663095e-06	-1.063010e-09	-1.197135e+01	-7.101514e+01
2.600000e-06	-1.810895e-06	-1.515846e-09	-1.303524e+01	-1.002637e+02
2.610000e-06	-1.958054e-06	-1.969458e-09	-1.409453e+01	-1.295436e+02
2.620000e-06	-2.104332e-06	-2.420304e-09	-1.514747e+01	-1.585570e+02
2.630000e-06	-2.249764e-06	-2.861202e-09	-1.619432e+01	-1.870153e+02
2.640000e-06	-2.394475e-06	-3.283571e-09	-1.723598e+01	-2.146559e+02
2.650000e-06	-2.538159e-06	-3.684653e-09	-1.827025e+01	-2.412566e+02
2.660000e-06	-2.680704e-06	-4.065494e-09	-1.929633e+01	-2.666464e+02
2.670000e-06	-2.822194e-06	-4.429219e-09	-2.031480e+01	-2.907119e+02
2.680000e-06	-2.962615e-06	-4.772914e-09	-2.132559e+01	-3.133984e+02
2.690000e-06	-3.101868e-06	-5.096328e-09	-2.232797e+01	-3.347065e+02
2.700000e-06	-3.239921e-06	-5.402339e-09	-2.332170e+01	-3.546842e+02
2.710000e-06	-3.376868e-06	-5.690733e-09	-2.430748e+01	-3.734161e+02
2.720000e-06	-3.512500e-06	-5.963159e-09	-2.528379e+01	-3.910108e+02
2.730000e-06	-3.646710e-06	-6.220246e-09	-2.624986e+01	-4.075879e+02
2.740000e-06	-3.779703e-06	-6.463561e-09	-2.720718e+01	-4.232658e+02
2.750000e-06	-3.911407e-06	-6.694111e-09	-2.815521e+01	-4.381521e+02
2.760000e-06	-4.041627e-06	-6.913457e-09	-2.909257e+01	-4.523366e+02
2.770000e-06	-4.170518e-06	-7.123463e-09	-3.002036e+01	-4.658875e+02
2.780000e-06	-4.297917e-06	-7.324212e-09	-3.093740e+01	-4.788514e+02
2.790000e-06	-4.423740e-06	-7.514933e-09	-3.184310e+01	-4.912557e+02
2.800000e-06	-4.548222e-06	-7.691932e-09	-3.273915e+01	-5.031129e+02
2.810000e-06	-4.671058e-06	-7.856746e-09	-3.362336e+01	-5.144268e+02
2.820000e-06	-4.792122e-06	-8.015641e-09	-3.449480e+01	-5.251977e+02
2.830000e-06	-4.911376e-06	-8.170611e-09	-3.535322e+01	-5.354286e+02
2.840000e-06	-5.028708e-06	-8.319686e-09	-3.619781e+01	-5.451280e+02
2.850000e-06	-5.144053e-06	-8.461561e-09	-3.702809e+01	-5.543129e+02
2.860000e-06	-5.257203e-06	-8.595953e-09	-3.784256e+01	-5.630087e+02
2.870000e-06	-5.368282e-06	-8.722930e-09	-3.864214e+01	-5.712479e+02
2.880000e-06	-5.477503e-06	-8.842962e-09	-3.942833e+01	-5.790676e+02
2.890000e-06	-5.584878e-06	-8.956936e-09	-4.020124e+01	-5.865062e+02
2.900000e-06	-5.690359e-06	-9.065974e-09	-4.096052e+01	-5.936004e+02
2.910000e-06	-5.793684e-06	-9.170488e-09	-4.170428e+01	-6.003820e+02
2.920000e-06	-5.894743e-06	-9.270217e-09	-4.243172e+01	-6.068763e+02
2.930000e-06	-5.993702e-06	-9.364162e-09	-4.314405e+01	-6.131014e+02
2.940000e-06	-6.090591e-06	-9.452416e-09	-4.384148e+01	-6.190686e+02
