# Temperatura_=_51.98
# Concentracion g/m^3_=_10000.0
# C_Vs_to_Am_M_A/Vsm_=_65563218390.804596
# pendiente_HvsI_1/m_=_3716.3
# ordenada_HvsI_A/m_=_1297.0
# frecuencia_Hz_=_302624.50693085766

Tiempo_(s)	Campo_(V.s)	Magnetizacion_(V.s)	Campo_(kA/m)	Magnetizacion_(A/m)
0.000000e+00	-7.956947e-06	-1.064548e-08	-5.680896e+01	-6.969269e+02
1.000000e-08	-7.952309e-06	-1.064228e-08	-5.677584e+01	-6.965542e+02
2.000000e-08	-7.945123e-06	-1.063544e-08	-5.672454e+01	-6.960741e+02
3.000000e-08	-7.935184e-06	-1.062852e-08	-5.665358e+01	-6.954999e+02
4.000000e-08	-7.922288e-06	-1.061820e-08	-5.656151e+01	-6.948454e+02
5.000000e-08	-7.906467e-06	-1.060391e-08	-5.644855e+01	-6.941234e+02
6.000000e-08	-7.888063e-06	-1.059124e-08	-5.631715e+01	-6.933443e+02
7.000000e-08	-7.867423e-06	-1.057559e-08	-5.616979e+01	-6.925154e+02
8.000000e-08	-7.844243e-06	-1.060590e-08	-5.600430e+01	-6.916404e+02
9.000000e-08	-7.817922e-06	-1.063410e-08	-5.581638e+01	-6.907190e+02
1.000000e-07	-7.788377e-06	-1.058111e-08	-5.560544e+01	-6.897479e+02
1.100000e-07	-7.755977e-06	-1.053136e-08	-5.537412e+01	-6.887210e+02
1.200000e-07	-7.720848e-06	-1.050983e-08	-5.512332e+01	-6.876304e+02
1.300000e-07	-7.683191e-06	-1.048450e-08	-5.485446e+01	-6.864672e+02
1.400000e-07	-7.643337e-06	-1.041910e-08	-5.456992e+01	-6.852219e+02
1.500000e-07	-7.601238e-06	-1.037525e-08	-5.426935e+01	-6.838852e+02
1.600000e-07	-7.556570e-06	-1.044394e-08	-5.395044e+01	-6.824481e+02
1.700000e-07	-7.509212e-06	-1.037870e-08	-5.361233e+01	-6.809019e+02
1.800000e-07	-7.458981e-06	-1.034000e-08	-5.325370e+01	-6.792384e+02
1.900000e-07	-7.405721e-06	-1.037050e-08	-5.287345e+01	-6.774497e+02
2.000000e-07	-7.349660e-06	-1.026287e-08	-5.247321e+01	-6.755283e+02
2.100000e-07	-7.290922e-06	-1.022637e-08	-5.205384e+01	-6.734674e+02
2.200000e-07	-7.229564e-06	-1.021117e-08	-5.161577e+01	-6.712612e+02
2.300000e-07	-7.165661e-06	-1.019620e-08	-5.115953e+01	-6.689054e+02
2.400000e-07	-7.098970e-06	-1.014099e-08	-5.068339e+01	-6.663978e+02
2.500000e-07	-7.029535e-06	-1.008919e-08	-5.018766e+01	-6.637384e+02
2.600000e-07	-6.957388e-06	-1.007518e-08	-4.967256e+01	-6.609303e+02
2.700000e-07	-6.882446e-06	-1.002319e-08	-4.913751e+01	-6.579788e+02
2.800000e-07	-6.804766e-06	-9.981747e-09	-4.858291e+01	-6.548916e+02
2.900000e-07	-6.724335e-06	-9.935054e-09	-4.800867e+01	-6.516778e+02
3.000000e-07	-6.641446e-06	-9.896593e-09	-4.741688e+01	-6.483466e+02
3.100000e-07	-6.556340e-06	-9.835975e-09	-4.680926e+01	-6.449062e+02
3.200000e-07	-6.468949e-06	-9.758153e-09	-4.618533e+01	-6.413623e+02
3.300000e-07	-6.379157e-06	-9.716175e-09	-4.554426e+01	-6.377174e+02
3.400000e-07	-6.287032e-06	-9.662836e-09	-4.488652e+01	-6.339696e+02
3.500000e-07	-6.192649e-06	-9.596466e-09	-4.421268e+01	-6.301127e+02
3.600000e-07	-6.095957e-06	-9.532190e-09	-4.352234e+01	-6.261368e+02
3.700000e-07	-5.997016e-06	-9.480918e-09	-4.281595e+01	-6.220288e+02
3.800000e-07	-5.895940e-06	-9.416808e-09	-4.209431e+01	-6.177744e+02
3.900000e-07	-5.792737e-06	-9.338843e-09	-4.135748e+01	-6.133594e+02
4.000000e-07	-5.687444e-06	-9.270717e-09	-4.060574e+01	-6.087715e+02
4.100000e-07	-5.580154e-06	-9.197303e-09	-3.983974e+01	-6.040017e+02
4.200000e-07	-5.470983e-06	-9.123856e-09	-3.906031e+01	-5.990452e+02
4.300000e-07	-5.359950e-06	-9.050081e-09	-3.826759e+01	-5.939015e+02
4.400000e-07	-5.246849e-06	-8.981848e-09	-3.746010e+01	-5.885742e+02
4.500000e-07	-5.131614e-06	-8.900607e-09	-3.663737e+01	-5.830694e+02
4.600000e-07	-5.014452e-06	-8.805314e-09	-3.580089e+01	-5.773943e+02
4.700000e-07	-4.895522e-06	-8.709754e-09	-3.495178e+01	-5.715550e+02
4.800000e-07	-4.774718e-06	-8.618978e-09	-3.408930e+01	-5.655548e+02
4.900000e-07	-4.652106e-06	-8.529572e-09	-3.321390e+01	-5.593926e+02
5.000000e-07	-4.527886e-06	-8.433557e-09	-3.232703e+01	-5.530619e+02
5.100000e-07	-4.402086e-06	-8.333214e-09	-3.142888e+01	-5.465509e+02
5.200000e-07	-4.274620e-06	-8.227970e-09	-3.051883e+01	-5.398433e+02
5.300000e-07	-4.145562e-06	-8.121064e-09	-2.959741e+01	-5.329199e+02
5.400000e-07	-4.015027e-06	-8.010788e-09	-2.866545e+01	-5.257604e+02
5.500000e-07	-3.882963e-06	-7.896996e-09	-2.772258e+01	-5.183460e+02
5.600000e-07	-3.749409e-06	-7.777417e-09	-2.676906e+01	-5.106614e+02
5.700000e-07	-3.614409e-06	-7.651691e-09	-2.580522e+01	-5.026962e+02
5.800000e-07	-3.478019e-06	-7.524625e-09	-2.483146e+01	-4.944458e+02
5.900000e-07	-3.340250e-06	-7.396285e-09	-2.384785e+01	-4.859109e+02
6.000000e-07	-3.201117e-06	-7.266287e-09	-2.285451e+01	-4.770961e+02
6.100000e-07	-3.060609e-06	-7.129243e-09	-2.185134e+01	-4.680080e+02
6.200000e-07	-2.918761e-06	-6.986970e-09	-2.083862e+01	-4.586520e+02
6.300000e-07	-2.775717e-06	-6.841936e-09	-1.981735e+01	-4.490296e+02
6.400000e-07	-2.631600e-06	-6.694430e-09	-1.878842e+01	-4.391364e+02
6.500000e-07	-2.486601e-06	-6.538452e-09	-1.775319e+01	-4.289596e+02
6.600000e-07	-2.340799e-06	-6.371937e-09	-1.671223e+01	-4.184783e+02
6.700000e-07	-2.194163e-06	-6.201586e-09	-1.566532e+01	-4.076639e+02
6.800000e-07	-2.046780e-06	-6.026181e-09	-1.461307e+01	-3.964826e+02
6.900000e-07	-1.898768e-06	-5.847892e-09	-1.355633e+01	-3.848979e+02
7.000000e-07	-1.750186e-06	-5.663931e-09	-1.249553e+01	-3.728748e+02
7.100000e-07	-1.601073e-06	-5.476837e-09	-1.143093e+01	-3.603833e+02
7.200000e-07	-1.451453e-06	-5.282538e-09	-1.036271e+01	-3.474008e+02
7.300000e-07	-1.301416e-06	-5.077941e-09	-9.291517e+00	-3.339143e+02
7.400000e-07	-1.150926e-06	-4.865667e-09	-8.217087e+00	-3.199196e+02
7.500000e-07	-9.999320e-07	-4.645864e-09	-7.139056e+00	-3.054198e+02
7.600000e-07	-8.485069e-07	-4.420185e-09	-6.057950e+00	-2.904213e+02
7.700000e-07	-6.967839e-07	-4.185140e-09	-4.974717e+00	-2.749283e+02
7.800000e-07	-5.448529e-07	-3.942119e-09	-3.890000e+00	-2.589374e+02
7.900000e-07	-3.927106e-07	-3.691843e-09	-2.803773e+00	-2.424315e+02
8.000000e-07	-2.404210e-07	-3.433000e-09	-1.716495e+00	-2.253757e+02
8.100000e-07	-8.803348e-08	-3.160189e-09	-6.285187e-01	-2.077142e+02
8.200000e-07	6.441313e-08	-2.875378e-09	4.598802e-01	-1.893714e+02
8.300000e-07	2.168631e-07	-2.579174e-09	1.548303e+00	-1.702549e+02
8.400000e-07	3.693042e-07	-2.268060e-09	2.636663e+00	-1.502626e+02
8.500000e-07	5.216859e-07	-1.943294e-09	3.724598e+00	-1.292922e+02
8.600000e-07	6.738761e-07	-1.608074e-09	4.811166e+00	-1.072533e+02
8.700000e-07	8.258370e-07	-1.258108e-09	5.896098e+00	-8.407955e+01
8.800000e-07	9.775601e-07	-8.889984e-10	6.979331e+00	-5.974101e+01
8.900000e-07	1.128923e-06	-5.042778e-10	8.059990e+00	-3.425452e+01
9.000000e-07	1.279847e-06	-1.066118e-10	9.137522e+00	-7.690771e+00
9.100000e-07	1.430244e-06	3.045817e-10	1.021129e+01	1.982281e+01
9.200000e-07	1.580084e-06	7.358457e-10	1.128107e+01	4.810386e+01
9.300000e-07	1.729385e-06	1.182089e-09	1.234702e+01	7.692184e+01
9.400000e-07	1.878085e-06	1.635150e-09	1.340867e+01	1.060092e+02
9.500000e-07	2.026128e-06	2.087360e-09	1.446563e+01	1.350760e+02
9.600000e-07	2.173522e-06	2.531459e-09	1.551795e+01	1.638269e+02
9.700000e-07	2.320140e-06	2.962697e-09	1.656473e+01	1.919786e+02
9.800000e-07	2.465883e-06	3.374063e-09	1.760527e+01	2.192761e+02
9.900000e-07	2.610733e-06	3.766432e-09	1.863944e+01	2.455066e+02
1.000000e-06	2.754560e-06	4.137481e-09	1.966630e+01	2.705096e+02
1.010000e-06	2.897248e-06	4.489939e-09	2.068502e+01	2.941820e+02
1.020000e-06	3.038793e-06	4.824836e-09	2.169559e+01	3.164789e+02
1.030000e-06	3.179128e-06	5.142736e-09	2.269752e+01	3.374089e+02
1.040000e-06	3.318186e-06	5.442159e-09	2.369033e+01	3.570260e+02
1.050000e-06	3.455948e-06	5.722240e-09	2.467388e+01	3.754188e+02
1.060000e-06	3.592276e-06	5.986998e-09	2.564720e+01	3.926973e+02
1.070000e-06	3.727234e-06	6.238004e-09	2.661074e+01	4.089801e+02
1.080000e-06	3.860943e-06	6.475762e-09	2.756536e+01	4.243833e+02
1.090000e-06	3.993297e-06	6.697509e-09	2.851031e+01	4.390109e+02
1.100000e-06	4.124226e-06	6.907150e-09	2.944509e+01	4.529485e+02
1.110000e-06	4.253717e-06	7.108000e-09	3.036959e+01	4.662601e+02
1.120000e-06	4.381649e-06	7.299516e-09	3.128296e+01	4.789887e+02
1.130000e-06	4.508073e-06	7.482728e-09	3.218557e+01	4.911589e+02
1.140000e-06	4.632995e-06	7.659068e-09	3.307746e+01	5.027815e+02
1.150000e-06	4.756325e-06	7.825855e-09	3.395798e+01	5.138595e+02
1.160000e-06	4.877987e-06	7.982672e-09	3.482659e+01	5.243940e+02
1.170000e-06	4.997791e-06	8.131921e-09	3.568194e+01	5.343889e+02
1.180000e-06	5.115785e-06	8.275236e-09	3.652436e+01	5.438547e+02
1.190000e-06	5.231952e-06	8.411467e-09	3.735374e+01	5.528101e+02
1.200000e-06	5.346123e-06	8.540249e-09	3.816887e+01	5.612826e+02
1.210000e-06	5.458210e-06	8.663603e-09	3.896912e+01	5.693064e+02
1.220000e-06	5.568303e-06	8.786579e-09	3.975513e+01	5.769197e+02
1.230000e-06	5.676496e-06	8.906416e-09	4.052758e+01	5.841618e+02
1.240000e-06	5.782642e-06	9.015322e-09	4.128542e+01	5.910696e+02
1.250000e-06	5.886586e-06	9.112850e-09	4.202753e+01	5.976748e+02
1.260000e-06	5.988391e-06	9.203409e-09	4.275436e+01	6.040024e+02
1.270000e-06	6.088078e-06	9.291667e-09	4.346609e+01	6.100696e+02
1.280000e-06	6.185394e-06	9.377716e-09	4.416088e+01	6.158869e+02
1.290000e-06	6.280348e-06	9.461020e-09	4.483880e+01	6.214592e+02
1.300000e-06	6.373079e-06	9.540072e-09	4.550086e+01	6.267880e+02
1.310000e-06	6.463589e-06	9.615009e-09	4.614706e+01	6.318740e+02
1.320000e-06	6.551750e-06	9.689369e-09	4.677649e+01	6.367188e+02
1.330000e-06	6.637608e-06	9.762532e-09	4.738948e+01	6.413267e+02
1.340000e-06	6.721208e-06	9.832454e-09	4.798635e+01	6.457053e+02
1.350000e-06	6.802307e-06	9.896358e-09	4.856535e+01	6.498657e+02
1.360000e-06	6.880823e-06	9.954243e-09	4.912592e+01	6.538213e+02
1.370000e-06	6.956796e-06	1.001034e-08	4.966834e+01	6.575862e+02
1.380000e-06	7.030129e-06	1.006544e-08	5.019190e+01	6.611738e+02
1.390000e-06	7.100884e-06	1.011742e-08	5.069706e+01	6.645949e+02
1.400000e-06	7.169252e-06	1.016573e-08	5.118517e+01	6.678560e+02
1.410000e-06	7.235051e-06	1.021239e-08	5.165495e+01	6.709594e+02
1.420000e-06	7.298213e-06	1.025746e-08	5.210589e+01	6.739026e+02
1.430000e-06	7.358938e-06	1.029990e-08	5.253944e+01	6.766795e+02
1.440000e-06	7.417150e-06	1.033919e-08	5.295505e+01	6.792821e+02
1.450000e-06	7.472707e-06	1.037423e-08	5.335170e+01	6.817019e+02
1.460000e-06	7.525440e-06	1.040611e-08	5.372819e+01	6.839322e+02
1.470000e-06	7.575053e-06	1.043566e-08	5.408240e+01	6.859698e+02
1.480000e-06	7.621690e-06	1.046508e-08	5.441537e+01	6.878163e+02
1.490000e-06	7.665733e-06	1.049214e-08	5.472982e+01	6.894782e+02
1.500000e-06	7.707052e-06	1.051516e-08	5.502482e+01	6.909670e+02
1.510000e-06	7.745552e-06	1.053544e-08	5.529969e+01	6.922979e+02
1.520000e-06	7.781421e-06	1.055293e-08	5.555578e+01	6.934881e+02
1.530000e-06	7.814486e-06	1.057125e-08	5.579185e+01	6.945551e+02
1.540000e-06	7.844757e-06	1.058868e-08	5.600797e+01	6.955144e+02
1.550000e-06	7.872389e-06	1.060406e-08	5.620525e+01	6.963781e+02
1.560000e-06	7.897060e-06	1.061768e-08	5.638139e+01	6.971532e+02
1.570000e-06	7.918786e-06	1.062712e-08	5.653650e+01	6.978419e+02
1.580000e-06	7.937863e-06	1.063483e-08	5.667270e+01	6.984412e+02
1.590000e-06	7.954058e-06	1.064239e-08	5.678832e+01	6.989444e+02
1.600000e-06	7.967134e-06	1.064864e-08	5.688169e+01	6.993422e+02
1.610000e-06	7.977036e-06	1.065363e-08	5.695238e+01	6.996250e+02
1.620000e-06	7.983936e-06	1.065764e-08	5.700164e+01	6.997843e+02
1.630000e-06	7.988159e-06	1.066085e-08	5.703180e+01	6.998145e+02
1.640000e-06	7.989519e-06	1.066211e-08	5.704150e+01	6.997139e+02
1.650000e-06	7.988017e-06	1.065636e-08	5.703078e+01	6.994856e+02
1.660000e-06	7.983970e-06	1.064887e-08	5.700188e+01	6.991364e+02
1.670000e-06	7.977202e-06	1.064380e-08	5.695356e+01	6.986773e+02
1.680000e-06	7.967731e-06	1.063813e-08	5.688595e+01	6.981211e+02
1.690000e-06	7.955583e-06	1.063283e-08	5.679922e+01	6.974817e+02
1.700000e-06	7.940564e-06	1.062981e-08	5.669198e+01	6.967722e+02
1.710000e-06	7.922972e-06	1.062379e-08	5.656639e+01	6.960036e+02
1.720000e-06	7.903212e-06	1.059755e-08	5.642531e+01	6.951839e+02
1.730000e-06	7.880947e-06	1.049832e-08	5.626635e+01	6.943176e+02
1.740000e-06	7.855450e-06	1.048237e-08	5.608431e+01	6.934053e+02
1.750000e-06	7.826323e-06	1.051985e-08	5.587636e+01	6.924443e+02
1.760000e-06	7.793903e-06	1.050618e-08	5.564489e+01	6.914290e+02
1.770000e-06	7.758969e-06	1.049152e-08	5.539548e+01	6.903518e+02
1.780000e-06	7.721613e-06	1.054152e-08	5.512877e+01	6.892039e+02
1.790000e-06	7.681992e-06	1.054157e-08	5.484590e+01	6.879760e+02
1.800000e-06	7.640435e-06	1.041431e-08	5.454921e+01	6.866587e+02
1.810000e-06	7.596411e-06	1.047610e-08	5.423489e+01	6.852428e+02
1.820000e-06	7.549675e-06	1.043533e-08	5.390122e+01	6.837197e+02
1.830000e-06	7.500239e-06	1.039417e-08	5.354827e+01	6.820810e+02
1.840000e-06	7.447742e-06	1.043408e-08	5.317346e+01	6.803188e+02
1.850000e-06	7.392409e-06	1.035719e-08	5.277841e+01	6.784254e+02
1.860000e-06	7.334434e-06	1.038413e-08	5.236449e+01	6.763939e+02
1.870000e-06	7.273772e-06	1.027458e-08	5.193140e+01	6.742183e+02
1.880000e-06	7.210445e-06	1.024701e-08	5.147927e+01	6.718938e+02
1.890000e-06	7.144308e-06	1.026018e-08	5.100708e+01	6.694178e+02
1.900000e-06	7.075366e-06	1.014563e-08	5.051487e+01	6.667898e+02
1.910000e-06	7.003592e-06	1.014262e-08	5.000244e+01	6.640121e+02
1.920000e-06	6.929142e-06	1.009160e-08	4.947090e+01	6.610898e+02
1.930000e-06	6.852005e-06	1.006435e-08	4.892018e+01	6.580300e+02
1.940000e-06	6.772134e-06	9.978654e-09	4.834993e+01	6.548415e+02
1.950000e-06	6.689806e-06	9.925760e-09	4.776215e+01	6.515337e+02
1.960000e-06	6.605011e-06	9.917776e-09	4.715675e+01	6.481151e+02
1.970000e-06	6.517715e-06	9.823766e-09	4.653350e+01	6.445921e+02
1.980000e-06	6.428059e-06	9.792789e-09	4.589339e+01	6.409678e+02
1.990000e-06	6.336237e-06	9.742625e-09	4.523783e+01	6.372414e+02
2.000000e-06	6.242145e-06	9.688836e-09	4.456606e+01	6.334076e+02
2.010000e-06	6.145690e-06	9.595153e-09	4.387741e+01	6.294572e+02
2.020000e-06	6.047091e-06	9.534669e-09	4.317345e+01	6.253777e+02
2.030000e-06	5.946343e-06	9.487826e-09	4.245416e+01	6.211549e+02
2.040000e-06	5.843458e-06	9.414180e-09	4.171961e+01	6.167745e+02
2.050000e-06	5.738520e-06	9.342939e-09	4.097040e+01	6.122235e+02
2.060000e-06	5.631658e-06	9.270429e-09	4.020745e+01	6.074922e+02
2.070000e-06	5.522908e-06	9.202697e-09	3.943103e+01	6.025749e+02
2.080000e-06	5.412163e-06	9.103444e-09	3.864036e+01	5.974701e+02
2.090000e-06	5.299391e-06	9.026800e-09	3.783522e+01	5.921807e+02
2.100000e-06	5.184571e-06	8.948255e-09	3.701546e+01	5.867123e+02
2.110000e-06	5.067759e-06	8.867536e-09	3.618148e+01	5.810721e+02
2.120000e-06	4.948978e-06	8.775157e-09	3.533343e+01	5.752666e+02
2.130000e-06	4.828307e-06	8.689644e-09	3.447190e+01	5.692998e+02
2.140000e-06	4.705885e-06	8.598497e-09	3.359786e+01	5.631717e+02
2.150000e-06	4.581754e-06	8.495039e-09	3.271162e+01	5.568769e+02
2.160000e-06	4.455917e-06	8.391962e-09	3.181320e+01	5.504048e+02
2.170000e-06	4.328432e-06	8.291904e-09	3.090302e+01	5.437399e+02
2.180000e-06	4.199355e-06	8.194282e-09	2.998147e+01	5.368634e+02
2.190000e-06	4.068754e-06	8.087388e-09	2.904904e+01	5.297552e+02
2.200000e-06	3.936671e-06	7.976533e-09	2.810603e+01	5.223958e+02
2.210000e-06	3.803139e-06	7.853854e-09	2.715267e+01	5.147691e+02
2.220000e-06	3.668180e-06	7.731583e-09	2.618913e+01	5.068636e+02
2.230000e-06	3.531891e-06	7.609150e-09	2.521608e+01	4.986735e+02
2.240000e-06	3.394273e-06	7.487550e-09	2.423355e+01	4.901982e+02
2.250000e-06	3.255258e-06	7.357682e-09	2.324105e+01	4.814419e+02
2.260000e-06	3.114951e-06	7.223000e-09	2.223932e+01	4.724108e+02
2.270000e-06	2.973397e-06	7.080513e-09	2.122869e+01	4.631109e+02
2.280000e-06	2.830693e-06	6.929186e-09	2.020985e+01	4.535448e+02
2.290000e-06	2.686957e-06	6.775864e-09	1.918364e+01	4.437094e+02
2.300000e-06	2.542310e-06	6.621760e-09	1.815093e+01	4.335938e+02
2.310000e-06	2.396868e-06	6.466028e-09	1.711254e+01	4.231789e+02
2.320000e-06	2.250635e-06	6.303815e-09	1.606850e+01	4.124376e+02
2.330000e-06	2.103552e-06	6.137391e-09	1.501840e+01	4.013369e+02
2.340000e-06	1.955699e-06	5.965015e-09	1.396280e+01	3.898407e+02
2.350000e-06	1.807258e-06	5.781571e-09	1.290299e+01	3.779133e+02
2.360000e-06	1.658296e-06	5.587800e-09	1.183947e+01	3.655234e+02
2.370000e-06	1.508792e-06	5.387487e-09	1.077208e+01	3.526465e+02
2.380000e-06	1.358705e-06	5.187605e-09	9.700530e+00	3.392676e+02
2.390000e-06	1.208093e-06	4.980897e-09	8.625229e+00	3.253808e+02
2.400000e-06	1.057044e-06	4.762175e-09	7.546810e+00	3.109877e+02
2.410000e-06	9.056851e-07	4.534168e-09	6.466177e+00	2.960946e+02
2.420000e-06	7.541060e-07	4.298329e-09	5.383971e+00	2.807065e+02
2.430000e-06	6.023405e-07	4.058208e-09	4.300435e+00	2.648222e+02
2.440000e-06	4.503804e-07	3.811051e-09	3.215509e+00	2.484279e+02
2.450000e-06	2.982441e-07	3.555172e-09	2.129326e+00	2.314929e+02
2.460000e-06	1.459785e-07	3.285782e-09	1.042220e+00	2.139659e+02
2.470000e-06	-6.426614e-09	3.003456e-09	-4.588308e-02	1.957754e+02
2.480000e-06	-1.588618e-07	2.712310e-09	-1.134201e+00	1.768320e+02
2.490000e-06	-3.112284e-07	2.407524e-09	-2.222028e+00	1.570352e+02
2.500000e-06	-4.634544e-07	2.088020e-09	-3.308852e+00	1.362816e+02
2.510000e-06	-6.154852e-07	1.754131e-09	-4.394282e+00	1.144773e+02
2.520000e-06	-7.673842e-07	1.406097e-09	-5.478772e+00	9.154963e+01
2.530000e-06	-9.190996e-07	1.045487e-09	-6.561950e+00	6.745998e+01
2.540000e-06	-1.070495e-06	6.717285e-10	-7.642845e+00	4.221444e+01
2.550000e-06	-1.221581e-06	2.805536e-10	-8.721529e+00	1.587174e+01
2.560000e-06	-1.372282e-06	-1.332052e-10	-9.797461e+00	-1.145286e+01
2.570000e-06	-1.522372e-06	-5.663682e-10	-1.086904e+01	-3.958837e+01
2.580000e-06	-1.671831e-06	-1.010436e-09	-1.193611e+01	-6.831376e+01
2.590000e-06	-1.820706e-06	-1.458241e-09	-1.299900e+01	-9.736827e+01
2.600000e-06	-1.968886e-06	-1.907680e-09	-1.405694e+01	-1.264654e+02
2.610000e-06	-2.116274e-06	-2.356165e-09	-1.510923e+01	-1.553096e+02
2.620000e-06	-2.262846e-06	-2.794085e-09	-1.615569e+01	-1.836134e+02
2.630000e-06	-2.408621e-06	-3.212899e-09	-1.719645e+01	-2.111144e+02
2.640000e-06	-2.553502e-06	-3.613003e-09	-1.823083e+01	-2.375900e+02
2.650000e-06	-2.697380e-06	-3.994993e-09	-1.925806e+01	-2.628677e+02
2.660000e-06	-2.840271e-06	-4.358322e-09	-2.027823e+01	-2.868319e+02
2.670000e-06	-2.982090e-06	-4.702333e-09	-2.129075e+01	-3.094256e+02
2.680000e-06	-3.122684e-06	-5.025982e-09	-2.229453e+01	-3.306463e+02
2.690000e-06	-3.261919e-06	-5.328983e-09	-2.328861e+01	-3.505394e+02
2.700000e-06	-3.399856e-06	-5.614708e-09	-2.427341e+01	-3.691868e+02
2.710000e-06	-3.536550e-06	-5.885805e-09	-2.524935e+01	-3.866951e+02
2.720000e-06	-3.671972e-06	-6.142760e-09	-2.621619e+01	-4.031823e+02
2.730000e-06	-3.806103e-06	-6.386104e-09	-2.717383e+01	-4.187657e+02
2.740000e-06	-3.938787e-06	-6.615683e-09	-2.812113e+01	-4.335526e+02
2.750000e-06	-4.069986e-06	-6.834774e-09	-2.905784e+01	-4.476329e+02
2.760000e-06	-4.199851e-06	-7.044468e-09	-2.998501e+01	-4.610754e+02
2.770000e-06	-4.328328e-06	-7.243313e-09	-3.090228e+01	-4.739273e+02
2.780000e-06	-4.455318e-06	-7.431543e-09	-3.180893e+01	-4.862168e+02
2.790000e-06	-4.580814e-06	-7.607464e-09	-3.270491e+01	-4.979573e+02
2.800000e-06	-4.704613e-06	-7.772472e-09	-3.358878e+01	-5.091530e+02
2.810000e-06	-4.826736e-06	-7.930391e-09	-3.446068e+01	-5.198048e+02
2.820000e-06	-4.947216e-06	-8.082268e-09	-3.532085e+01	-5.299157e+02
2.830000e-06	-5.065821e-06	-8.227736e-09	-3.616764e+01	-5.394946e+02
2.840000e-06	-5.182328e-06	-8.366914e-09	-3.699945e+01	-5.485584e+02
2.850000e-06	-5.296674e-06	-8.499840e-09	-3.781583e+01	-5.571327e+02
2.860000e-06	-5.408892e-06	-8.626761e-09	-3.861701e+01	-5.652504e+02
2.870000e-06	-5.518948e-06	-8.747501e-09	-3.940276e+01	-5.729494e+02
2.880000e-06	-5.627087e-06	-8.861165e-09	-4.017482e+01	-5.802688e+02
2.890000e-06	-5.733461e-06	-8.967949e-09	-4.093428e+01	-5.872464e+02
2.900000e-06	-5.837835e-06	-9.069064e-09	-4.167946e+01	-5.939151e+02
2.910000e-06	-5.939934e-06	-9.165570e-09	-4.240841e+01	-6.003014e+02
2.920000e-06	-6.039722e-06	-9.256403e-09	-4.312085e+01	-6.064243e+02
2.930000e-06	-6.137385e-06	-9.344246e-09	-4.381812e+01	-6.122956e+02
2.940000e-06	-6.232972e-06	-9.430266e-09	-4.450056e+01	-6.179212e+02
