# Temperatura_=_59.77
# Concentracion g/m^3_=_10000.0
# C_Vs_to_Am_M_A/Vsm_=_65563218390.804596
# pendiente_HvsI_1/m_=_3716.3
# ordenada_HvsI_A/m_=_1297.0
# frecuencia_Hz_=_302614.768914106

Tiempo_(s)	Campo_(V.s)	Magnetizacion_(V.s)	Campo_(kA/m)	Magnetizacion_(A/m)
0.000000e+00	-7.889234e-06	-1.095803e-08	-5.683258e+01	-7.181046e+02
1.000000e-08	-7.887055e-06	-1.096003e-08	-5.681688e+01	-7.178065e+02
2.000000e-08	-7.882149e-06	-1.095572e-08	-5.678154e+01	-7.173790e+02
3.000000e-08	-7.874772e-06	-1.094775e-08	-5.672839e+01	-7.168355e+02
4.000000e-08	-7.864650e-06	-1.093710e-08	-5.665548e+01	-7.161914e+02
5.000000e-08	-7.851596e-06	-1.092399e-08	-5.656144e+01	-7.154622e+02
6.000000e-08	-7.835634e-06	-1.091046e-08	-5.644645e+01	-7.146619e+02
7.000000e-08	-7.817117e-06	-1.089731e-08	-5.631306e+01	-7.138018e+02
8.000000e-08	-7.796374e-06	-1.088221e-08	-5.616363e+01	-7.128893e+02
9.000000e-08	-7.773025e-06	-1.090586e-08	-5.599543e+01	-7.119277e+02
1.000000e-07	-7.746497e-06	-1.093005e-08	-5.580433e+01	-7.109162e+02
1.100000e-07	-7.716821e-06	-1.089263e-08	-5.559055e+01	-7.098507e+02
1.200000e-07	-7.684345e-06	-1.084274e-08	-5.535660e+01	-7.087244e+02
1.300000e-07	-7.649189e-06	-1.081255e-08	-5.510334e+01	-7.075286e+02
1.400000e-07	-7.611620e-06	-1.078288e-08	-5.483270e+01	-7.062539e+02
1.500000e-07	-7.571886e-06	-1.071747e-08	-5.454646e+01	-7.048907e+02
1.600000e-07	-7.529918e-06	-1.068946e-08	-5.424413e+01	-7.034293e+02
1.700000e-07	-7.485388e-06	-1.073901e-08	-5.392334e+01	-7.018606e+02
1.800000e-07	-7.438157e-06	-1.066293e-08	-5.358310e+01	-7.001761e+02
1.900000e-07	-7.388120e-06	-1.062708e-08	-5.322264e+01	-6.983672e+02
2.000000e-07	-7.335093e-06	-1.063989e-08	-5.284065e+01	-6.964258e+02
2.100000e-07	-7.279290e-06	-1.055109e-08	-5.243866e+01	-6.943440e+02
2.200000e-07	-7.220808e-06	-1.052260e-08	-5.201736e+01	-6.921148e+02
2.300000e-07	-7.159727e-06	-1.050305e-08	-5.157734e+01	-6.897316e+02
2.400000e-07	-7.096102e-06	-1.047818e-08	-5.111900e+01	-6.871899e+02
2.500000e-07	-7.029731e-06	-1.041775e-08	-5.064088e+01	-6.844871e+02
2.600000e-07	-6.960637e-06	-1.037193e-08	-5.014314e+01	-6.816233e+02
2.700000e-07	-6.888866e-06	-1.034730e-08	-4.962611e+01	-6.786015e+02
2.800000e-07	-6.814361e-06	-1.028404e-08	-4.908939e+01	-6.754277e+02
2.900000e-07	-6.737088e-06	-1.022939e-08	-4.853273e+01	-6.721099e+02
3.000000e-07	-6.657050e-06	-1.018274e-08	-4.795615e+01	-6.686579e+02
3.100000e-07	-6.574534e-06	-1.014111e-08	-4.736172e+01	-6.650813e+02
3.200000e-07	-6.489834e-06	-1.008265e-08	-4.675156e+01	-6.613885e+02
3.300000e-07	-6.402901e-06	-1.001774e-08	-4.612531e+01	-6.575852e+02
3.400000e-07	-6.313642e-06	-9.970148e-09	-4.548231e+01	-6.536733e+02
3.500000e-07	-6.222047e-06	-9.905802e-09	-4.482248e+01	-6.496502e+02
3.600000e-07	-6.128258e-06	-9.835007e-09	-4.414684e+01	-6.455088e+02
3.700000e-07	-6.032284e-06	-9.770771e-09	-4.345545e+01	-6.412378e+02
3.800000e-07	-5.934018e-06	-9.709077e-09	-4.274757e+01	-6.368232e+02
3.900000e-07	-5.833555e-06	-9.638305e-09	-4.202385e+01	-6.322501e+02
4.000000e-07	-5.731009e-06	-9.562660e-09	-4.128512e+01	-6.275039e+02
4.100000e-07	-5.626460e-06	-9.491012e-09	-4.053198e+01	-6.225729e+02
4.200000e-07	-5.519957e-06	-9.410214e-09	-3.976475e+01	-6.174493e+02
4.300000e-07	-5.411518e-06	-9.330960e-09	-3.898357e+01	-6.121301e+02
4.400000e-07	-5.301194e-06	-9.252589e-09	-3.818882e+01	-6.066174e+02
4.500000e-07	-5.188969e-06	-9.168333e-09	-3.738037e+01	-6.009175e+02
4.600000e-07	-5.074733e-06	-9.074277e-09	-3.655744e+01	-5.950392e+02
4.700000e-07	-4.958462e-06	-8.980633e-09	-3.571984e+01	-5.889923e+02
4.800000e-07	-4.840321e-06	-8.889613e-09	-3.486877e+01	-5.827850e+02
4.900000e-07	-4.720376e-06	-8.792715e-09	-3.400471e+01	-5.764215e+02
5.000000e-07	-4.598653e-06	-8.693936e-09	-3.312784e+01	-5.699011e+02
5.100000e-07	-4.475289e-06	-8.591055e-09	-3.223915e+01	-5.632166e+02
5.200000e-07	-4.350313e-06	-8.482333e-09	-3.133885e+01	-5.563544e+02
5.300000e-07	-4.223717e-06	-8.369139e-09	-3.042688e+01	-5.492961e+02
5.400000e-07	-4.095592e-06	-8.257084e-09	-2.950388e+01	-5.420196e+02
5.500000e-07	-3.965986e-06	-8.144027e-09	-2.857022e+01	-5.345020e+02
5.600000e-07	-3.834881e-06	-8.023953e-09	-2.762577e+01	-5.267220e+02
5.700000e-07	-3.702306e-06	-7.899133e-09	-2.667072e+01	-5.186625e+02
5.800000e-07	-3.568353e-06	-7.770682e-09	-2.570575e+01	-5.103120e+02
5.900000e-07	-3.433066e-06	-7.638497e-09	-2.473117e+01	-5.016656e+02
6.000000e-07	-3.296418e-06	-7.501937e-09	-2.374678e+01	-4.927248e+02
6.100000e-07	-3.158474e-06	-7.363699e-09	-2.275306e+01	-4.834955e+02
6.200000e-07	-3.019195e-06	-7.221130e-09	-2.174972e+01	-4.739863e+02
6.300000e-07	-2.878565e-06	-7.073068e-09	-2.073665e+01	-4.642049e+02
6.400000e-07	-2.736765e-06	-6.921096e-09	-1.971514e+01	-4.541552e+02
6.500000e-07	-2.593904e-06	-6.765508e-09	-1.868601e+01	-4.438346e+02
6.600000e-07	-2.450052e-06	-6.600940e-09	-1.764972e+01	-4.332324e+02
6.700000e-07	-2.305306e-06	-6.427155e-09	-1.660699e+01	-4.223288e+02
6.800000e-07	-2.159725e-06	-6.251033e-09	-1.555826e+01	-4.110962e+02
6.900000e-07	-2.013417e-06	-6.070518e-09	-1.450429e+01	-3.995010e+02
7.000000e-07	-1.866438e-06	-5.887002e-09	-1.344547e+01	-3.875070e+02
7.100000e-07	-1.718896e-06	-5.698190e-09	-1.238261e+01	-3.750790e+02
7.200000e-07	-1.570915e-06	-5.504233e-09	-1.131658e+01	-3.621865e+02
7.300000e-07	-1.422497e-06	-5.301655e-09	-1.024741e+01	-3.488068e+02
7.400000e-07	-1.273608e-06	-5.089832e-09	-9.174836e+00	-3.349259e+02
7.500000e-07	-1.124256e-06	-4.872909e-09	-8.098934e+00	-3.205389e+02
7.600000e-07	-9.745550e-07	-4.647858e-09	-7.020513e+00	-3.056475e+02
7.700000e-07	-8.245568e-07	-4.415197e-09	-5.939954e+00	-2.902559e+02
7.800000e-07	-6.742805e-07	-4.173237e-09	-4.857392e+00	-2.743658e+02
7.900000e-07	-5.237859e-07	-3.923967e-09	-3.773257e+00	-2.579699e+02
8.000000e-07	-3.731008e-07	-3.667680e-09	-2.687749e+00	-2.410468e+02
8.100000e-07	-2.222461e-07	-3.402000e-09	-1.601020e+00	-2.235564e+02
8.200000e-07	-7.124485e-08	-3.123064e-09	-5.132347e-01	-2.054379e+02
8.300000e-07	7.982206e-08	-2.831266e-09	5.750233e-01	-1.866107e+02
8.400000e-07	2.308721e-07	-2.526910e-09	1.663160e+00	-1.669782e+02
8.500000e-07	3.818672e-07	-2.207850e-09	2.750900e+00	-1.464359e+02
8.600000e-07	5.327477e-07	-1.876374e-09	3.837816e+00	-1.248811e+02
8.700000e-07	6.834471e-07	-1.534422e-09	4.923426e+00	-1.022254e+02
8.800000e-07	8.339794e-07	-1.177090e-09	6.007833e+00	-7.840748e+01
8.900000e-07	9.842494e-07	-7.995111e-10	7.090350e+00	-5.340521e+01
9.000000e-07	1.134155e-06	-4.059357e-10	8.170245e+00	-2.724578e+01
9.100000e-07	1.283662e-06	2.921856e-12	9.247263e+00	-1.214934e-02
9.200000e-07	1.432769e-06	4.288265e-10	1.032140e+01	2.815484e+01
9.300000e-07	1.581426e-06	8.732975e-10	1.139230e+01	5.705933e+01
9.400000e-07	1.729504e-06	1.329426e-09	1.245903e+01	8.645825e+01
9.500000e-07	1.876973e-06	1.788344e-09	1.352137e+01	1.160735e+02
9.600000e-07	2.023777e-06	2.243623e-09	1.457891e+01	1.456077e+02
9.700000e-07	2.169883e-06	2.689570e-09	1.563143e+01	1.747614e+02
9.800000e-07	2.315186e-06	3.124345e-09	1.667817e+01	2.032510e+02
9.900000e-07	2.459553e-06	3.542019e-09	1.771816e+01	2.308251e+02
1.000000e-06	2.602921e-06	3.939513e-09	1.875096e+01	2.572780e+02
1.010000e-06	2.745265e-06	4.316238e-09	1.977638e+01	2.824587e+02
1.020000e-06	2.886605e-06	4.674266e-09	2.079457e+01	3.062755e+02
1.030000e-06	3.026817e-06	5.011891e-09	2.180463e+01	3.286954e+02
1.040000e-06	3.165706e-06	5.329279e-09	2.280516e+01	3.497385e+02
1.050000e-06	3.303277e-06	5.630532e-09	2.379619e+01	3.694691e+02
1.060000e-06	3.439554e-06	5.914069e-09	2.477791e+01	3.879836e+02
1.070000e-06	3.574479e-06	6.181559e-09	2.574989e+01	4.053973e+02
1.080000e-06	3.708176e-06	6.434009e-09	2.671301e+01	4.218321e+02
1.090000e-06	3.840616e-06	6.673058e-09	2.766709e+01	4.374041e+02
1.100000e-06	3.971624e-06	6.898535e-09	2.861084e+01	4.522158e+02
1.110000e-06	4.101220e-06	7.112668e-09	2.954443e+01	4.663497e+02
1.120000e-06	4.229362e-06	7.317553e-09	3.046754e+01	4.798662e+02
1.130000e-06	4.355989e-06	7.512610e-09	3.137974e+01	4.928046e+02
1.140000e-06	4.481199e-06	7.699746e-09	3.228173e+01	5.051864e+02
1.150000e-06	4.604920e-06	7.878455e-09	3.317299e+01	5.170205e+02
1.160000e-06	4.727046e-06	8.047656e-09	3.405276e+01	5.283093e+02
1.170000e-06	4.847484e-06	8.208017e-09	3.492037e+01	5.390539e+02
1.180000e-06	4.966140e-06	8.361005e-09	3.577515e+01	5.492596e+02
1.190000e-06	5.082982e-06	8.508940e-09	3.661686e+01	5.589384e+02
1.200000e-06	5.197830e-06	8.650276e-09	3.744420e+01	5.681109e+02
1.210000e-06	5.310609e-06	8.784030e-09	3.825664e+01	5.768056e+02
1.220000e-06	5.421401e-06	8.911464e-09	3.905477e+01	5.850570e+02
1.230000e-06	5.530356e-06	9.035661e-09	3.983966e+01	5.929028e+02
1.240000e-06	5.637433e-06	9.156502e-09	4.061102e+01	6.003803e+02
1.250000e-06	5.742375e-06	9.269385e-09	4.136700e+01	6.075237e+02
1.260000e-06	5.845174e-06	9.372786e-09	4.210755e+01	6.143614e+02
1.270000e-06	5.945893e-06	9.468805e-09	4.283311e+01	6.209146e+02
1.280000e-06	6.044410e-06	9.561053e-09	4.354281e+01	6.271974e+02
1.290000e-06	6.140589e-06	9.648924e-09	4.423567e+01	6.332176e+02
1.300000e-06	6.234519e-06	9.732388e-09	4.491232e+01	6.389786e+02
1.310000e-06	6.326267e-06	9.812063e-09	4.557325e+01	6.444817e+02
1.320000e-06	6.415655e-06	9.890447e-09	4.621719e+01	6.497285e+02
1.330000e-06	6.502726e-06	9.967786e-09	4.684443e+01	6.547226e+02
1.340000e-06	6.587581e-06	1.004289e-08	4.745571e+01	6.594713e+02
1.350000e-06	6.670107e-06	1.011486e-08	4.805021e+01	6.639853e+02
1.360000e-06	6.750191e-06	1.018274e-08	4.862712e+01	6.682790e+02
1.370000e-06	6.827834e-06	1.024518e-08	4.918645e+01	6.723680e+02
1.380000e-06	6.902904e-06	1.030266e-08	4.972724e+01	6.762684e+02
1.390000e-06	6.975302e-06	1.035866e-08	5.024878e+01	6.799940e+02
1.400000e-06	7.045219e-06	1.041186e-08	5.075245e+01	6.835548e+02
1.410000e-06	7.112685e-06	1.046152e-08	5.123846e+01	6.869559e+02
1.420000e-06	7.177569e-06	1.051072e-08	5.170588e+01	6.901972e+02
1.430000e-06	7.239942e-06	1.055890e-08	5.215520e+01	6.932733e+02
1.440000e-06	7.299897e-06	1.060377e-08	5.258710e+01	6.961758e+02
1.450000e-06	7.357264e-06	1.064376e-08	5.300036e+01	6.988941e+02
1.460000e-06	7.411951e-06	1.068025e-08	5.339432e+01	7.014185e+02
1.470000e-06	7.463788e-06	1.071446e-08	5.376775e+01	7.037421e+02
1.480000e-06	7.512582e-06	1.074445e-08	5.411925e+01	7.058621e+02
1.490000e-06	7.558566e-06	1.077315e-08	5.445051e+01	7.077818e+02
1.500000e-06	7.601923e-06	1.080101e-08	5.476284e+01	7.095100e+02
1.510000e-06	7.642528e-06	1.082637e-08	5.505536e+01	7.110607e+02
1.520000e-06	7.680394e-06	1.084836e-08	5.532814e+01	7.124516e+02
1.530000e-06	7.715651e-06	1.086743e-08	5.558212e+01	7.137022e+02
1.540000e-06	7.748137e-06	1.088609e-08	5.581614e+01	7.148310e+02
1.550000e-06	7.777863e-06	1.090360e-08	5.603028e+01	7.158540e+02
1.560000e-06	7.804882e-06	1.091994e-08	5.622493e+01	7.167824e+02
1.570000e-06	7.828976e-06	1.093418e-08	5.639849e+01	7.176217e+02
1.580000e-06	7.850250e-06	1.094530e-08	5.655175e+01	7.183717e+02
1.590000e-06	7.868846e-06	1.095430e-08	5.668570e+01	7.190265e+02
1.600000e-06	7.884543e-06	1.096133e-08	5.679878e+01	7.195764e+02
1.610000e-06	7.897190e-06	1.096666e-08	5.688990e+01	7.200096e+02
1.620000e-06	7.906722e-06	1.097086e-08	5.695856e+01	7.203142e+02
1.630000e-06	7.913304e-06	1.097528e-08	5.700597e+01	7.204806e+02
1.640000e-06	7.917176e-06	1.097988e-08	5.703387e+01	7.205027e+02
1.650000e-06	7.918236e-06	1.098170e-08	5.704150e+01	7.203795e+02
1.660000e-06	7.916492e-06	1.097536e-08	5.702894e+01	7.201150e+02
1.670000e-06	7.912173e-06	1.096838e-08	5.699782e+01	7.197181e+02
1.680000e-06	7.905204e-06	1.096186e-08	5.694762e+01	7.192016e+02
1.690000e-06	7.895545e-06	1.095246e-08	5.687804e+01	7.185805e+02
1.700000e-06	7.883187e-06	1.094298e-08	5.678902e+01	7.178706e+02
1.710000e-06	7.868029e-06	1.093706e-08	5.667982e+01	7.170863e+02
1.720000e-06	7.850352e-06	1.093116e-08	5.655248e+01	7.162398e+02
1.730000e-06	7.830438e-06	1.090469e-08	5.640902e+01	7.153393e+02
1.740000e-06	7.807943e-06	1.082247e-08	5.624697e+01	7.143893e+02
1.750000e-06	7.782193e-06	1.079420e-08	5.606147e+01	7.133899e+02
1.760000e-06	7.752892e-06	1.080983e-08	5.585040e+01	7.123379e+02
1.770000e-06	7.720457e-06	1.079911e-08	5.561674e+01	7.112269e+02
1.780000e-06	7.685565e-06	1.079165e-08	5.536539e+01	7.100488e+02
1.790000e-06	7.648376e-06	1.083818e-08	5.509748e+01	7.087942e+02
1.800000e-06	7.608977e-06	1.082577e-08	5.481366e+01	7.074534e+02
1.810000e-06	7.567543e-06	1.072844e-08	5.451518e+01	7.060168e+02
1.820000e-06	7.523631e-06	1.076640e-08	5.419884e+01	7.044752e+02
1.830000e-06	7.477080e-06	1.072418e-08	5.386350e+01	7.028198e+02
1.840000e-06	7.427805e-06	1.070790e-08	5.350853e+01	7.010422e+02
1.850000e-06	7.375511e-06	1.071683e-08	5.313181e+01	6.991341e+02
1.860000e-06	7.320416e-06	1.064539e-08	5.273492e+01	6.970875e+02
1.870000e-06	7.262613e-06	1.064993e-08	5.231852e+01	6.948952e+02
1.880000e-06	7.202224e-06	1.055073e-08	5.188349e+01	6.925504e+02
1.890000e-06	7.139193e-06	1.053188e-08	5.142942e+01	6.900481e+02
1.900000e-06	7.073391e-06	1.052071e-08	5.095540e+01	6.873851e+02
1.910000e-06	7.004882e-06	1.042471e-08	5.046187e+01	6.845607e+02
1.920000e-06	6.933566e-06	1.041782e-08	4.994813e+01	6.815774e+02
1.930000e-06	6.859553e-06	1.036189e-08	4.941495e+01	6.784403e+02
1.940000e-06	6.782866e-06	1.032024e-08	4.886251e+01	6.751571e+02
1.950000e-06	6.703447e-06	1.024947e-08	4.829039e+01	6.717372e+02
1.960000e-06	6.621524e-06	1.019833e-08	4.770023e+01	6.681902e+02
1.970000e-06	6.537201e-06	1.016293e-08	4.709278e+01	6.645252e+02
1.980000e-06	6.450482e-06	1.006836e-08	4.646807e+01	6.607486e+02
1.990000e-06	6.361387e-06	1.003128e-08	4.582625e+01	6.568633e+02
2.000000e-06	6.270067e-06	9.974289e-09	4.516840e+01	6.528680e+02
2.010000e-06	6.176568e-06	9.908703e-09	4.449485e+01	6.487564e+02
2.020000e-06	6.080814e-06	9.829738e-09	4.380506e+01	6.445184e+02
2.030000e-06	5.982896e-06	9.768169e-09	4.309967e+01	6.401406e+02
2.040000e-06	5.882869e-06	9.707883e-09	4.237909e+01	6.356079e+02
2.050000e-06	5.780770e-06	9.624679e-09	4.164360e+01	6.309057e+02
2.060000e-06	5.676567e-06	9.551042e-09	4.089293e+01	6.260212e+02
2.070000e-06	5.570389e-06	9.473480e-09	4.012805e+01	6.209456e+02
2.080000e-06	5.462336e-06	9.390159e-09	3.934966e+01	6.156747e+02
2.090000e-06	5.352349e-06	9.294952e-09	3.855733e+01	6.102094e+02
2.100000e-06	5.240368e-06	9.218945e-09	3.775064e+01	6.045549e+02
2.110000e-06	5.126423e-06	9.136440e-09	3.692980e+01	5.987197e+02
2.120000e-06	5.010544e-06	9.045690e-09	3.609503e+01	5.927135e+02
2.130000e-06	4.892747e-06	8.951275e-09	3.524644e+01	5.865451e+02
2.140000e-06	4.773045e-06	8.856576e-09	3.438413e+01	5.802199e+02
2.150000e-06	4.651523e-06	8.757015e-09	3.350871e+01	5.737386e+02
2.160000e-06	4.528360e-06	8.652400e-09	3.262147e+01	5.670955e+02
2.170000e-06	4.403502e-06	8.549818e-09	3.172201e+01	5.602787e+02
2.180000e-06	4.277023e-06	8.444561e-09	3.081088e+01	5.532708e+02
2.190000e-06	4.148966e-06	8.336019e-09	2.988838e+01	5.460504e+02
2.200000e-06	4.019345e-06	8.221197e-09	2.895461e+01	5.385946e+02
2.210000e-06	3.888194e-06	8.102547e-09	2.800983e+01	5.308815e+02
2.220000e-06	3.755589e-06	7.979156e-09	2.705457e+01	5.228926e+02
2.230000e-06	3.621646e-06	7.856843e-09	2.608967e+01	5.146149e+02
2.240000e-06	3.486417e-06	7.730202e-09	2.511550e+01	5.060420e+02
2.250000e-06	3.349881e-06	7.596871e-09	2.413192e+01	4.971738e+02
2.260000e-06	3.212048e-06	7.455557e-09	2.313900e+01	4.880153e+02
2.270000e-06	3.073016e-06	7.312543e-09	2.213744e+01	4.785747e+02
2.280000e-06	2.932779e-06	7.165188e-09	2.112720e+01	4.688602e+02
2.290000e-06	2.791316e-06	7.010157e-09	2.010812e+01	4.588769e+02
2.300000e-06	2.648776e-06	6.854358e-09	1.908129e+01	4.486241e+02
2.310000e-06	2.505374e-06	6.697091e-09	1.804825e+01	4.380932e+02
2.320000e-06	2.361079e-06	6.536209e-09	1.700878e+01	4.272667e+02
2.330000e-06	2.215918e-06	6.367650e-09	1.596307e+01	4.161187e+02
2.340000e-06	2.070065e-06	6.192133e-09	1.491237e+01	4.046169e+02
2.350000e-06	1.923536e-06	6.008586e-09	1.385680e+01	3.927254e+02
2.360000e-06	1.776331e-06	5.815594e-09	1.279636e+01	3.804084e+02
2.370000e-06	1.628561e-06	5.616694e-09	1.173185e+01	3.676340e+02
2.380000e-06	1.480340e-06	5.414381e-09	1.066409e+01	3.543771e+02
2.390000e-06	1.331645e-06	5.209094e-09	9.592921e+00	3.406217e+02
2.400000e-06	1.182450e-06	4.996132e-09	8.518152e+00	3.263607e+02
2.410000e-06	1.032816e-06	4.772299e-09	7.440215e+00	3.115944e+02
2.420000e-06	8.828138e-07	4.539511e-09	6.359627e+00	2.963270e+02
2.430000e-06	7.325633e-07	4.299723e-09	5.277250e+00	2.805611e+02
2.440000e-06	5.821102e-07	4.053686e-09	4.193414e+00	2.642924e+02
2.450000e-06	4.314341e-07	3.798602e-09	3.107971e+00	2.475035e+02
2.460000e-06	2.805766e-07	3.531703e-09	2.021222e+00	2.301592e+02
2.470000e-06	1.295553e-07	3.253567e-09	9.332923e-01	2.122040e+02
2.480000e-06	-2.155329e-08	2.964692e-09	-1.552659e-01	1.935619e+02
2.490000e-06	-1.726234e-07	2.666097e-09	-1.243547e+00	1.741398e+02
2.500000e-06	-3.236617e-07	2.355976e-09	-2.331599e+00	1.538343e+02
2.510000e-06	-4.746081e-07	2.029201e-09	-3.418989e+00	1.325411e+02
2.520000e-06	-6.253450e-07	1.685650e-09	-4.504869e+00	1.101670e+02
2.530000e-06	-7.758575e-07	1.327081e-09	-5.589133e+00	8.664284e+01
2.540000e-06	-9.261456e-07	9.566588e-10	-6.671781e+00	6.193557e+01
2.550000e-06	-1.076183e-06	5.738700e-10	-7.752624e+00	3.605932e+01
2.560000e-06	-1.225872e-06	1.698956e-10	-8.830952e+00	9.082699e+00
2.570000e-06	-1.375081e-06	-2.564973e-10	-9.905831e+00	-1.886785e+01
2.580000e-06	-1.523766e-06	-6.982619e-10	-1.097693e+01	-4.760968e+01
2.590000e-06	-1.671942e-06	-1.150401e-09	-1.204436e+01	-7.691053e+01
2.600000e-06	-1.819470e-06	-1.608506e-09	-1.310712e+01	-1.064997e+02
2.610000e-06	-1.966262e-06	-2.066446e-09	-1.416458e+01	-1.360831e+02
2.620000e-06	-2.112395e-06	-2.519952e-09	-1.521730e+01	-1.653600e+02
2.630000e-06	-2.257799e-06	-2.962614e-09	-1.626477e+01	-1.940412e+02
2.640000e-06	-2.402334e-06	-3.386918e-09	-1.730597e+01	-2.218661e+02
2.650000e-06	-2.545902e-06	-3.789970e-09	-1.834021e+01	-2.486163e+02
2.660000e-06	-2.688407e-06	-4.173737e-09	-1.936679e+01	-2.741266e+02
2.670000e-06	-2.829755e-06	-4.541380e-09	-2.038503e+01	-2.982903e+02
2.680000e-06	-2.969902e-06	-4.889069e-09	-2.139462e+01	-3.210601e+02
2.690000e-06	-3.108849e-06	-5.213800e-09	-2.239557e+01	-3.424435e+02
2.700000e-06	-3.246657e-06	-5.518710e-09	-2.338832e+01	-3.624948e+02
2.710000e-06	-3.383261e-06	-5.807216e-09	-2.437238e+01	-3.813035e+02
2.720000e-06	-3.518592e-06	-6.080298e-09	-2.534729e+01	-3.989817e+02
2.730000e-06	-3.652681e-06	-6.339071e-09	-2.631324e+01	-4.156505e+02
2.740000e-06	-3.785477e-06	-6.583917e-09	-2.726987e+01	-4.314286e+02
2.750000e-06	-3.916906e-06	-6.815288e-09	-2.821667e+01	-4.464224e+02
2.760000e-06	-4.046975e-06	-7.036185e-09	-2.915365e+01	-4.607197e+02
2.770000e-06	-4.175697e-06	-7.248224e-09	-3.008095e+01	-4.743867e+02
2.780000e-06	-4.302921e-06	-7.452261e-09	-3.099745e+01	-4.874676e+02
2.790000e-06	-4.428655e-06	-7.645634e-09	-3.190321e+01	-4.999879e+02
2.800000e-06	-4.552897e-06	-7.824771e-09	-3.279823e+01	-5.119592e+02
2.810000e-06	-4.675459e-06	-7.993512e-09	-3.368114e+01	-5.233848e+02
2.820000e-06	-4.796315e-06	-8.155628e-09	-3.455177e+01	-5.342658e+02
2.830000e-06	-4.915421e-06	-8.311095e-09	-3.540978e+01	-5.446060e+02
2.840000e-06	-5.032581e-06	-8.459975e-09	-3.625378e+01	-5.544155e+02
2.850000e-06	-5.147725e-06	-8.601231e-09	-3.708325e+01	-5.637128e+02
2.860000e-06	-5.260810e-06	-8.735082e-09	-3.789790e+01	-5.725245e+02
2.870000e-06	-5.371727e-06	-8.863631e-09	-3.869692e+01	-5.808839e+02
2.880000e-06	-5.480671e-06	-8.987761e-09	-3.948173e+01	-5.888280e+02
2.890000e-06	-5.587803e-06	-9.106658e-09	-4.025350e+01	-5.963948e+02
2.900000e-06	-5.693017e-06	-9.219929e-09	-4.101144e+01	-6.036195e+02
2.910000e-06	-5.796143e-06	-9.326986e-09	-4.175434e+01	-6.105319e+02
2.920000e-06	-5.896997e-06	-9.427461e-09	-4.248087e+01	-6.171552e+02
2.930000e-06	-5.995731e-06	-9.522208e-09	-4.319213e+01	-6.235052e+02
2.940000e-06	-6.092394e-06	-9.612963e-09	-4.388848e+01	-6.295912e+02
