# Temperatura_=_66.33
# Concentracion g/m^3_=_10000.0
# C_Vs_to_Am_M_A/Vsm_=_65563218390.804596
# pendiente_HvsI_1/m_=_3716.3
# ordenada_HvsI_A/m_=_1297.0
# frecuencia_Hz_=_302625.01515486644

Tiempo_(s)	Campo_(V.s)	Magnetizacion_(V.s)	Campo_(kA/m)	Magnetizacion_(A/m)
0.000000e+00	-7.963989e-06	-1.124404e-08	-5.681384e+01	-7.365796e+02
1.000000e-08	-7.959371e-06	-1.124075e-08	-5.678090e+01	-7.361705e+02
2.000000e-08	-7.952193e-06	-1.123424e-08	-5.672969e+01	-7.356491e+02
3.000000e-08	-7.942214e-06	-1.122528e-08	-5.665850e+01	-7.350267e+02
4.000000e-08	-7.929305e-06	-1.121485e-08	-5.656641e+01	-7.343136e+02
5.000000e-08	-7.913508e-06	-1.120511e-08	-5.645371e+01	-7.335175e+02
6.000000e-08	-7.895126e-06	-1.119729e-08	-5.632258e+01	-7.326438e+02
7.000000e-08	-7.874492e-06	-1.118916e-08	-5.617538e+01	-7.316947e+02
8.000000e-08	-7.851294e-06	-1.120387e-08	-5.600989e+01	-7.306704e+02
9.000000e-08	-7.824979e-06	-1.120214e-08	-5.582216e+01	-7.295691e+02
1.000000e-07	-7.795463e-06	-1.116837e-08	-5.561160e+01	-7.283882e+02
1.100000e-07	-7.763086e-06	-1.112589e-08	-5.538063e+01	-7.271249e+02
1.200000e-07	-7.727999e-06	-1.108885e-08	-5.513032e+01	-7.257768e+02
1.300000e-07	-7.690397e-06	-1.105805e-08	-5.486207e+01	-7.243420e+02
1.400000e-07	-7.650536e-06	-1.101547e-08	-5.457771e+01	-7.228186e+02
1.500000e-07	-7.608371e-06	-1.098360e-08	-5.427691e+01	-7.212047e+02
1.600000e-07	-7.563686e-06	-1.097459e-08	-5.395814e+01	-7.194971e+02
1.700000e-07	-7.516248e-06	-1.094894e-08	-5.361973e+01	-7.176907e+02
1.800000e-07	-7.465909e-06	-1.089891e-08	-5.326061e+01	-7.157781e+02
1.900000e-07	-7.412650e-06	-1.088204e-08	-5.288067e+01	-7.137494e+02
2.000000e-07	-7.356642e-06	-1.084272e-08	-5.248112e+01	-7.115924e+02
2.100000e-07	-7.297955e-06	-1.079176e-08	-5.206245e+01	-7.092937e+02
2.200000e-07	-7.236643e-06	-1.077722e-08	-5.162506e+01	-7.068397e+02
2.300000e-07	-7.172679e-06	-1.074139e-08	-5.116875e+01	-7.042186e+02
2.400000e-07	-7.105944e-06	-1.067781e-08	-5.069268e+01	-7.014215e+02
2.500000e-07	-7.036563e-06	-1.063650e-08	-5.019773e+01	-6.984439e+02
2.600000e-07	-6.964479e-06	-1.060524e-08	-4.968349e+01	-6.952868e+02
2.700000e-07	-6.889572e-06	-1.054865e-08	-4.914912e+01	-6.919563e+02
2.800000e-07	-6.811851e-06	-1.048704e-08	-4.859467e+01	-6.884633e+02
2.900000e-07	-6.731327e-06	-1.043577e-08	-4.802022e+01	-6.848220e+02
3.000000e-07	-6.648357e-06	-1.037328e-08	-4.742833e+01	-6.810479e+02
3.100000e-07	-6.563217e-06	-1.030815e-08	-4.682095e+01	-6.771553e+02
3.200000e-07	-6.475767e-06	-1.026147e-08	-4.619709e+01	-6.731555e+02
3.300000e-07	-6.385944e-06	-1.020868e-08	-4.555631e+01	-6.690545e+02
3.400000e-07	-6.293792e-06	-1.014393e-08	-4.489892e+01	-6.648518e+02
3.500000e-07	-6.199347e-06	-1.007440e-08	-4.422516e+01	-6.605405e+02
3.600000e-07	-6.102603e-06	-1.000987e-08	-4.353500e+01	-6.561076e+02
3.700000e-07	-6.003596e-06	-9.937318e-09	-4.282870e+01	-6.515357e+02
3.800000e-07	-5.902514e-06	-9.855439e-09	-4.210760e+01	-6.468054e+02
3.900000e-07	-5.799404e-06	-9.782678e-09	-4.137203e+01	-6.418977e+02
4.000000e-07	-5.694187e-06	-9.707110e-09	-4.062143e+01	-6.367968e+02
4.100000e-07	-5.586935e-06	-9.622283e-09	-3.985631e+01	-6.314917e+02
4.200000e-07	-5.477726e-06	-9.538021e-09	-3.907723e+01	-6.259782e+02
4.300000e-07	-5.366580e-06	-9.465183e-09	-3.828433e+01	-6.202585e+02
4.400000e-07	-5.253366e-06	-9.379593e-09	-3.747668e+01	-6.143405e+02
4.500000e-07	-5.138012e-06	-9.278640e-09	-3.665377e+01	-6.082360e+02
4.600000e-07	-5.020791e-06	-9.181937e-09	-3.581753e+01	-6.019582e+02
4.700000e-07	-4.901863e-06	-9.086995e-09	-3.496912e+01	-5.955184e+02
4.800000e-07	-4.781065e-06	-8.983440e-09	-3.410736e+01	-5.889238e+02
4.900000e-07	-4.658446e-06	-8.878603e-09	-3.323262e+01	-5.821750e+02
5.000000e-07	-4.534190e-06	-8.777407e-09	-3.234619e+01	-5.752650e+02
5.100000e-07	-4.408292e-06	-8.667141e-09	-3.144805e+01	-5.681792e+02
5.200000e-07	-4.280693e-06	-8.550831e-09	-3.053779e+01	-5.608968e+02
5.300000e-07	-4.151475e-06	-8.434663e-09	-2.961597e+01	-5.533927e+02
5.400000e-07	-4.020739e-06	-8.318589e-09	-2.868332e+01	-5.456409e+02
5.500000e-07	-3.888468e-06	-8.193083e-09	-2.773971e+01	-5.376174e+02
5.600000e-07	-3.754806e-06	-8.060311e-09	-2.678619e+01	-5.293032e+02
5.700000e-07	-3.619732e-06	-7.925197e-09	-2.582259e+01	-5.206863e+02
5.800000e-07	-3.483122e-06	-7.787892e-09	-2.484804e+01	-5.117627e+02
5.900000e-07	-3.345126e-06	-7.648543e-09	-2.386360e+01	-5.025357e+02
6.000000e-07	-3.205873e-06	-7.507763e-09	-2.287019e+01	-4.930143e+02
6.100000e-07	-3.065282e-06	-7.365921e-09	-2.186724e+01	-4.832098e+02
6.200000e-07	-2.923251e-06	-7.216364e-09	-2.085401e+01	-4.731329e+02
6.300000e-07	-2.780078e-06	-7.059420e-09	-1.983264e+01	-4.627895e+02
6.400000e-07	-2.635920e-06	-6.895169e-09	-1.880424e+01	-4.521777e+02
6.500000e-07	-2.490792e-06	-6.722991e-09	-1.776891e+01	-4.412860e+02
6.600000e-07	-2.344892e-06	-6.544316e-09	-1.672809e+01	-4.300929e+02
6.700000e-07	-2.198226e-06	-6.361487e-09	-1.568179e+01	-4.185676e+02
6.800000e-07	-2.050789e-06	-6.175276e-09	-1.463001e+01	-4.066732e+02
6.900000e-07	-1.902667e-06	-5.987687e-09	-1.357333e+01	-3.943702e+02
7.000000e-07	-1.753976e-06	-5.797530e-09	-1.251259e+01	-3.816209e+02
7.100000e-07	-1.604791e-06	-5.601891e-09	-1.144833e+01	-3.683939e+02
7.200000e-07	-1.455141e-06	-5.395895e-09	-1.038075e+01	-3.546665e+02
7.300000e-07	-1.305005e-06	-5.178685e-09	-9.309698e+00	-3.404271e+02
7.400000e-07	-1.154373e-06	-4.954758e-09	-8.235113e+00	-3.256739e+02
7.500000e-07	-1.003226e-06	-4.723071e-09	-7.156859e+00	-3.104121e+02
7.600000e-07	-8.516524e-07	-4.482663e-09	-6.075554e+00	-2.946494e+02
7.700000e-07	-6.997874e-07	-4.233067e-09	-4.992172e+00	-2.783896e+02
7.800000e-07	-5.476919e-07	-3.976271e-09	-3.907148e+00	-2.616252e+02
7.900000e-07	-3.953914e-07	-3.714248e-09	-2.820660e+00	-2.443319e+02
8.000000e-07	-2.429131e-07	-3.444071e-09	-1.732904e+00	-2.264636e+02
8.100000e-07	-9.030196e-08	-3.160849e-09	-6.441999e-01	-2.079503e+02
8.200000e-07	6.238214e-08	-2.863968e-09	4.450243e-01	-1.886998e+02
8.300000e-07	2.150822e-07	-2.553071e-09	1.534362e+00	-1.686030e+02
8.400000e-07	3.677439e-07	-2.226062e-09	2.623427e+00	-1.475423e+02
8.500000e-07	5.202741e-07	-1.883639e-09	3.711553e+00	-1.254040e+02
8.600000e-07	6.726478e-07	-1.529479e-09	4.798563e+00	-1.020918e+02
8.700000e-07	8.248228e-07	-1.158691e-09	5.884155e+00	-7.754093e+01
8.800000e-07	9.767459e-07	-7.685712e-10	6.967951e+00	-5.173123e+01
8.900000e-07	1.128334e-06	-3.636936e-10	8.049355e+00	-2.469778e+01
9.000000e-07	1.279468e-06	5.688548e-11	9.127520e+00	3.463040e+00
9.100000e-07	1.430044e-06	4.943335e-10	1.020171e+01	3.259216e+01
9.200000e-07	1.580011e-06	9.503293e-10	1.127155e+01	6.247213e+01
9.300000e-07	1.729345e-06	1.420473e-09	1.233687e+01	9.283665e+01
9.400000e-07	1.878076e-06	1.896644e-09	1.339790e+01	1.233848e+02
9.500000e-07	2.026237e-06	2.370092e-09	1.445485e+01	1.537983e+02
9.600000e-07	2.173689e-06	2.830977e-09	1.550676e+01	1.837611e+02
9.700000e-07	2.320339e-06	3.276625e-09	1.655293e+01	2.129778e+02
9.800000e-07	2.466182e-06	3.703419e-09	1.759335e+01	2.411910e+02
9.900000e-07	2.611150e-06	4.108953e-09	1.862753e+01	2.681948e+02
1.000000e-06	2.755092e-06	4.490736e-09	1.965439e+01	2.938431e+02
1.010000e-06	2.897873e-06	4.851030e-09	2.067297e+01	3.180535e+02
1.020000e-06	3.039506e-06	5.192208e-09	2.168336e+01	3.408046e+02
1.030000e-06	3.179950e-06	5.514744e-09	2.268526e+01	3.621298e+02
1.040000e-06	3.319148e-06	5.819907e-09	2.367827e+01	3.821063e+02
1.050000e-06	3.457116e-06	6.106957e-09	2.466252e+01	4.008419e+02
1.060000e-06	3.593775e-06	6.377919e-09	2.563742e+01	4.184611e+02
1.070000e-06	3.728982e-06	6.633848e-09	2.660197e+01	4.350918e+02
1.080000e-06	3.862756e-06	6.875187e-09	2.755629e+01	4.508538e+02
1.090000e-06	3.995164e-06	7.102724e-09	2.850087e+01	4.658506e+02
1.100000e-06	4.126219e-06	7.319219e-09	2.943579e+01	4.801638e+02
1.110000e-06	4.255876e-06	7.525478e-09	3.036075e+01	4.938526e+02
1.120000e-06	4.383988e-06	7.720766e-09	3.127467e+01	5.069547e+02
1.130000e-06	4.510548e-06	7.909092e-09	3.217753e+01	5.194905e+02
1.140000e-06	4.635557e-06	8.091348e-09	3.306933e+01	5.314692e+02
1.150000e-06	4.758973e-06	8.262566e-09	3.394976e+01	5.428945e+02
1.160000e-06	4.880764e-06	8.423909e-09	3.481860e+01	5.537703e+02
1.170000e-06	5.000763e-06	8.577593e-09	3.567465e+01	5.641049e+02
1.180000e-06	5.118862e-06	8.727018e-09	3.651715e+01	5.739139e+02
1.190000e-06	5.235084e-06	8.870968e-09	3.734626e+01	5.832207e+02
1.200000e-06	5.349317e-06	9.007337e-09	3.816118e+01	5.920558e+02
1.210000e-06	5.461459e-06	9.137398e-09	3.896118e+01	6.004541e+02
1.220000e-06	5.571583e-06	9.263819e-09	3.974679e+01	6.084524e+02
1.230000e-06	5.679761e-06	9.386883e-09	4.051852e+01	6.160856e+02
1.240000e-06	5.786005e-06	9.501545e-09	4.127645e+01	6.233843e+02
1.250000e-06	5.890163e-06	9.605505e-09	4.201949e+01	6.303729e+02
1.260000e-06	5.992067e-06	9.702858e-09	4.274645e+01	6.370690e+02
1.270000e-06	6.091781e-06	9.797011e-09	4.345780e+01	6.434836e+02
1.280000e-06	6.189215e-06	9.886474e-09	4.415288e+01	6.496229e+02
1.290000e-06	6.284279e-06	9.971914e-09	4.483105e+01	6.554903e+02
1.300000e-06	6.377035e-06	1.005455e-08	4.549276e+01	6.610888e+02
1.310000e-06	6.467552e-06	1.013657e-08	4.613849e+01	6.664231e+02
1.320000e-06	6.555798e-06	1.021714e-08	4.676802e+01	6.715012e+02
1.330000e-06	6.641717e-06	1.029422e-08	4.738096e+01	6.763348e+02
1.340000e-06	6.725367e-06	1.036768e-08	4.797770e+01	6.809395e+02
1.350000e-06	6.806593e-06	1.043588e-08	4.855716e+01	6.853327e+02
1.360000e-06	6.885226e-06	1.049937e-08	4.911811e+01	6.895327e+02
1.370000e-06	6.961322e-06	1.055887e-08	4.966097e+01	6.935558e+02
1.380000e-06	7.034832e-06	1.061624e-08	5.018537e+01	6.974148e+02
1.390000e-06	7.105738e-06	1.067336e-08	5.069121e+01	7.011169e+02
1.400000e-06	7.174138e-06	1.072883e-08	5.117917e+01	7.046636e+02
1.410000e-06	7.239976e-06	1.078277e-08	5.164884e+01	7.080503e+02
1.420000e-06	7.303258e-06	1.083319e-08	5.210029e+01	7.112679e+02
1.430000e-06	7.364094e-06	1.087926e-08	5.253428e+01	7.143040e+02
1.440000e-06	7.422439e-06	1.092136e-08	5.295051e+01	7.171460e+02
1.450000e-06	7.478117e-06	1.095949e-08	5.334770e+01	7.197829e+02
1.460000e-06	7.530926e-06	1.099449e-08	5.372443e+01	7.222078e+02
1.470000e-06	7.580671e-06	1.102652e-08	5.407931e+01	7.244194e+02
1.480000e-06	7.627479e-06	1.105745e-08	5.441323e+01	7.264225e+02
1.490000e-06	7.671603e-06	1.108608e-08	5.472800e+01	7.282281e+02
1.500000e-06	7.712976e-06	1.111348e-08	5.502315e+01	7.298518e+02
1.510000e-06	7.751552e-06	1.113893e-08	5.529834e+01	7.313125e+02
1.520000e-06	7.787421e-06	1.115984e-08	5.555423e+01	7.326296e+02
1.530000e-06	7.820496e-06	1.117897e-08	5.579018e+01	7.338210e+02
1.540000e-06	7.850825e-06	1.119725e-08	5.600654e+01	7.349011e+02
1.550000e-06	7.878468e-06	1.121414e-08	5.620374e+01	7.358791e+02
1.560000e-06	7.903160e-06	1.122861e-08	5.637989e+01	7.367587e+02
1.570000e-06	7.924958e-06	1.124101e-08	5.653540e+01	7.375382e+02
1.580000e-06	7.944057e-06	1.125162e-08	5.667164e+01	7.382113e+02
1.590000e-06	7.960281e-06	1.126096e-08	5.678738e+01	7.387692e+02
1.600000e-06	7.973449e-06	1.126724e-08	5.688133e+01	7.392020e+02
1.610000e-06	7.983427e-06	1.127135e-08	5.695250e+01	7.395007e+02
1.620000e-06	7.990360e-06	1.127538e-08	5.700196e+01	7.396594e+02
1.630000e-06	7.994540e-06	1.127794e-08	5.703179e+01	7.396757e+02
1.640000e-06	7.995902e-06	1.127937e-08	5.704150e+01	7.395513e+02
1.650000e-06	7.994485e-06	1.127488e-08	5.703139e+01	7.392923e+02
1.660000e-06	7.990478e-06	1.127003e-08	5.700280e+01	7.389076e+02
1.670000e-06	7.983766e-06	1.126266e-08	5.695492e+01	7.384081e+02
1.680000e-06	7.974349e-06	1.125449e-08	5.688774e+01	7.378054e+02
1.690000e-06	7.962206e-06	1.124733e-08	5.680112e+01	7.371098e+02
1.700000e-06	7.947249e-06	1.123852e-08	5.669442e+01	7.363298e+02
1.710000e-06	7.929783e-06	1.122270e-08	5.656982e+01	7.354713e+02
1.720000e-06	7.910054e-06	1.118441e-08	5.642907e+01	7.345372e+02
1.730000e-06	7.887724e-06	1.112217e-08	5.626978e+01	7.335280e+02
1.740000e-06	7.862185e-06	1.110252e-08	5.608758e+01	7.324423e+02
1.750000e-06	7.833112e-06	1.110588e-08	5.588018e+01	7.312776e+02
1.760000e-06	7.800742e-06	1.109999e-08	5.564926e+01	7.300310e+02
1.770000e-06	7.765762e-06	1.109626e-08	5.539971e+01	7.287002e+02
1.780000e-06	7.728414e-06	1.110612e-08	5.513328e+01	7.272829e+02
1.790000e-06	7.688835e-06	1.108296e-08	5.485093e+01	7.257776e+02
1.800000e-06	7.647293e-06	1.104416e-08	5.455458e+01	7.241822e+02
1.810000e-06	7.603368e-06	1.102760e-08	5.424122e+01	7.224939e+02
1.820000e-06	7.556693e-06	1.100784e-08	5.390825e+01	7.207081e+02
1.830000e-06	7.507247e-06	1.099044e-08	5.355551e+01	7.188179e+02
1.840000e-06	7.454776e-06	1.094649e-08	5.318119e+01	7.168139e+02
1.850000e-06	7.399387e-06	1.092437e-08	5.278606e+01	7.146844e+02
1.860000e-06	7.341311e-06	1.088642e-08	5.237175e+01	7.124160e+02
1.870000e-06	7.280580e-06	1.083142e-08	5.193851e+01	7.099953e+02
1.880000e-06	7.217160e-06	1.082081e-08	5.148608e+01	7.074098e+02
1.890000e-06	7.150929e-06	1.077179e-08	5.101360e+01	7.046498e+02
1.900000e-06	7.081945e-06	1.070250e-08	5.052147e+01	7.017099e+02
1.910000e-06	7.010194e-06	1.065888e-08	5.000962e+01	6.985898e+02
1.920000e-06	6.935766e-06	1.061803e-08	4.947866e+01	6.952945e+02
1.930000e-06	6.858599e-06	1.056991e-08	4.892816e+01	6.918341e+02
1.940000e-06	6.778667e-06	1.050467e-08	4.835793e+01	6.882222e+02
1.950000e-06	6.696250e-06	1.046197e-08	4.776999e+01	6.844742e+02
1.960000e-06	6.611415e-06	1.039720e-08	4.716479e+01	6.806048e+02
1.970000e-06	6.524127e-06	1.032747e-08	4.654209e+01	6.766261e+02
1.980000e-06	6.434465e-06	1.027253e-08	4.590245e+01	6.725454e+02
1.990000e-06	6.342599e-06	1.021521e-08	4.524710e+01	6.683638e+02
2.000000e-06	6.248474e-06	1.014338e-08	4.457562e+01	6.640755e+02
2.010000e-06	6.152030e-06	1.006632e-08	4.388761e+01	6.596689e+02
2.020000e-06	6.053420e-06	1.000837e-08	4.318414e+01	6.551273e+02
2.030000e-06	5.952674e-06	9.933955e-09	4.246543e+01	6.504315e+02
2.040000e-06	5.849772e-06	9.851394e-09	4.173135e+01	6.455622e+02
2.050000e-06	5.744768e-06	9.765814e-09	4.098226e+01	6.405026e+02
2.060000e-06	5.637803e-06	9.690440e-09	4.021919e+01	6.352408e+02
2.070000e-06	5.528927e-06	9.604817e-09	3.944249e+01	6.297709e+02
2.080000e-06	5.418088e-06	9.518209e-09	3.865178e+01	6.240937e+02
2.090000e-06	5.305209e-06	9.437431e-09	3.784652e+01	6.182162e+02
2.100000e-06	5.190337e-06	9.344266e-09	3.702704e+01	6.121495e+02
2.110000e-06	5.073439e-06	9.247258e-09	3.619311e+01	6.059066e+02
2.120000e-06	4.954556e-06	9.151301e-09	3.534502e+01	5.994996e+02
2.130000e-06	4.833827e-06	9.057693e-09	3.448376e+01	5.929367e+02
2.140000e-06	4.711343e-06	8.951924e-09	3.360998e+01	5.862202e+02
2.150000e-06	4.587152e-06	8.843098e-09	3.272401e+01	5.793446e+02
2.160000e-06	4.461254e-06	8.732846e-09	3.182588e+01	5.722970e+02
2.170000e-06	4.333756e-06	8.624869e-09	3.091633e+01	5.650576e+02
2.180000e-06	4.204639e-06	8.513413e-09	2.999523e+01	5.576021e+02
2.190000e-06	4.074056e-06	8.400380e-09	2.906367e+01	5.499043e+02
2.200000e-06	3.942005e-06	8.278946e-09	2.812164e+01	5.419397e+02
2.210000e-06	3.808410e-06	8.147983e-09	2.716859e+01	5.336879e+02
2.220000e-06	3.673409e-06	8.016870e-09	2.620552e+01	5.251354e+02
2.230000e-06	3.537085e-06	7.886536e-09	2.523300e+01	5.162764e+02
2.240000e-06	3.399379e-06	7.751429e-09	2.425063e+01	5.071127e+02
2.250000e-06	3.260299e-06	7.607162e-09	2.325846e+01	4.976523e+02
2.260000e-06	3.119924e-06	7.461226e-09	2.225705e+01	4.879064e+02
2.270000e-06	2.978307e-06	7.310177e-09	2.124677e+01	4.778861e+02
2.280000e-06	2.835541e-06	7.152583e-09	2.022830e+01	4.675985e+02
2.290000e-06	2.691746e-06	6.990547e-09	1.920249e+01	4.570436e+02
2.300000e-06	2.547055e-06	6.825098e-09	1.817028e+01	4.462123e+02
2.310000e-06	2.401474e-06	6.654347e-09	1.713174e+01	4.350850e+02
2.320000e-06	2.255093e-06	6.481055e-09	1.608748e+01	4.236327e+02
2.330000e-06	2.107981e-06	6.304265e-09	1.503800e+01	4.118196e+02
2.340000e-06	1.960034e-06	6.118809e-09	1.398257e+01	3.996063e+02
2.350000e-06	1.811347e-06	5.921871e-09	1.292186e+01	3.869545e+02
2.360000e-06	1.662109e-06	5.715733e-09	1.185722e+01	3.738310e+02
2.370000e-06	1.512412e-06	5.505768e-09	1.078931e+01	3.602111e+02
2.380000e-06	1.362274e-06	5.293953e-09	9.718245e+00	3.460807e+02
2.390000e-06	1.211638e-06	5.076069e-09	8.643633e+00	3.314362e+02
2.400000e-06	1.060509e-06	4.848896e-09	7.565503e+00	3.162816e+02
2.410000e-06	9.089704e-07	4.610739e-09	6.484451e+00	3.006246e+02
2.420000e-06	7.571736e-07	4.364080e-09	5.401557e+00	2.844703e+02
2.430000e-06	6.052046e-07	4.113236e-09	4.317434e+00	2.678143e+02
2.440000e-06	4.530903e-07	3.854445e-09	3.232274e+00	2.506363e+02
2.450000e-06	3.008608e-07	3.582645e-09	2.146293e+00	2.328952e+02
2.460000e-06	1.485074e-07	3.296786e-09	1.059428e+00	2.145260e+02
2.470000e-06	-3.953666e-09	2.999479e-09	-2.820483e-02	1.954411e+02
2.480000e-06	-1.564600e-07	2.693422e-09	-1.116161e+00	1.755343e+02
2.490000e-06	-3.089140e-07	2.374535e-09	-2.203744e+00	1.546889e+02
2.500000e-06	-4.612947e-07	2.037677e-09	-3.290804e+00	1.327894e+02
2.510000e-06	-6.135627e-07	1.683231e-09	-4.377059e+00	1.097344e+02
2.520000e-06	-7.656178e-07	1.314950e-09	-5.461796e+00	8.545118e+01
2.530000e-06	-9.174474e-07	9.338899e-10	-6.544924e+00	5.990916e+01
2.540000e-06	-1.068987e-06	5.371540e-10	-7.625983e+00	3.313085e+01
2.550000e-06	-1.220166e-06	1.182806e-10	-8.704468e+00	5.199212e+00
2.560000e-06	-1.370906e-06	-3.247926e-10	-9.779825e+00	-2.373996e+01
2.570000e-06	-1.521094e-06	-7.846549e-10	-1.085124e+01	-5.348110e+01
2.580000e-06	-1.670763e-06	-1.252981e-09	-1.191896e+01	-8.376731e+01
2.590000e-06	-1.819872e-06	-1.722908e-09	-1.298268e+01	-1.143037e+02
2.600000e-06	-1.968241e-06	-2.191739e-09	-1.404112e+01	-1.447742e+02
2.610000e-06	-2.115802e-06	-2.657033e-09	-1.509380e+01	-1.748605e+02
2.620000e-06	-2.262520e-06	-3.111027e-09	-1.614046e+01	-2.042614e+02
2.630000e-06	-2.408355e-06	-3.545906e-09	-1.718082e+01	-2.327100e+02
2.640000e-06	-2.553282e-06	-3.958385e-09	-1.821471e+01	-2.599885e+02
2.650000e-06	-2.697259e-06	-4.349125e-09	-1.924182e+01	-2.859375e+02
2.660000e-06	-2.840245e-06	-4.720697e-09	-2.026186e+01	-3.104609e+02
2.670000e-06	-2.982146e-06	-5.071689e-09	-2.127416e+01	-3.335248e+02
2.680000e-06	-3.122862e-06	-5.400783e-09	-2.227800e+01	-3.551515e+02
2.690000e-06	-3.262325e-06	-5.709687e-09	-2.327291e+01	-3.754099e+02
2.700000e-06	-3.400421e-06	-6.001667e-09	-2.425806e+01	-3.944024e+02
2.710000e-06	-3.537154e-06	-6.279401e-09	-2.523349e+01	-4.122511e+02
2.720000e-06	-3.672639e-06	-6.542585e-09	-2.620002e+01	-4.290842e+02
2.730000e-06	-3.806899e-06	-6.790798e-09	-2.715781e+01	-4.450241e+02
2.740000e-06	-3.939830e-06	-7.025115e-09	-2.810612e+01	-4.601783e+02
2.750000e-06	-4.071295e-06	-7.249254e-09	-2.904397e+01	-4.746334e+02
2.760000e-06	-4.201336e-06	-7.464275e-09	-2.997167e+01	-4.884533e+02
2.770000e-06	-4.329955e-06	-7.668839e-09	-3.088921e+01	-5.016799e+02
2.780000e-06	-4.457122e-06	-7.862446e-09	-3.179640e+01	-5.143371e+02
2.790000e-06	-4.582760e-06	-8.044085e-09	-3.269268e+01	-5.264360e+02
2.800000e-06	-4.706667e-06	-8.215106e-09	-3.357662e+01	-5.379808e+02
2.810000e-06	-4.828894e-06	-8.378167e-09	-3.444857e+01	-5.489749e+02
2.820000e-06	-4.949426e-06	-8.534955e-09	-3.530842e+01	-5.594255e+02
2.830000e-06	-5.068124e-06	-8.687759e-09	-3.615520e+01	-5.693466e+02
2.840000e-06	-5.184799e-06	-8.834530e-09	-3.698753e+01	-5.787598e+02
2.850000e-06	-5.299341e-06	-8.972461e-09	-3.780466e+01	-5.876942e+02
2.860000e-06	-5.411796e-06	-9.103932e-09	-3.860690e+01	-5.961842e+02
2.870000e-06	-5.522080e-06	-9.229481e-09	-3.939365e+01	-6.042662e+02
2.880000e-06	-5.630340e-06	-9.348042e-09	-4.016596e+01	-6.119760e+02
2.890000e-06	-5.736712e-06	-9.460600e-09	-4.092480e+01	-6.193452e+02
2.900000e-06	-5.841071e-06	-9.568828e-09	-4.166927e+01	-6.263997e+02
2.910000e-06	-5.943308e-06	-9.673092e-09	-4.239862e+01	-6.331585e+02
2.920000e-06	-6.043310e-06	-9.771839e-09	-4.311202e+01	-6.396338e+02
2.930000e-06	-6.141069e-06	-9.865397e-09	-4.380941e+01	-6.458329e+02
2.940000e-06	-6.236655e-06	-9.955260e-09	-4.449131e+01	-6.517595e+02
