# Temperatura_=_39.25
# Concentracion g/m^3_=_10000.0
# C_Vs_to_Am_M_A/Vsm_=_65563218390.804596
# pendiente_HvsI_1/m_=_3716.3
# ordenada_HvsI_A/m_=_1297.0
# frecuencia_Hz_=_302620.0782613838

Tiempo_(s)	Campo_(V.s)	Magnetizacion_(V.s)	Campo_(kA/m)	Magnetizacion_(A/m)
0.000000e+00	-7.906225e-06	-1.021274e-08	-5.682989e+01	-6.692416e+02
1.000000e-08	-7.903873e-06	-1.021479e-08	-5.681299e+01	-6.690155e+02
2.000000e-08	-7.898885e-06	-1.021085e-08	-5.677714e+01	-6.686841e+02
3.000000e-08	-7.891360e-06	-1.020634e-08	-5.672305e+01	-6.682561e+02
4.000000e-08	-7.881039e-06	-1.020073e-08	-5.664886e+01	-6.677413e+02
5.000000e-08	-7.867781e-06	-1.019079e-08	-5.655356e+01	-6.671499e+02
6.000000e-08	-7.851674e-06	-1.017772e-08	-5.643779e+01	-6.664916e+02
7.000000e-08	-7.833049e-06	-1.016396e-08	-5.630391e+01	-6.657740e+02
8.000000e-08	-7.812147e-06	-1.015502e-08	-5.615366e+01	-6.650025e+02
9.000000e-08	-7.788541e-06	-1.019944e-08	-5.598399e+01	-6.641797e+02
1.000000e-07	-7.761779e-06	-1.020379e-08	-5.579162e+01	-6.633055e+02
1.100000e-07	-7.731896e-06	-1.014680e-08	-5.557682e+01	-6.623772e+02
1.200000e-07	-7.699144e-06	-1.011165e-08	-5.534140e+01	-6.613904e+02
1.300000e-07	-7.663722e-06	-1.009432e-08	-5.508679e+01	-6.603393e+02
1.400000e-07	-7.625932e-06	-1.005970e-08	-5.481515e+01	-6.592174e+02
1.500000e-07	-7.585955e-06	-9.994207e-09	-5.452780e+01	-6.580179e+02
1.600000e-07	-7.543675e-06	-1.001652e-08	-5.422389e+01	-6.567344e+02
1.700000e-07	-7.498849e-06	-1.002371e-08	-5.390168e+01	-6.553604e+02
1.800000e-07	-7.451345e-06	-9.936764e-09	-5.356022e+01	-6.538899e+02
1.900000e-07	-7.401017e-06	-9.953171e-09	-5.319846e+01	-6.523170e+02
2.000000e-07	-7.347702e-06	-9.930895e-09	-5.281524e+01	-6.506359e+02
2.100000e-07	-7.291619e-06	-9.868038e-09	-5.241211e+01	-6.488409e+02
2.200000e-07	-7.232899e-06	-9.858800e-09	-5.199003e+01	-6.469263e+02
2.300000e-07	-7.171550e-06	-9.829018e-09	-5.154906e+01	-6.448870e+02
2.400000e-07	-7.107599e-06	-9.806580e-09	-5.108938e+01	-6.427188e+02
2.500000e-07	-7.040922e-06	-9.743082e-09	-5.061010e+01	-6.404187e+02
2.600000e-07	-6.971522e-06	-9.723028e-09	-5.011126e+01	-6.379853e+02
2.700000e-07	-6.899386e-06	-9.697494e-09	-4.959274e+01	-6.354193e+02
2.800000e-07	-6.824515e-06	-9.644740e-09	-4.905457e+01	-6.327235e+02
2.900000e-07	-6.746900e-06	-9.593270e-09	-4.849668e+01	-6.299023e+02
3.000000e-07	-6.666582e-06	-9.551459e-09	-4.791935e+01	-6.269614e+02
3.100000e-07	-6.583821e-06	-9.524789e-09	-4.732446e+01	-6.239069e+02
3.200000e-07	-6.498800e-06	-9.453273e-09	-4.671333e+01	-6.207443e+02
3.300000e-07	-6.411508e-06	-9.403876e-09	-4.608588e+01	-6.174776e+02
3.400000e-07	-6.321908e-06	-9.366165e-09	-4.544183e+01	-6.141080e+02
3.500000e-07	-6.230015e-06	-9.312244e-09	-4.478131e+01	-6.106339e+02
3.600000e-07	-6.135886e-06	-9.252105e-09	-4.410471e+01	-6.070501e+02
3.700000e-07	-6.039527e-06	-9.203098e-09	-4.341208e+01	-6.033487e+02
3.800000e-07	-5.940953e-06	-9.154444e-09	-4.270353e+01	-5.995190e+02
3.900000e-07	-5.840203e-06	-9.079688e-09	-4.197935e+01	-5.955494e+02
4.000000e-07	-5.737319e-06	-9.013072e-09	-4.123982e+01	-5.914283e+02
4.100000e-07	-5.632422e-06	-8.949648e-09	-4.048582e+01	-5.871452e+02
4.200000e-07	-5.525567e-06	-8.883175e-09	-3.971774e+01	-5.826927e+02
4.300000e-07	-5.416808e-06	-8.808466e-09	-3.893598e+01	-5.780662e+02
4.400000e-07	-5.306141e-06	-8.740396e-09	-3.814051e+01	-5.732649e+02
4.500000e-07	-5.193477e-06	-8.670510e-09	-3.733068e+01	-5.682911e+02
4.600000e-07	-5.078783e-06	-8.589150e-09	-3.650626e+01	-5.631491e+02
4.700000e-07	-4.962102e-06	-8.506035e-09	-3.566756e+01	-5.578443e+02
4.800000e-07	-4.843489e-06	-8.425525e-09	-3.481497e+01	-5.523809e+02
4.900000e-07	-4.723087e-06	-8.342426e-09	-3.394952e+01	-5.467611e+02
5.000000e-07	-4.601057e-06	-8.250511e-09	-3.307237e+01	-5.409828e+02
5.100000e-07	-4.477343e-06	-8.157312e-09	-3.218311e+01	-5.350399e+02
5.200000e-07	-4.352003e-06	-8.061315e-09	-3.128217e+01	-5.289211e+02
5.300000e-07	-4.225074e-06	-7.965506e-09	-3.036981e+01	-5.226114e+02
5.400000e-07	-4.096591e-06	-7.864301e-09	-2.944627e+01	-5.160927e+02
5.500000e-07	-3.966678e-06	-7.759930e-09	-2.851246e+01	-5.093458e+02
5.600000e-07	-3.835218e-06	-7.651562e-09	-2.756752e+01	-5.023526e+02
5.700000e-07	-3.702242e-06	-7.539930e-09	-2.661169e+01	-4.950974e+02
5.800000e-07	-3.567865e-06	-7.422277e-09	-2.564579e+01	-4.875689e+02
5.900000e-07	-3.432110e-06	-7.300257e-09	-2.466999e+01	-4.797605e+02
6.000000e-07	-3.295076e-06	-7.177413e-09	-2.368499e+01	-4.716705e+02
6.100000e-07	-3.156830e-06	-7.050647e-09	-2.269128e+01	-4.633009e+02
6.200000e-07	-3.017200e-06	-6.920467e-09	-2.168762e+01	-4.546557e+02
6.300000e-07	-2.876126e-06	-6.786987e-09	-2.067358e+01	-4.457387e+02
6.400000e-07	-2.733910e-06	-6.650910e-09	-1.965133e+01	-4.365509e+02
6.500000e-07	-2.590718e-06	-6.506665e-09	-1.862206e+01	-4.270885e+02
6.600000e-07	-2.446564e-06	-6.352936e-09	-1.758589e+01	-4.173411e+02
6.700000e-07	-2.301546e-06	-6.193889e-09	-1.654350e+01	-4.072909e+02
6.800000e-07	-2.155711e-06	-6.033678e-09	-1.549524e+01	-3.969137e+02
6.900000e-07	-2.009086e-06	-5.869044e-09	-1.444130e+01	-3.861800e+02
7.000000e-07	-1.861823e-06	-5.697573e-09	-1.338277e+01	-3.750574e+02
7.100000e-07	-1.713974e-06	-5.520002e-09	-1.232003e+01	-3.635139e+02
7.200000e-07	-1.565565e-06	-5.337463e-09	-1.125327e+01	-3.515210e+02
7.300000e-07	-1.416727e-06	-5.149510e-09	-1.018343e+01	-3.390559e+02
7.400000e-07	-1.267531e-06	-4.953873e-09	-9.111002e+00	-3.261036e+02
7.500000e-07	-1.117930e-06	-4.752350e-09	-8.035676e+00	-3.126571e+02
7.600000e-07	-9.678955e-07	-4.542387e-09	-6.957227e+00	-2.987159e+02
7.700000e-07	-8.174652e-07	-4.324284e-09	-5.875935e+00	-2.842830e+02
7.800000e-07	-6.667283e-07	-4.096728e-09	-4.792439e+00	-2.693612e+02
7.900000e-07	-5.157423e-07	-3.860959e-09	-3.707153e+00	-2.539481e+02
8.000000e-07	-3.645907e-07	-3.619796e-09	-2.620676e+00	-2.380308e+02
8.100000e-07	-2.132601e-07	-3.370314e-09	-1.532912e+00	-2.215822e+02
8.200000e-07	-6.175579e-08	-3.110088e-09	-4.439002e-01	-2.045586e+02
8.300000e-07	8.982283e-08	-2.839474e-09	6.456459e-01	-1.868987e+02
8.400000e-07	2.413843e-07	-2.557523e-09	1.735069e+00	-1.685269e+02
8.500000e-07	3.928210e-07	-2.260421e-09	2.823595e+00	-1.493578e+02
8.600000e-07	5.440711e-07	-1.948667e-09	3.910780e+00	-1.293042e+02
8.700000e-07	6.951666e-07	-1.626830e-09	4.996853e+00	-1.082869e+02
8.800000e-07	8.460954e-07	-1.293211e-09	6.081728e+00	-8.624541e+01
8.900000e-07	9.967463e-07	-9.431473e-10	7.164606e+00	-6.314842e+01
9.000000e-07	1.147062e-06	-5.780061e-10	8.245075e+00	-3.900352e+01
9.100000e-07	1.296972e-06	-1.997344e-10	9.322626e+00	-1.386402e+01
9.200000e-07	1.446401e-06	1.930357e-10	1.039672e+01	1.216743e+01
9.300000e-07	1.595322e-06	6.007012e-10	1.146717e+01	3.893925e+01
9.400000e-07	1.743704e-06	1.019107e-09	1.253373e+01	6.625554e+01
9.500000e-07	1.891425e-06	1.444779e-09	1.359555e+01	9.388467e+01
9.600000e-07	2.038419e-06	1.872131e-09	1.465214e+01	1.215712e+02
9.700000e-07	2.184650e-06	2.294385e-09	1.570325e+01	1.490503e+02
9.800000e-07	2.330041e-06	2.707723e-09	1.674832e+01	1.760623e+02
9.900000e-07	2.474571e-06	3.107668e-09	1.778720e+01	2.023680e+02
1.000000e-06	2.618211e-06	3.492746e-09	1.881968e+01	2.277615e+02
1.010000e-06	2.760869e-06	3.858778e-09	1.984511e+01	2.520797e+02
1.020000e-06	2.902423e-06	4.206112e-09	2.086260e+01	2.752089e+02
1.030000e-06	3.042738e-06	4.536004e-09	2.187118e+01	2.970865e+02
1.040000e-06	3.181745e-06	4.847798e-09	2.287037e+01	3.176990e+02
1.050000e-06	3.319535e-06	5.141336e-09	2.386080e+01	3.370758e+02
1.060000e-06	3.456091e-06	5.417514e-09	2.484236e+01	3.552807e+02
1.070000e-06	3.591318e-06	5.680086e-09	2.581437e+01	3.724013e+02
1.080000e-06	3.725249e-06	5.928721e-09	2.677706e+01	3.885375e+02
1.090000e-06	3.857874e-06	6.163466e-09	2.773038e+01	4.037917e+02
1.100000e-06	3.989096e-06	6.384483e-09	2.867360e+01	4.182593e+02
1.110000e-06	4.118886e-06	6.593668e-09	2.960653e+01	4.320224e+02
1.120000e-06	4.247257e-06	6.792828e-09	3.052926e+01	4.451460e+02
1.130000e-06	4.374093e-06	6.981885e-09	3.144095e+01	4.576767e+02
1.140000e-06	4.499448e-06	7.162400e-09	3.234200e+01	4.696446e+02
1.150000e-06	4.623271e-06	7.335710e-09	3.323204e+01	4.810663e+02
1.160000e-06	4.745419e-06	7.500115e-09	3.411004e+01	4.919495e+02
1.170000e-06	4.865932e-06	7.654676e-09	3.497629e+01	5.022983e+02
1.180000e-06	4.984672e-06	7.800996e-09	3.582979e+01	5.121175e+02
1.190000e-06	5.101484e-06	7.941227e-09	3.666944e+01	5.214161e+02
1.200000e-06	5.216322e-06	8.074305e-09	3.749489e+01	5.302099e+02
1.210000e-06	5.329209e-06	8.202120e-09	3.830632e+01	5.385220e+02
1.220000e-06	5.440176e-06	8.323828e-09	3.910395e+01	5.463821e+02
1.230000e-06	5.549253e-06	8.441827e-09	3.988800e+01	5.538248e+02
1.240000e-06	5.656354e-06	8.556171e-09	4.065783e+01	5.608867e+02
1.250000e-06	5.761382e-06	8.662015e-09	4.141278e+01	5.676037e+02
1.260000e-06	5.864306e-06	8.758612e-09	4.215259e+01	5.740085e+02
1.270000e-06	5.965081e-06	8.847442e-09	4.287697e+01	5.801286e+02
1.280000e-06	6.063626e-06	8.933352e-09	4.358530e+01	5.859851e+02
1.290000e-06	6.159850e-06	9.016064e-09	4.427696e+01	5.915926e+02
1.300000e-06	6.253843e-06	9.094487e-09	4.495259e+01	5.969603e+02
1.310000e-06	6.345610e-06	9.168934e-09	4.561220e+01	6.020928e+02
1.320000e-06	6.435082e-06	9.241291e-09	4.625533e+01	6.069926e+02
1.330000e-06	6.522210e-06	9.312812e-09	4.688160e+01	6.116617e+02
1.340000e-06	6.607102e-06	9.383303e-09	4.749181e+01	6.161028e+02
1.350000e-06	6.689721e-06	9.450606e-09	4.808567e+01	6.203209e+02
1.360000e-06	6.769866e-06	9.512425e-09	4.866176e+01	6.243235e+02
1.370000e-06	6.847512e-06	9.569061e-09	4.921988e+01	6.281200e+02
1.380000e-06	6.922530e-06	9.622172e-09	4.975910e+01	6.317214e+02
1.390000e-06	6.994933e-06	9.673871e-09	5.027954e+01	6.351386e+02
1.400000e-06	7.064904e-06	9.723267e-09	5.078249e+01	6.383815e+02
1.410000e-06	7.132382e-06	9.769061e-09	5.126752e+01	6.414578e+02
1.420000e-06	7.197265e-06	9.812396e-09	5.173390e+01	6.443722e+02
1.430000e-06	7.259624e-06	9.854547e-09	5.218213e+01	6.471263e+02
1.440000e-06	7.319503e-06	9.894977e-09	5.261254e+01	6.497187e+02
1.450000e-06	7.376826e-06	9.932565e-09	5.302458e+01	6.521462e+02
1.460000e-06	7.431490e-06	9.966487e-09	5.341750e+01	6.544049e+02
1.470000e-06	7.483322e-06	9.996292e-09	5.379007e+01	6.564918e+02
1.480000e-06	7.532107e-06	1.002266e-08	5.414074e+01	6.584054e+02
1.490000e-06	7.578022e-06	1.004820e-08	5.447077e+01	6.601475e+02
1.500000e-06	7.621305e-06	1.007242e-08	5.478189e+01	6.617233e+02
1.510000e-06	7.661845e-06	1.009430e-08	5.507330e+01	6.631414e+02
1.520000e-06	7.699622e-06	1.011459e-08	5.534483e+01	6.644131e+02
1.530000e-06	7.734756e-06	1.013221e-08	5.559737e+01	6.655516e+02
1.540000e-06	7.767161e-06	1.014933e-08	5.583031e+01	6.665702e+02
1.550000e-06	7.796812e-06	1.016634e-08	5.604344e+01	6.674814e+02
1.560000e-06	7.823698e-06	1.018059e-08	5.623669e+01	6.682950e+02
1.570000e-06	7.847623e-06	1.019143e-08	5.640867e+01	6.690177e+02
1.580000e-06	7.868806e-06	1.019999e-08	5.656093e+01	6.696525e+02
1.590000e-06	7.887307e-06	1.020799e-08	5.669391e+01	6.701987e+02
1.600000e-06	7.902802e-06	1.021548e-08	5.680529e+01	6.706525e+02
1.610000e-06	7.915254e-06	1.022195e-08	5.689480e+01	6.710082e+02
1.620000e-06	7.924636e-06	1.022716e-08	5.696223e+01	6.712596e+02
1.630000e-06	7.931081e-06	1.023096e-08	5.700856e+01	6.714010e+02
1.640000e-06	7.934794e-06	1.023221e-08	5.703525e+01	6.714288e+02
1.650000e-06	7.935663e-06	1.023160e-08	5.704150e+01	6.713420e+02
1.660000e-06	7.933778e-06	1.022394e-08	5.702795e+01	6.711428e+02
1.670000e-06	7.929334e-06	1.021849e-08	5.699600e+01	6.708366e+02
1.680000e-06	7.922202e-06	1.021369e-08	5.694474e+01	6.704314e+02
1.690000e-06	7.912389e-06	1.020726e-08	5.687421e+01	6.699369e+02
1.700000e-06	7.899843e-06	1.020214e-08	5.678402e+01	6.693633e+02
1.710000e-06	7.884545e-06	1.019960e-08	5.667406e+01	6.687204e+02
1.720000e-06	7.866785e-06	1.019715e-08	5.654640e+01	6.680166e+02
1.730000e-06	7.846757e-06	1.015256e-08	5.640244e+01	6.672578e+02
1.740000e-06	7.824086e-06	1.006691e-08	5.623948e+01	6.664473e+02
1.750000e-06	7.798137e-06	1.007726e-08	5.605296e+01	6.655857e+02
1.760000e-06	7.768640e-06	1.010235e-08	5.584094e+01	6.646709e+02
1.770000e-06	7.735983e-06	1.008163e-08	5.560620e+01	6.636988e+02
1.780000e-06	7.700876e-06	1.008308e-08	5.535385e+01	6.626639e+02
1.790000e-06	7.663422e-06	1.013901e-08	5.508463e+01	6.615599e+02
1.800000e-06	7.623778e-06	1.006529e-08	5.479967e+01	6.603800e+02
1.810000e-06	7.582060e-06	1.000639e-08	5.449980e+01	6.591177e+02
1.820000e-06	7.537813e-06	1.006233e-08	5.418175e+01	6.577664e+02
1.830000e-06	7.490961e-06	9.986142e-09	5.384498e+01	6.563202e+02
1.840000e-06	7.441408e-06	1.002403e-08	5.348879e+01	6.547730e+02
1.850000e-06	7.388797e-06	9.986661e-09	5.311063e+01	6.531191e+02
1.860000e-06	7.333343e-06	9.940799e-09	5.271203e+01	6.513526e+02
1.870000e-06	7.275306e-06	9.944292e-09	5.229486e+01	6.494679e+02
1.880000e-06	7.214656e-06	9.838455e-09	5.185890e+01	6.474598e+02
1.890000e-06	7.151242e-06	9.874558e-09	5.140308e+01	6.453238e+02
1.900000e-06	7.085080e-06	9.818777e-09	5.092751e+01	6.430564e+02
1.910000e-06	7.016141e-06	9.758077e-09	5.043198e+01	6.406559e+02
1.920000e-06	6.944354e-06	9.748569e-09	4.991598e+01	6.381225e+02
1.930000e-06	6.869928e-06	9.691228e-09	4.938100e+01	6.354584e+02
1.940000e-06	6.792798e-06	9.669476e-09	4.882659e+01	6.326676e+02
1.950000e-06	6.713007e-06	9.584204e-09	4.825305e+01	6.297556e+02
1.960000e-06	6.630781e-06	9.576351e-09	4.766201e+01	6.267285e+02
1.970000e-06	6.546115e-06	9.524727e-09	4.705344e+01	6.235920e+02
1.980000e-06	6.458980e-06	9.452766e-09	4.642710e+01	6.203506e+02
1.990000e-06	6.369507e-06	9.421347e-09	4.578398e+01	6.170064e+02
2.000000e-06	6.277863e-06	9.370292e-09	4.512524e+01	6.135583e+02
2.010000e-06	6.183946e-06	9.318925e-09	4.445017e+01	6.100022e+02
2.020000e-06	6.087764e-06	9.239935e-09	4.375881e+01	6.063306e+02
2.030000e-06	5.989399e-06	9.201581e-09	4.305176e+01	6.025337e+02
2.040000e-06	5.888922e-06	9.134368e-09	4.232953e+01	5.985997e+02
2.050000e-06	5.786437e-06	9.067134e-09	4.159287e+01	5.945171e+02
2.060000e-06	5.681900e-06	8.997143e-09	4.084146e+01	5.902749e+02
2.070000e-06	5.575396e-06	8.937681e-09	4.007591e+01	5.858649e+02
2.080000e-06	5.466959e-06	8.865539e-09	3.929647e+01	5.812817e+02
2.090000e-06	5.356542e-06	8.784054e-09	3.850279e+01	5.765235e+02
2.100000e-06	5.244178e-06	8.721061e-09	3.769512e+01	5.715920e+02
2.110000e-06	5.129846e-06	8.646671e-09	3.687330e+01	5.664912e+02
2.120000e-06	5.013499e-06	8.568693e-09	3.603700e+01	5.612261e+02
2.130000e-06	4.895254e-06	8.477613e-09	3.518706e+01	5.558017e+02
2.140000e-06	4.775193e-06	8.394781e-09	3.432406e+01	5.502205e+02
2.150000e-06	4.653362e-06	8.304756e-09	3.344834e+01	5.444819e+02
2.160000e-06	4.529809e-06	8.218743e-09	3.256024e+01	5.385805e+02
2.170000e-06	4.404575e-06	8.128261e-09	3.166006e+01	5.325066e+02
2.180000e-06	4.277734e-06	8.037157e-09	3.074833e+01	5.262457e+02
2.190000e-06	4.149290e-06	7.936797e-09	2.982507e+01	5.197806e+02
2.200000e-06	4.019386e-06	7.831301e-09	2.889132e+01	5.130921e+02
2.210000e-06	3.887970e-06	7.723886e-09	2.794670e+01	5.061616e+02
2.220000e-06	3.755088e-06	7.616520e-09	2.699155e+01	4.989728e+02
2.230000e-06	3.620869e-06	7.509841e-09	2.602679e+01	4.915130e+02
2.240000e-06	3.485274e-06	7.394618e-09	2.505213e+01	4.837745e+02
2.250000e-06	3.348310e-06	7.271039e-09	2.406763e+01	4.757544e+02
2.260000e-06	3.210025e-06	7.141395e-09	2.307364e+01	4.674539e+02
2.270000e-06	3.070469e-06	7.013380e-09	2.207051e+01	4.588767e+02
2.280000e-06	2.929765e-06	6.877923e-09	2.105914e+01	4.500270e+02
2.290000e-06	2.788019e-06	6.739102e-09	2.004026e+01	4.409067e+02
2.300000e-06	2.645210e-06	6.596173e-09	1.901375e+01	4.315132e+02
2.310000e-06	2.501373e-06	6.453067e-09	1.797985e+01	4.218379e+02
2.320000e-06	2.356601e-06	6.305507e-09	1.693923e+01	4.118650e+02
2.330000e-06	2.211094e-06	6.150634e-09	1.589333e+01	4.015717e+02
2.340000e-06	2.064862e-06	5.987067e-09	1.484222e+01	3.909297e+02
2.350000e-06	1.917819e-06	5.813007e-09	1.378527e+01	3.799069e+02
2.360000e-06	1.770051e-06	5.632911e-09	1.272312e+01	3.684711e+02
2.370000e-06	1.621743e-06	5.449758e-09	1.165708e+01	3.565925e+02
2.380000e-06	1.473011e-06	5.263861e-09	1.058799e+01	3.442467e+02
2.390000e-06	1.323837e-06	5.072053e-09	9.515733e+00	3.314168e+02
2.400000e-06	1.174261e-06	4.869495e-09	8.440582e+00	3.180937e+02
2.410000e-06	1.024331e-06	4.656658e-09	7.362884e+00	3.042755e+02
2.420000e-06	8.740578e-07	4.438439e-09	6.282722e+00	2.899647e+02
2.430000e-06	7.235697e-07	4.215238e-09	5.201014e+00	2.751647e+02
2.440000e-06	5.729054e-07	3.986182e-09	4.118041e+00	2.598746e+02
2.450000e-06	4.219907e-07	3.746254e-09	3.033267e+00	2.440849e+02
2.460000e-06	2.708771e-07	3.493612e-09	1.947063e+00	2.277721e+02
2.470000e-06	1.196325e-07	3.230341e-09	8.599177e-01	2.108969e+02
2.480000e-06	-3.169885e-08	2.959007e-09	-2.278512e-01	1.934023e+02
2.490000e-06	-1.830575e-07	2.681580e-09	-1.315816e+00	1.752158e+02
2.500000e-06	-3.343601e-07	2.392566e-09	-2.403378e+00	1.562538e+02
2.510000e-06	-4.855343e-07	2.089259e-09	-3.490018e+00	1.364288e+02
2.520000e-06	-6.365368e-07	1.772171e-09	-4.575422e+00	1.156586e+02
2.530000e-06	-7.873245e-07	1.442638e-09	-5.659284e+00	9.387696e+01
2.540000e-06	-9.378481e-07	1.099776e-09	-6.741246e+00	7.104434e+01
2.550000e-06	-1.088073e-06	7.411320e-10	-7.821059e+00	4.715787e+01
2.560000e-06	-1.237957e-06	3.655903e-10	-8.898425e+00	2.225892e+01
2.570000e-06	-1.387459e-06	-2.711870e-11	-9.973045e+00	-3.562331e+00
2.580000e-06	-1.536509e-06	-4.342051e-10	-1.104441e+01	-3.016625e+01
2.590000e-06	-1.685018e-06	-8.516374e-10	-1.211190e+01	-5.736735e+01
2.600000e-06	-1.832931e-06	-1.274640e-09	-1.317510e+01	-8.494195e+01
2.610000e-06	-1.980127e-06	-1.702053e-09	-1.423314e+01	-1.126393e+02
2.620000e-06	-2.126491e-06	-2.130663e-09	-1.528521e+01	-1.401955e+02
2.630000e-06	-2.272048e-06	-2.551006e-09	-1.633147e+01	-1.673481e+02
2.640000e-06	-2.416813e-06	-2.955979e-09	-1.737204e+01	-1.938517e+02
2.650000e-06	-2.560577e-06	-3.344789e-09	-1.840541e+01	-2.194908e+02
2.660000e-06	-2.703215e-06	-3.718805e-09	-1.943069e+01	-2.440909e+02
2.670000e-06	-2.844821e-06	-4.075804e-09	-2.044855e+01	-2.675256e+02
2.680000e-06	-2.985349e-06	-4.411507e-09	-2.145867e+01	-2.897197e+02
2.690000e-06	-3.124701e-06	-4.726641e-09	-2.246033e+01	-3.106477e+02
2.700000e-06	-3.262814e-06	-5.024377e-09	-2.345309e+01	-3.303290e+02
2.710000e-06	-3.399691e-06	-5.306449e-09	-2.443695e+01	-3.488199e+02
2.720000e-06	-3.535242e-06	-5.573953e-09	-2.541129e+01	-3.662028e+02
2.730000e-06	-3.669446e-06	-5.827544e-09	-2.637595e+01	-3.825759e+02
2.740000e-06	-3.802420e-06	-6.068752e-09	-2.733177e+01	-3.980417e+02
2.750000e-06	-3.934006e-06	-6.297780e-09	-2.827761e+01	-4.126981e+02
2.760000e-06	-4.064148e-06	-6.513800e-09	-2.921307e+01	-4.266310e+02
2.770000e-06	-4.192957e-06	-6.718942e-09	-3.013895e+01	-4.399098e+02
2.780000e-06	-4.320280e-06	-6.915767e-09	-3.105415e+01	-4.525857e+02
2.790000e-06	-4.446118e-06	-7.101842e-09	-3.195867e+01	-4.646928e+02
2.800000e-06	-4.570526e-06	-7.273915e-09	-3.285291e+01	-4.762504e+02
2.810000e-06	-4.693273e-06	-7.435619e-09	-3.373522e+01	-4.872683e+02
2.820000e-06	-4.814292e-06	-7.591921e-09	-3.460510e+01	-4.977508e+02
2.830000e-06	-4.933454e-06	-7.743269e-09	-3.546163e+01	-5.077022e+02
2.840000e-06	-5.050680e-06	-7.887828e-09	-3.630425e+01	-5.171301e+02
2.850000e-06	-5.165958e-06	-8.025498e-09	-3.713287e+01	-5.260487e+02
2.860000e-06	-5.279127e-06	-8.155668e-09	-3.794633e+01	-5.344791e+02
2.870000e-06	-5.390210e-06	-8.279341e-09	-3.874480e+01	-5.424496e+02
2.880000e-06	-5.499345e-06	-8.396251e-09	-3.952926e+01	-5.499936e+02
2.890000e-06	-5.606564e-06	-8.506112e-09	-4.029995e+01	-5.571477e+02
2.900000e-06	-5.711868e-06	-8.610764e-09	-4.105687e+01	-5.639481e+02
2.910000e-06	-5.815093e-06	-8.709671e-09	-4.179885e+01	-5.704286e+02
2.920000e-06	-5.916056e-06	-8.803630e-09	-4.252457e+01	-5.766181e+02
2.930000e-06	-6.014854e-06	-8.893044e-09	-4.323473e+01	-5.825393e+02
2.940000e-06	-6.111544e-06	-8.979491e-09	-4.392974e+01	-5.882085e+02
