# Temperatura_=_45.82
# Concentracion g/m^3_=_10000.0
# C_Vs_to_Am_M_A/Vsm_=_65563218390.804596
# pendiente_HvsI_1/m_=_3716.3
# ordenada_HvsI_A/m_=_1297.0
# frecuencia_Hz_=_302621.34445251105

Tiempo_(s)	Campo_(V.s)	Magnetizacion_(V.s)	Campo_(kA/m)	Magnetizacion_(A/m)
0.000000e+00	-7.885478e-06	-1.038587e-08	-5.683180e+01	-6.812785e+02
1.000000e-08	-7.882974e-06	-1.039254e-08	-5.681376e+01	-6.809800e+02
2.000000e-08	-7.877801e-06	-1.038860e-08	-5.677647e+01	-6.805726e+02
3.000000e-08	-7.870040e-06	-1.038016e-08	-5.672054e+01	-6.800721e+02
4.000000e-08	-7.859515e-06	-1.037086e-08	-5.664468e+01	-6.794955e+02
5.000000e-08	-7.846173e-06	-1.035782e-08	-5.654853e+01	-6.788590e+02
6.000000e-08	-7.829900e-06	-1.034180e-08	-5.643125e+01	-6.781759e+02
7.000000e-08	-7.811084e-06	-1.032637e-08	-5.629564e+01	-6.774551e+02
8.000000e-08	-7.790076e-06	-1.030907e-08	-5.614423e+01	-6.767000e+02
9.000000e-08	-7.766401e-06	-1.037235e-08	-5.597360e+01	-6.759084e+02
1.000000e-07	-7.739538e-06	-1.039614e-08	-5.577999e+01	-6.750725e+02
1.100000e-07	-7.709528e-06	-1.032261e-08	-5.556371e+01	-6.741806e+02
1.200000e-07	-7.676763e-06	-1.027758e-08	-5.532757e+01	-6.732180e+02
1.300000e-07	-7.641365e-06	-1.025333e-08	-5.507245e+01	-6.721692e+02
1.400000e-07	-7.603544e-06	-1.021063e-08	-5.479986e+01	-6.710196e+02
1.500000e-07	-7.563562e-06	-1.013615e-08	-5.451171e+01	-6.697566e+02
1.600000e-07	-7.521296e-06	-1.018715e-08	-5.420709e+01	-6.683708e+02
1.700000e-07	-7.476431e-06	-1.022578e-08	-5.388375e+01	-6.668565e+02
1.800000e-07	-7.428937e-06	-1.009491e-08	-5.354145e+01	-6.652117e+02
1.900000e-07	-7.378630e-06	-1.014574e-08	-5.317888e+01	-6.634372e+02
2.000000e-07	-7.325295e-06	-1.010782e-08	-5.279448e+01	-6.615362e+02
2.100000e-07	-7.269177e-06	-9.982541e-09	-5.239003e+01	-6.595129e+02
2.200000e-07	-7.210378e-06	-9.992463e-09	-5.196626e+01	-6.573717e+02
2.300000e-07	-7.149030e-06	-9.968306e-09	-5.152411e+01	-6.551164e+02
2.400000e-07	-7.085180e-06	-9.980858e-09	-5.106394e+01	-6.527496e+02
2.500000e-07	-7.018506e-06	-9.905018e-09	-5.058341e+01	-6.502728e+02
2.600000e-07	-6.949121e-06	-9.873551e-09	-5.008334e+01	-6.476861e+02
2.700000e-07	-6.877144e-06	-9.846001e-09	-4.956459e+01	-6.449889e+02
2.800000e-07	-6.802355e-06	-9.787437e-09	-4.902558e+01	-6.421801e+02
2.900000e-07	-6.724786e-06	-9.748750e-09	-4.846653e+01	-6.392587e+02
3.000000e-07	-6.644497e-06	-9.714162e-09	-4.788787e+01	-6.362236e+02
3.100000e-07	-6.561735e-06	-9.701346e-09	-4.729140e+01	-6.330743e+02
3.200000e-07	-6.476802e-06	-9.604748e-09	-4.667927e+01	-6.298099e+02
3.300000e-07	-6.389639e-06	-9.535468e-09	-4.605107e+01	-6.264296e+02
3.400000e-07	-6.300162e-06	-9.503118e-09	-4.540620e+01	-6.229315e+02
3.500000e-07	-6.208378e-06	-9.439758e-09	-4.474469e+01	-6.193125e+02
3.600000e-07	-6.114365e-06	-9.371306e-09	-4.406713e+01	-6.155683e+02
3.700000e-07	-6.018124e-06	-9.322964e-09	-4.337351e+01	-6.116927e+02
3.800000e-07	-5.919583e-06	-9.284542e-09	-4.266331e+01	-6.076786e+02
3.900000e-07	-5.818898e-06	-9.203953e-09	-4.193766e+01	-6.035181e+02
4.000000e-07	-5.716228e-06	-9.129383e-09	-4.119770e+01	-5.992033e+02
4.100000e-07	-5.611596e-06	-9.066652e-09	-4.044360e+01	-5.947272e+02
4.200000e-07	-5.504957e-06	-8.997042e-09	-3.967504e+01	-5.900846e+02
4.300000e-07	-5.396316e-06	-8.918698e-09	-3.889205e+01	-5.852723e+02
4.400000e-07	-5.285782e-06	-8.854200e-09	-3.809541e+01	-5.802896e+02
4.500000e-07	-5.173316e-06	-8.794760e-09	-3.728485e+01	-5.751378e+02
4.600000e-07	-5.058825e-06	-8.709015e-09	-3.645970e+01	-5.698197e+02
4.700000e-07	-4.942330e-06	-8.609370e-09	-3.562011e+01	-5.643383e+02
4.800000e-07	-4.823962e-06	-8.518004e-09	-3.476701e+01	-5.586959e+02
4.900000e-07	-4.703836e-06	-8.431995e-09	-3.390124e+01	-5.528922e+02
5.000000e-07	-4.582022e-06	-8.339711e-09	-3.302331e+01	-5.469241e+02
5.100000e-07	-4.458485e-06	-8.247203e-09	-3.213296e+01	-5.407845e+02
5.200000e-07	-4.333362e-06	-8.148546e-09	-3.123118e+01	-5.344623e+02
5.300000e-07	-4.206689e-06	-8.046623e-09	-3.031823e+01	-5.279432e+02
5.400000e-07	-4.078475e-06	-7.942019e-09	-2.939417e+01	-5.212106e+02
5.500000e-07	-3.948855e-06	-7.839118e-09	-2.845998e+01	-5.142472e+02
5.600000e-07	-3.817612e-06	-7.729836e-09	-2.751409e+01	-5.070367e+02
5.700000e-07	-3.684863e-06	-7.614199e-09	-2.655735e+01	-4.995652e+02
5.800000e-07	-3.550816e-06	-7.492207e-09	-2.559126e+01	-4.918228e+02
5.900000e-07	-3.415406e-06	-7.364204e-09	-2.461533e+01	-4.838038e+02
6.000000e-07	-3.278738e-06	-7.232641e-09	-2.363035e+01	-4.755064e+02
6.100000e-07	-3.140868e-06	-7.101973e-09	-2.263670e+01	-4.669320e+02
6.200000e-07	-3.001568e-06	-6.971973e-09	-2.163275e+01	-4.580834e+02
6.300000e-07	-2.860819e-06	-6.836271e-09	-2.061835e+01	-4.489625e+02
6.400000e-07	-2.718909e-06	-6.698146e-09	-1.959558e+01	-4.395681e+02
6.500000e-07	-2.576041e-06	-6.554018e-09	-1.856591e+01	-4.298942e+02
6.600000e-07	-2.432239e-06	-6.400741e-09	-1.752950e+01	-4.199283e+02
6.700000e-07	-2.287392e-06	-6.235668e-09	-1.648557e+01	-4.096512e+02
6.800000e-07	-2.141700e-06	-6.067261e-09	-1.543555e+01	-3.990376e+02
6.900000e-07	-1.995396e-06	-5.895350e-09	-1.438111e+01	-3.880576e+02
7.000000e-07	-1.848459e-06	-5.718539e-09	-1.332212e+01	-3.766797e+02
7.100000e-07	-1.700928e-06	-5.538705e-09	-1.225884e+01	-3.648733e+02
7.200000e-07	-1.552839e-06	-5.354822e-09	-1.119154e+01	-3.526117e+02
7.300000e-07	-1.404310e-06	-5.164622e-09	-1.012107e+01	-3.398748e+02
7.400000e-07	-1.255427e-06	-4.963031e-09	-9.048045e+00	-3.266497e+02
7.500000e-07	-1.106180e-06	-4.756135e-09	-7.972406e+00	-3.129311e+02
7.600000e-07	-9.566109e-07	-4.543705e-09	-6.894436e+00	-2.987195e+02
7.700000e-07	-8.067224e-07	-4.322488e-09	-5.814168e+00	-2.840174e+02
7.800000e-07	-6.565211e-07	-4.089389e-09	-4.731644e+00	-2.688253e+02
7.900000e-07	-5.060357e-07	-3.848710e-09	-3.647074e+00	-2.531365e+02
8.000000e-07	-3.553482e-07	-3.602636e-09	-2.561047e+00	-2.369320e+02
8.100000e-07	-2.045486e-07	-3.346478e-09	-1.474212e+00	-2.201769e+02
8.200000e-07	-5.362143e-08	-3.079199e-09	-3.864576e-01	-2.028181e+02
8.300000e-07	9.738288e-08	-2.802976e-09	7.018528e-01	-1.847846e+02
8.400000e-07	2.483437e-07	-2.515653e-09	1.789850e+00	-1.659912e+02
8.500000e-07	3.992144e-07	-2.211280e-09	2.877197e+00	-1.463444e+02
8.600000e-07	5.499556e-07	-1.893177e-09	3.963611e+00	-1.257513e+02
8.700000e-07	7.005761e-07	-1.564361e-09	5.049155e+00	-1.041300e+02
8.800000e-07	8.509717e-07	-1.221324e-09	6.133078e+00	-8.142171e+01
8.900000e-07	1.001103e-06	-8.598070e-10	7.215095e+00	-5.760143e+01
9.000000e-07	1.150940e-06	-4.827158e-10	8.294991e+00	-3.268769e+01
9.100000e-07	1.300395e-06	-9.243633e-11	9.372136e+00	-6.749202e+00
9.200000e-07	1.449404e-06	3.138943e-10	1.044607e+01	2.009233e+01
9.300000e-07	1.597923e-06	7.353452e-10	1.151647e+01	4.766374e+01
9.400000e-07	1.745918e-06	1.168041e-09	1.258309e+01	7.574642e+01
9.500000e-07	1.893268e-06	1.605251e-09	1.364506e+01	1.040867e+02
9.600000e-07	2.039904e-06	2.040949e-09	1.470189e+01	1.324092e+02
9.700000e-07	2.185781e-06	2.468534e-09	1.575325e+01	1.604328e+02
9.800000e-07	2.330827e-06	2.886423e-09	1.679861e+01	1.878869e+02
9.900000e-07	2.474966e-06	3.291330e-09	1.783744e+01	2.145269e+02
1.000000e-06	2.618194e-06	3.679122e-09	1.886971e+01	2.401476e+02
1.010000e-06	2.760451e-06	4.045605e-09	1.989498e+01	2.645927e+02
1.020000e-06	2.901647e-06	4.390968e-09	2.091260e+01	2.877602e+02
1.030000e-06	3.041617e-06	4.718998e-09	2.192138e+01	3.096033e+02
1.040000e-06	3.180213e-06	5.030571e-09	2.292026e+01	3.301266e+02
1.050000e-06	3.317556e-06	5.324323e-09	2.391011e+01	3.493786e+02
1.060000e-06	3.453686e-06	5.600466e-09	2.489122e+01	3.674410e+02
1.070000e-06	3.588543e-06	5.862704e-09	2.586316e+01	3.844171e+02
1.080000e-06	3.722121e-06	6.110606e-09	2.682588e+01	4.004193e+02
1.090000e-06	3.854385e-06	6.343141e-09	2.777912e+01	4.155582e+02
1.100000e-06	3.985213e-06	6.562083e-09	2.872202e+01	4.299333e+02
1.110000e-06	4.114559e-06	6.769032e-09	2.965424e+01	4.436268e+02
1.120000e-06	4.242479e-06	6.965938e-09	3.057617e+01	4.567007e+02
1.130000e-06	4.368949e-06	7.153935e-09	3.148766e+01	4.691963e+02
1.140000e-06	4.494014e-06	7.334769e-09	3.238902e+01	4.811375e+02
1.150000e-06	4.617573e-06	7.506780e-09	3.327953e+01	4.925347e+02
1.160000e-06	4.739413e-06	7.666856e-09	3.415765e+01	5.033907e+02
1.170000e-06	4.859535e-06	7.818897e-09	3.502339e+01	5.137063e+02
1.180000e-06	4.977914e-06	7.966097e-09	3.587656e+01	5.234850e+02
1.190000e-06	5.094376e-06	8.110524e-09	3.671592e+01	5.327371e+02
1.200000e-06	5.208845e-06	8.247338e-09	3.754092e+01	5.414813e+02
1.210000e-06	5.321346e-06	8.375775e-09	3.835173e+01	5.497447e+02
1.220000e-06	5.431901e-06	8.496235e-09	3.914851e+01	5.575619e+02
1.230000e-06	5.540583e-06	8.611608e-09	3.993180e+01	5.649716e+02
1.240000e-06	5.647318e-06	8.722957e-09	4.070105e+01	5.720138e+02
1.250000e-06	5.751948e-06	8.825919e-09	4.145514e+01	5.787264e+02
1.260000e-06	5.854443e-06	8.921248e-09	4.219384e+01	5.851422e+02
1.270000e-06	5.954812e-06	9.011621e-09	4.291721e+01	5.912872e+02
1.280000e-06	6.052947e-06	9.099343e-09	4.362448e+01	5.971797e+02
1.290000e-06	6.148789e-06	9.184088e-09	4.431523e+01	6.028305e+02
1.300000e-06	6.242431e-06	9.265397e-09	4.499012e+01	6.082448e+02
1.310000e-06	6.333813e-06	9.343076e-09	4.564872e+01	6.134236e+02
1.320000e-06	6.422879e-06	9.416857e-09	4.629064e+01	6.183668e+02
1.330000e-06	6.509633e-06	9.487572e-09	4.691589e+01	6.230747e+02
1.340000e-06	6.594171e-06	9.556834e-09	4.752517e+01	6.275502e+02
1.350000e-06	6.676443e-06	9.624094e-09	4.811811e+01	6.317993e+02
1.360000e-06	6.756264e-06	9.685792e-09	4.869339e+01	6.358317e+02
1.370000e-06	6.833574e-06	9.741691e-09	4.925058e+01	6.396595e+02
1.380000e-06	6.908281e-06	9.795479e-09	4.978901e+01	6.432961e+02
1.390000e-06	6.980403e-06	9.849308e-09	5.030880e+01	6.467544e+02
1.400000e-06	7.050074e-06	9.901354e-09	5.081093e+01	6.500451e+02
1.410000e-06	7.117249e-06	9.950455e-09	5.129506e+01	6.531756e+02
1.420000e-06	7.181863e-06	9.996501e-09	5.176075e+01	6.561489e+02
1.430000e-06	7.243970e-06	1.003856e-08	5.220836e+01	6.589636e+02
1.440000e-06	7.303561e-06	1.007679e-08	5.263784e+01	6.616151e+02
1.450000e-06	7.360553e-06	1.011228e-08	5.304859e+01	6.640966e+02
1.460000e-06	7.414917e-06	1.014501e-08	5.344040e+01	6.664012e+02
1.470000e-06	7.466376e-06	1.017548e-08	5.381127e+01	6.685236e+02
1.480000e-06	7.514799e-06	1.020442e-08	5.416027e+01	6.704616e+02
1.490000e-06	7.560506e-06	1.023259e-08	5.448969e+01	6.722177e+02
1.500000e-06	7.603580e-06	1.025916e-08	5.480012e+01	6.737992e+02
1.510000e-06	7.643904e-06	1.028246e-08	5.509075e+01	6.752180e+02
1.520000e-06	7.681522e-06	1.030201e-08	5.536186e+01	6.764892e+02
1.530000e-06	7.716453e-06	1.031823e-08	5.561362e+01	6.776296e+02
1.540000e-06	7.748561e-06	1.033447e-08	5.584503e+01	6.786557e+02
1.550000e-06	7.777920e-06	1.035103e-08	5.605662e+01	6.795817e+02
1.560000e-06	7.804524e-06	1.036680e-08	5.624836e+01	6.804176e+02
1.570000e-06	7.828215e-06	1.038058e-08	5.641910e+01	6.811683e+02
1.580000e-06	7.849172e-06	1.039078e-08	5.657014e+01	6.818337e+02
1.590000e-06	7.867438e-06	1.039914e-08	5.670179e+01	6.824083e+02
1.600000e-06	7.882783e-06	1.040644e-08	5.681238e+01	6.828834e+02
1.610000e-06	7.895099e-06	1.041244e-08	5.690115e+01	6.832485e+02
1.620000e-06	7.904302e-06	1.041634e-08	5.696747e+01	6.834932e+02
1.630000e-06	7.910499e-06	1.041853e-08	5.701214e+01	6.836099e+02
1.640000e-06	7.913922e-06	1.042064e-08	5.703680e+01	6.835946e+02
1.650000e-06	7.914573e-06	1.042284e-08	5.704150e+01	6.834487e+02
1.660000e-06	7.912561e-06	1.041443e-08	5.702699e+01	6.831789e+02
1.670000e-06	7.907962e-06	1.040907e-08	5.699385e+01	6.827967e+02
1.680000e-06	7.900643e-06	1.040647e-08	5.694110e+01	6.823173e+02
1.690000e-06	7.890696e-06	1.040118e-08	5.686941e+01	6.817575e+02
1.700000e-06	7.878018e-06	1.039616e-08	5.677804e+01	6.811339e+02
1.710000e-06	7.862579e-06	1.039502e-08	5.666677e+01	6.804608e+02
1.720000e-06	7.844753e-06	1.039669e-08	5.653829e+01	6.797482e+02
1.730000e-06	7.824673e-06	1.035842e-08	5.639357e+01	6.790011e+02
1.740000e-06	7.801896e-06	1.023630e-08	5.622942e+01	6.782185e+02
1.750000e-06	7.775794e-06	1.024618e-08	5.604130e+01	6.773940e+02
1.760000e-06	7.746090e-06	1.028621e-08	5.582721e+01	6.765168e+02
1.770000e-06	7.713241e-06	1.026519e-08	5.559047e+01	6.755726e+02
1.780000e-06	7.678032e-06	1.028083e-08	5.533671e+01	6.745462e+02
1.790000e-06	7.640562e-06	1.037105e-08	5.506666e+01	6.734225e+02
1.800000e-06	7.600923e-06	1.026411e-08	5.478098e+01	6.721882e+02
1.810000e-06	7.559211e-06	1.015538e-08	5.448035e+01	6.708331e+02
1.820000e-06	7.514997e-06	1.027723e-08	5.416169e+01	6.693506e+02
1.830000e-06	7.468168e-06	1.014073e-08	5.382419e+01	6.677378e+02
1.840000e-06	7.418628e-06	1.019412e-08	5.346715e+01	6.659949e+02
1.850000e-06	7.366086e-06	1.019503e-08	5.308847e+01	6.641246e+02
1.860000e-06	7.310660e-06	1.011086e-08	5.268901e+01	6.621308e+02
1.870000e-06	7.252570e-06	1.014151e-08	5.227034e+01	6.600180e+02
1.880000e-06	7.191936e-06	9.964281e-09	5.183335e+01	6.577903e+02
1.890000e-06	7.128567e-06	1.001253e-08	5.137664e+01	6.554506e+02
1.900000e-06	7.062388e-06	9.966423e-09	5.089967e+01	6.530006e+02
1.910000e-06	6.993491e-06	9.883959e-09	5.040313e+01	6.504407e+02
1.920000e-06	6.921780e-06	9.914702e-09	4.988629e+01	6.477706e+02
1.930000e-06	6.847488e-06	9.834387e-09	4.935086e+01	6.449892e+02
1.940000e-06	6.770494e-06	9.819079e-09	4.879595e+01	6.420954e+02
1.950000e-06	6.690745e-06	9.689178e-09	4.822119e+01	6.390882e+02
1.960000e-06	6.608608e-06	9.688215e-09	4.762922e+01	6.359669e+02
1.970000e-06	6.524087e-06	9.667956e-09	4.702006e+01	6.327307e+02
1.980000e-06	6.437062e-06	9.578807e-09	4.639286e+01	6.293789e+02
1.990000e-06	6.347695e-06	9.577036e-09	4.574878e+01	6.259098e+02
2.000000e-06	6.256217e-06	9.506501e-09	4.508948e+01	6.223207e+02
2.010000e-06	6.162513e-06	9.447581e-09	4.441414e+01	6.186077e+02
2.020000e-06	6.066508e-06	9.342840e-09	4.372222e+01	6.147649e+02
2.030000e-06	5.968321e-06	9.315661e-09	4.301457e+01	6.107856e+02
2.040000e-06	5.868081e-06	9.267202e-09	4.229213e+01	6.066618e+02
2.050000e-06	5.765765e-06	9.195964e-09	4.155472e+01	6.023856e+02
2.060000e-06	5.661380e-06	9.126195e-09	4.080240e+01	5.979498e+02
2.070000e-06	5.555074e-06	9.049994e-09	4.003624e+01	5.933485e+02
2.080000e-06	5.446864e-06	8.972731e-09	3.925635e+01	5.885782e+02
2.090000e-06	5.336699e-06	8.873451e-09	3.846238e+01	5.836374e+02
2.100000e-06	5.224579e-06	8.814972e-09	3.765431e+01	5.785270e+02
2.110000e-06	5.110496e-06	8.739732e-09	3.683210e+01	5.732496e+02
2.120000e-06	4.994440e-06	8.664264e-09	3.599567e+01	5.678082e+02
2.130000e-06	4.876435e-06	8.574672e-09	3.514519e+01	5.622052e+02
2.140000e-06	4.756507e-06	8.496547e-09	3.428085e+01	5.564414e+02
2.150000e-06	4.634843e-06	8.400100e-09	3.340400e+01	5.505143e+02
2.160000e-06	4.511487e-06	8.299978e-09	3.251495e+01	5.444178e+02
2.170000e-06	4.386509e-06	8.203837e-09	3.161422e+01	5.381419e+02
2.180000e-06	4.259938e-06	8.111787e-09	3.070201e+01	5.316728e+02
2.190000e-06	4.131711e-06	8.016742e-09	2.977785e+01	5.249946e+02
2.200000e-06	4.002052e-06	7.909372e-09	2.884338e+01	5.180899e+02
2.210000e-06	3.870881e-06	7.796933e-09	2.789801e+01	5.109419e+02
2.220000e-06	3.738288e-06	7.675443e-09	2.694239e+01	5.035361e+02
2.230000e-06	3.604357e-06	7.565797e-09	2.597713e+01	4.958616e+02
2.240000e-06	3.468933e-06	7.455547e-09	2.500112e+01	4.879113e+02
2.250000e-06	3.332166e-06	7.340274e-09	2.401541e+01	4.796828e+02
2.260000e-06	3.194191e-06	7.208773e-09	2.302101e+01	4.711768e+02
2.270000e-06	3.055017e-06	7.071261e-09	2.201796e+01	4.623959e+02
2.280000e-06	2.914695e-06	6.925130e-09	2.100664e+01	4.533424e+02
2.290000e-06	2.773280e-06	6.778096e-09	1.998744e+01	4.440161e+02
2.300000e-06	2.630742e-06	6.634235e-09	1.896015e+01	4.344124e+02
2.310000e-06	2.487098e-06	6.489752e-09	1.792488e+01	4.245204e+02
2.320000e-06	2.342602e-06	6.336931e-09	1.688348e+01	4.143226e+02
2.330000e-06	2.197459e-06	6.175432e-09	1.583741e+01	4.037951e+02
2.340000e-06	2.051581e-06	6.012261e-09	1.478605e+01	3.929090e+02
2.350000e-06	1.904964e-06	5.842655e-09	1.372936e+01	3.816329e+02
2.360000e-06	1.757713e-06	5.662034e-09	1.266810e+01	3.699357e+02
2.370000e-06	1.609879e-06	5.471332e-09	1.160264e+01	3.577895e+02
2.380000e-06	1.461509e-06	5.277970e-09	1.053331e+01	3.451722e+02
2.390000e-06	1.312682e-06	5.082111e-09	9.460694e+00	3.320693e+02
2.400000e-06	1.163479e-06	4.876765e-09	8.385367e+00	3.184736e+02
2.410000e-06	1.013979e-06	4.659155e-09	7.307893e+00	3.043844e+02
2.420000e-06	8.642492e-07	4.434007e-09	6.228772e+00	2.898041e+02
2.430000e-06	7.142955e-07	4.204755e-09	5.148033e+00	2.747341e+02
2.440000e-06	5.640472e-07	3.972334e-09	4.065171e+00	2.591701e+02
2.450000e-06	4.135493e-07	3.732555e-09	2.980511e+00	2.430965e+02
2.460000e-06	2.628370e-07	3.479199e-09	1.894305e+00	2.264827e+02
2.470000e-06	1.118801e-07	3.208688e-09	8.063367e-01	2.092801e+02
2.480000e-06	-3.922833e-08	2.927464e-09	-2.827243e-01	1.914221e+02
2.490000e-06	-1.903366e-07	2.642416e-09	-1.371784e+00	1.728267e+02
2.500000e-06	-3.413352e-07	2.348682e-09	-2.460054e+00	1.534015e+02
2.510000e-06	-4.921895e-07	2.039970e-09	-3.547282e+00	1.330526e+02
2.520000e-06	-6.427993e-07	1.714825e-09	-4.632750e+00	1.116943e+02
2.530000e-06	-7.931532e-07	1.374269e-09	-5.716372e+00	8.926102e+01
2.540000e-06	-9.432653e-07	1.018525e-09	-6.798252e+00	6.571820e+01
2.550000e-06	-1.093063e-06	6.487680e-10	-7.877869e+00	4.107279e+01
2.560000e-06	-1.242543e-06	2.639020e-10	-8.955189e+00	1.538053e+01
2.570000e-06	-1.391618e-06	-1.390187e-10	-1.002959e+01	-1.125018e+01
2.580000e-06	-1.540153e-06	-5.601265e-10	-1.110011e+01	-3.865861e+01
2.590000e-06	-1.688118e-06	-9.937219e-10	-1.216652e+01	-6.663674e+01
2.600000e-06	-1.835526e-06	-1.431225e-09	-1.322891e+01	-9.493845e+01
2.610000e-06	-1.982274e-06	-1.869229e-09	-1.428654e+01	-1.232924e+02
2.620000e-06	-2.128238e-06	-2.305417e-09	-1.533853e+01	-1.514175e+02
2.630000e-06	-2.273424e-06	-2.732288e-09	-1.638490e+01	-1.790388e+02
2.640000e-06	-2.417826e-06	-3.142285e-09	-1.742563e+01	-2.059039e+02
2.650000e-06	-2.561266e-06	-3.534097e-09	-1.845943e+01	-2.317968e+02
2.660000e-06	-2.703549e-06	-3.909770e-09	-1.948488e+01	-2.565481e+02
2.670000e-06	-2.844723e-06	-4.267746e-09	-2.050234e+01	-2.800421e+02
2.680000e-06	-2.984752e-06	-4.603622e-09	-2.151155e+01	-3.022185e+02
2.690000e-06	-3.123577e-06	-4.918339e-09	-2.251208e+01	-3.230694e+02
2.700000e-06	-3.261250e-06	-5.215891e-09	-2.350431e+01	-3.426333e+02
2.710000e-06	-3.397762e-06	-5.497792e-09	-2.448817e+01	-3.609846e+02
2.720000e-06	-3.532938e-06	-5.763968e-09	-2.546241e+01	-3.782226e+02
2.730000e-06	-3.666758e-06	-6.014708e-09	-2.642687e+01	-3.944583e+02
2.740000e-06	-3.799301e-06	-6.252476e-09	-2.738212e+01	-4.098038e+02
2.750000e-06	-3.930474e-06	-6.478986e-09	-2.832751e+01	-4.243620e+02
2.760000e-06	-4.060281e-06	-6.694556e-09	-2.926304e+01	-4.382199e+02
2.770000e-06	-4.188738e-06	-6.899409e-09	-3.018885e+01	-4.514447e+02
2.780000e-06	-4.315712e-06	-7.093751e-09	-3.110397e+01	-4.640826e+02
2.790000e-06	-4.441153e-06	-7.277886e-09	-3.200804e+01	-4.761617e+02
2.800000e-06	-4.565116e-06	-7.450490e-09	-3.290147e+01	-4.876951e+02
2.810000e-06	-4.687458e-06	-7.613369e-09	-3.378320e+01	-4.986869e+02
2.820000e-06	-4.808088e-06	-7.770395e-09	-3.465260e+01	-5.091381e+02
2.830000e-06	-4.926895e-06	-7.921742e-09	-3.550886e+01	-5.190510e+02
2.840000e-06	-5.043773e-06	-8.065660e-09	-3.635122e+01	-5.284340e+02
2.850000e-06	-5.158619e-06	-8.201720e-09	-3.717893e+01	-5.373035e+02
2.860000e-06	-5.271290e-06	-8.329958e-09	-3.799097e+01	-5.456848e+02
2.870000e-06	-5.381891e-06	-8.451264e-09	-3.878808e+01	-5.536107e+02
2.880000e-06	-5.490634e-06	-8.566894e-09	-3.957181e+01	-5.611191e+02
2.890000e-06	-5.597523e-06	-8.678117e-09	-4.034218e+01	-5.682501e+02
2.900000e-06	-5.702449e-06	-8.784878e-09	-4.109839e+01	-5.750424e+02
2.910000e-06	-5.805249e-06	-8.884932e-09	-4.183929e+01	-5.815304e+02
2.920000e-06	-5.905876e-06	-8.979127e-09	-4.256452e+01	-5.877417e+02
2.930000e-06	-6.004404e-06	-9.068343e-09	-4.327463e+01	-5.936966e+02
2.940000e-06	-6.100794e-06	-9.152933e-09	-4.396932e+01	-5.994078e+02
