# Temperatura_=_51.42
# Concentracion g/m^3_=_10000.0
# C_Vs_to_Am_M_A/Vsm_=_65563218390.804596
# pendiente_HvsI_1/m_=_3716.3
# ordenada_HvsI_A/m_=_1297.0
# frecuencia_Hz_=_302619.91136218904

Tiempo_(s)	Campo_(V.s)	Magnetizacion_(V.s)	Campo_(kA/m)	Magnetizacion_(A/m)
0.000000e+00	-7.904982e-06	-1.059476e-08	-5.683419e+01	-6.945321e+02
1.000000e-08	-7.902772e-06	-1.059806e-08	-5.681830e+01	-6.942516e+02
2.000000e-08	-7.897922e-06	-1.059430e-08	-5.678343e+01	-6.938496e+02
3.000000e-08	-7.890588e-06	-1.058820e-08	-5.673070e+01	-6.933388e+02
4.000000e-08	-7.880505e-06	-1.058004e-08	-5.665821e+01	-6.927335e+02
5.000000e-08	-7.867491e-06	-1.056958e-08	-5.656464e+01	-6.920480e+02
6.000000e-08	-7.851557e-06	-1.055680e-08	-5.645008e+01	-6.912953e+02
7.000000e-08	-7.833037e-06	-1.054385e-08	-5.631693e+01	-6.904853e+02
8.000000e-08	-7.812329e-06	-1.053169e-08	-5.616804e+01	-6.896249e+02
9.000000e-08	-7.789072e-06	-1.055727e-08	-5.600083e+01	-6.887169e+02
1.000000e-07	-7.762658e-06	-1.055837e-08	-5.581092e+01	-6.877604e+02
1.100000e-07	-7.733062e-06	-1.052397e-08	-5.559814e+01	-6.867518e+02
1.200000e-07	-7.700646e-06	-1.049309e-08	-5.536508e+01	-6.856850e+02
1.300000e-07	-7.665530e-06	-1.046936e-08	-5.511261e+01	-6.845527e+02
1.400000e-07	-7.627936e-06	-1.043940e-08	-5.484232e+01	-6.833472e+02
1.500000e-07	-7.588183e-06	-1.037885e-08	-5.455651e+01	-6.820606e+02
1.600000e-07	-7.546203e-06	-1.036645e-08	-5.425468e+01	-6.806855e+02
1.700000e-07	-7.501675e-06	-1.037109e-08	-5.393455e+01	-6.792150e+02
1.800000e-07	-7.454449e-06	-1.031648e-08	-5.359501e+01	-6.776422e+02
1.900000e-07	-7.404423e-06	-1.030296e-08	-5.323534e+01	-6.759604e+02
2.000000e-07	-7.351409e-06	-1.028847e-08	-5.285418e+01	-6.741626e+02
2.100000e-07	-7.295527e-06	-1.023836e-08	-5.245241e+01	-6.722419e+02
2.200000e-07	-7.237005e-06	-1.020609e-08	-5.203166e+01	-6.701908e+02
2.300000e-07	-7.175910e-06	-1.018774e-08	-5.159240e+01	-6.680027e+02
2.400000e-07	-7.112218e-06	-1.016632e-08	-5.113448e+01	-6.656716e+02
2.500000e-07	-7.045754e-06	-1.009176e-08	-5.065663e+01	-6.631933e+02
2.600000e-07	-6.976588e-06	-1.006027e-08	-5.015934e+01	-6.605660e+02
2.700000e-07	-6.904828e-06	-1.002927e-08	-4.964341e+01	-6.577905e+02
2.800000e-07	-6.830288e-06	-9.972592e-09	-4.910749e+01	-6.548706e+02
2.900000e-07	-6.752942e-06	-9.925762e-09	-4.855140e+01	-6.518124e+02
3.000000e-07	-6.672863e-06	-9.893697e-09	-4.797566e+01	-6.486241e+02
3.100000e-07	-6.590291e-06	-9.852206e-09	-4.738199e+01	-6.453142e+02
3.200000e-07	-6.505507e-06	-9.781805e-09	-4.677243e+01	-6.418907e+02
3.300000e-07	-6.418385e-06	-9.737071e-09	-4.614605e+01	-6.383596e+02
3.400000e-07	-6.328909e-06	-9.686247e-09	-4.550275e+01	-6.347233e+02
3.500000e-07	-6.237184e-06	-9.624592e-09	-4.484327e+01	-6.309804e+02
3.600000e-07	-6.143224e-06	-9.560956e-09	-4.416773e+01	-6.271249e+02
3.700000e-07	-6.047022e-06	-9.503359e-09	-4.347607e+01	-6.231469e+02
3.800000e-07	-5.948562e-06	-9.442666e-09	-4.276818e+01	-6.190335e+02
3.900000e-07	-5.848013e-06	-9.368243e-09	-4.204526e+01	-6.147703e+02
4.000000e-07	-5.745426e-06	-9.303945e-09	-4.130770e+01	-6.103430e+02
4.100000e-07	-5.640832e-06	-9.236976e-09	-4.055570e+01	-6.057396e+02
4.200000e-07	-5.534222e-06	-9.160733e-09	-3.978921e+01	-6.009514e+02
4.300000e-07	-5.425611e-06	-9.080053e-09	-3.900833e+01	-5.959741e+02
4.400000e-07	-5.315087e-06	-9.013339e-09	-3.821370e+01	-5.908085e+02
4.500000e-07	-5.202602e-06	-8.937783e-09	-3.740497e+01	-5.854591e+02
4.600000e-07	-5.088053e-06	-8.846937e-09	-3.658140e+01	-5.799338e+02
4.700000e-07	-4.971533e-06	-8.757573e-09	-3.574367e+01	-5.742412e+02
4.800000e-07	-4.853196e-06	-8.671634e-09	-3.489286e+01	-5.683891e+02
4.900000e-07	-4.733080e-06	-8.578561e-09	-3.402927e+01	-5.623822e+02
5.000000e-07	-4.611274e-06	-8.481759e-09	-3.315352e+01	-5.562204e+02
5.100000e-07	-4.487767e-06	-8.388419e-09	-3.226555e+01	-5.498978e+02
5.200000e-07	-4.362611e-06	-8.284650e-09	-3.136572e+01	-5.434026e+02
5.300000e-07	-4.235809e-06	-8.176844e-09	-3.045406e+01	-5.367181e+02
5.400000e-07	-4.107487e-06	-8.068621e-09	-2.953146e+01	-5.298239e+02
5.500000e-07	-3.977737e-06	-7.961828e-09	-2.859861e+01	-5.226984e+02
5.600000e-07	-3.846371e-06	-7.849289e-09	-2.765413e+01	-5.153211e+02
5.700000e-07	-3.713543e-06	-7.732616e-09	-2.669914e+01	-5.076750e+02
5.800000e-07	-3.579317e-06	-7.612228e-09	-2.573410e+01	-4.997482e+02
5.900000e-07	-3.443659e-06	-7.485445e-09	-2.475876e+01	-4.915348e+02
6.000000e-07	-3.306734e-06	-7.354552e-09	-2.377431e+01	-4.830345e+02
6.100000e-07	-3.168531e-06	-7.221339e-09	-2.278068e+01	-4.742518e+02
6.200000e-07	-3.028905e-06	-7.085907e-09	-2.177682e+01	-4.651932e+02
6.300000e-07	-2.887958e-06	-6.942998e-09	-2.076346e+01	-4.558647e+02
6.400000e-07	-2.745897e-06	-6.796590e-09	-1.974208e+01	-4.462688e+02
6.500000e-07	-2.602759e-06	-6.646840e-09	-1.871297e+01	-4.364021e+02
6.600000e-07	-2.458652e-06	-6.489823e-09	-1.767689e+01	-4.262531e+02
6.700000e-07	-2.313588e-06	-6.325067e-09	-1.663393e+01	-4.158020e+02
6.800000e-07	-2.167698e-06	-6.158031e-09	-1.558503e+01	-4.050211e+02
6.900000e-07	-2.021183e-06	-5.985783e-09	-1.453163e+01	-3.938772e+02
7.000000e-07	-1.873998e-06	-5.806625e-09	-1.347342e+01	-3.823344e+02
7.100000e-07	-1.726137e-06	-5.622943e-09	-1.241035e+01	-3.703576e+02
7.200000e-07	-1.577757e-06	-5.436006e-09	-1.134355e+01	-3.579164e+02
7.300000e-07	-1.429024e-06	-5.242027e-09	-1.027421e+01	-3.449881e+02
7.400000e-07	-1.279926e-06	-5.037943e-09	-9.202239e+00	-3.315588e+02
7.500000e-07	-1.130369e-06	-4.828258e-09	-8.126978e+00	-3.176241e+02
7.600000e-07	-9.804078e-07	-4.610294e-09	-7.048806e+00	-3.031865e+02
7.700000e-07	-8.300604e-07	-4.384376e-09	-5.967858e+00	-2.882522e+02
7.800000e-07	-6.793760e-07	-4.150440e-09	-4.884487e+00	-2.728255e+02
7.900000e-07	-5.284790e-07	-3.908836e-09	-3.799588e+00	-2.569032e+02
8.000000e-07	-3.774205e-07	-3.658888e-09	-2.713528e+00	-2.404690e+02
8.100000e-07	-2.262957e-07	-3.397975e-09	-1.626990e+00	-2.234887e+02
8.200000e-07	-7.506459e-08	-3.126955e-09	-5.396894e-01	-2.059081e+02
8.300000e-07	7.631076e-08	-2.846936e-09	5.486489e-01	-1.876528e+02
8.400000e-07	2.276982e-07	-2.555143e-09	1.637075e+00	-1.686321e+02
8.500000e-07	3.789776e-07	-2.247311e-09	2.724723e+00	-1.487457e+02
8.600000e-07	5.301638e-07	-1.925402e-09	3.811701e+00	-1.278930e+02
8.700000e-07	6.812602e-07	-1.592453e-09	4.898034e+00	-1.059850e+02
8.800000e-07	8.321571e-07	-1.243936e-09	5.982933e+00	-8.295638e+01
8.900000e-07	9.827675e-07	-8.768391e-10	7.065771e+00	-5.877807e+01
9.000000e-07	1.132998e-06	-4.926900e-10	8.145879e+00	-3.346696e+01
9.100000e-07	1.282802e-06	-9.449193e-11	9.222916e+00	-7.093089e+00
9.200000e-07	1.432161e-06	3.169932e-10	1.029676e+01	2.021755e+01
9.300000e-07	1.581095e-06	7.436677e-10	1.136755e+01	4.828488e+01
9.400000e-07	1.729513e-06	1.182226e-09	1.243462e+01	7.688146e+01
9.500000e-07	1.877276e-06	1.628470e-09	1.349699e+01	1.057435e+02
9.600000e-07	2.024381e-06	2.074898e-09	1.455462e+01	1.345856e+02
9.700000e-07	2.170802e-06	2.513525e-09	1.560735e+01	1.631169e+02
9.800000e-07	2.316376e-06	2.941325e-09	1.665397e+01	1.910588e+02
9.900000e-07	2.460983e-06	3.353502e-09	1.769365e+01	2.181605e+02
1.000000e-06	2.604659e-06	3.747116e-09	1.872663e+01	2.442130e+02
1.010000e-06	2.747344e-06	4.119088e-09	1.975249e+01	2.690583e+02
1.020000e-06	2.888945e-06	4.470014e-09	2.077055e+01	2.925949e+02
1.030000e-06	3.029364e-06	4.801612e-09	2.178011e+01	3.147781e+02
1.040000e-06	3.168539e-06	5.115814e-09	2.278074e+01	3.356154e+02
1.050000e-06	3.306433e-06	5.413920e-09	2.377215e+01	3.551587e+02
1.060000e-06	3.443034e-06	5.694477e-09	2.475427e+01	3.734930e+02
1.070000e-06	3.578343e-06	5.959087e-09	2.572709e+01	3.907247e+02
1.080000e-06	3.712341e-06	6.208698e-09	2.669049e+01	4.069683e+02
1.090000e-06	3.845079e-06	6.445950e-09	2.764484e+01	4.223361e+02
1.100000e-06	3.976467e-06	6.669959e-09	2.858947e+01	4.369286e+02
1.110000e-06	4.106369e-06	6.880870e-09	2.952343e+01	4.508290e+02
1.120000e-06	4.234815e-06	7.081019e-09	3.044691e+01	4.641002e+02
1.130000e-06	4.361784e-06	7.270064e-09	3.135977e+01	4.767848e+02
1.140000e-06	4.487278e-06	7.450851e-09	3.226203e+01	4.889083e+02
1.150000e-06	4.611289e-06	7.625803e-09	3.315363e+01	5.004835e+02
1.160000e-06	4.733661e-06	7.793097e-09	3.403345e+01	5.115157e+02
1.170000e-06	4.854287e-06	7.951672e-09	3.490071e+01	5.220085e+02
1.180000e-06	4.973110e-06	8.101486e-09	3.575501e+01	5.319682e+02
1.190000e-06	5.090140e-06	8.244027e-09	3.659641e+01	5.414072e+02
1.200000e-06	5.205259e-06	8.378503e-09	3.742407e+01	5.503452e+02
1.210000e-06	5.318332e-06	8.506923e-09	3.823704e+01	5.588096e+02
1.220000e-06	5.429392e-06	8.631395e-09	3.903552e+01	5.668336e+02
1.230000e-06	5.538550e-06	8.753179e-09	3.982033e+01	5.744536e+02
1.240000e-06	5.645814e-06	8.870945e-09	4.059152e+01	5.817063e+02
1.250000e-06	5.751001e-06	8.980176e-09	4.134778e+01	5.886256e+02
1.260000e-06	5.854043e-06	9.081177e-09	4.208862e+01	5.952406e+02
1.270000e-06	5.954990e-06	9.174473e-09	4.281439e+01	6.015735e+02
1.280000e-06	6.053783e-06	9.262294e-09	4.352468e+01	6.076401e+02
1.290000e-06	6.150231e-06	9.345321e-09	4.421811e+01	6.134499e+02
1.300000e-06	6.244349e-06	9.423963e-09	4.489479e+01	6.190080e+02
1.310000e-06	6.336270e-06	9.500252e-09	4.555567e+01	6.243170e+02
1.320000e-06	6.425911e-06	9.577030e-09	4.620016e+01	6.293794e+02
1.330000e-06	6.513234e-06	9.654440e-09	4.682798e+01	6.341989e+02
1.340000e-06	6.598322e-06	9.728433e-09	4.743973e+01	6.387823e+02
1.350000e-06	6.681144e-06	9.797994e-09	4.803520e+01	6.431393e+02
1.360000e-06	6.761462e-06	9.862480e-09	4.861266e+01	6.472825e+02
1.370000e-06	6.839201e-06	9.921229e-09	4.917158e+01	6.512258e+02
1.380000e-06	6.914393e-06	9.976970e-09	4.971218e+01	6.549832e+02
1.390000e-06	6.987004e-06	1.003041e-08	5.023423e+01	6.585671e+02
1.400000e-06	7.057159e-06	1.008031e-08	5.073862e+01	6.619862e+02
1.410000e-06	7.124843e-06	1.012821e-08	5.122524e+01	6.652450e+02
1.420000e-06	7.189938e-06	1.017693e-08	5.169326e+01	6.683431e+02
1.430000e-06	7.252528e-06	1.022523e-08	5.214326e+01	6.712758e+02
1.440000e-06	7.312674e-06	1.026935e-08	5.257569e+01	6.740356e+02
1.450000e-06	7.370258e-06	1.030817e-08	5.298970e+01	6.766134e+02
1.460000e-06	7.425190e-06	1.034297e-08	5.338464e+01	6.790008e+02
1.470000e-06	7.477276e-06	1.037429e-08	5.375913e+01	6.811924e+02
1.480000e-06	7.526220e-06	1.040089e-08	5.411101e+01	6.831869e+02
1.490000e-06	7.572263e-06	1.042536e-08	5.444205e+01	6.849883e+02
1.500000e-06	7.615761e-06	1.044979e-08	5.475478e+01	6.866062e+02
1.510000e-06	7.656589e-06	1.047418e-08	5.504832e+01	6.880548e+02
1.520000e-06	7.694652e-06	1.049684e-08	5.532198e+01	6.893519e+02
1.530000e-06	7.730036e-06	1.051587e-08	5.557639e+01	6.905164e+02
1.540000e-06	7.762660e-06	1.053409e-08	5.581094e+01	6.915667e+02
1.550000e-06	7.792483e-06	1.055102e-08	5.602536e+01	6.925182e+02
1.560000e-06	7.819569e-06	1.056601e-08	5.622010e+01	6.933819e+02
1.570000e-06	7.843762e-06	1.057877e-08	5.639404e+01	6.941631e+02
1.580000e-06	7.865148e-06	1.058803e-08	5.654779e+01	6.948616e+02
1.590000e-06	7.883860e-06	1.059461e-08	5.668233e+01	6.954718e+02
1.600000e-06	7.899720e-06	1.060124e-08	5.679635e+01	6.959846e+02
1.610000e-06	7.912555e-06	1.060906e-08	5.688863e+01	6.963886e+02
1.620000e-06	7.922200e-06	1.061605e-08	5.695798e+01	6.966726e+02
1.630000e-06	7.928819e-06	1.062127e-08	5.700556e+01	6.968271e+02
1.640000e-06	7.932722e-06	1.062341e-08	5.703362e+01	6.968466e+02
1.650000e-06	7.933817e-06	1.062226e-08	5.704150e+01	6.967299e+02
1.660000e-06	7.932140e-06	1.061282e-08	5.702944e+01	6.964807e+02
1.670000e-06	7.927914e-06	1.060627e-08	5.699906e+01	6.961075e+02
1.680000e-06	7.921063e-06	1.059905e-08	5.694980e+01	6.956221e+02
1.690000e-06	7.911533e-06	1.059097e-08	5.688129e+01	6.950385e+02
1.700000e-06	7.899207e-06	1.058552e-08	5.679267e+01	6.943712e+02
1.710000e-06	7.884102e-06	1.058211e-08	5.668407e+01	6.936336e+02
1.720000e-06	7.866540e-06	1.057514e-08	5.655780e+01	6.928366e+02
1.730000e-06	7.846736e-06	1.053831e-08	5.641542e+01	6.919879e+02
1.740000e-06	7.824364e-06	1.046748e-08	5.625457e+01	6.910911e+02
1.750000e-06	7.798735e-06	1.046293e-08	5.607031e+01	6.901465e+02
1.760000e-06	7.769539e-06	1.046422e-08	5.586040e+01	6.891508e+02
1.770000e-06	7.737131e-06	1.044465e-08	5.562739e+01	6.880986e+02
1.780000e-06	7.702198e-06	1.044073e-08	5.537624e+01	6.869829e+02
1.790000e-06	7.664912e-06	1.047909e-08	5.510817e+01	6.857959e+02
1.800000e-06	7.625430e-06	1.043736e-08	5.482430e+01	6.845297e+02
1.810000e-06	7.583925e-06	1.039992e-08	5.452589e+01	6.831769e+02
1.820000e-06	7.539976e-06	1.042926e-08	5.420991e+01	6.817303e+02
1.830000e-06	7.493444e-06	1.036458e-08	5.387537e+01	6.801831e+02
1.840000e-06	7.444206e-06	1.038721e-08	5.352136e+01	6.785286e+02
1.850000e-06	7.391943e-06	1.033624e-08	5.314561e+01	6.767600e+02
1.860000e-06	7.336842e-06	1.030797e-08	5.274945e+01	6.748701e+02
1.870000e-06	7.279006e-06	1.028917e-08	5.233362e+01	6.728517e+02
1.880000e-06	7.218488e-06	1.018602e-08	5.189852e+01	6.706979e+02
1.890000e-06	7.155324e-06	1.022364e-08	5.144440e+01	6.684024e+02
1.900000e-06	7.089404e-06	1.017150e-08	5.097045e+01	6.659607e+02
1.910000e-06	7.020758e-06	1.011429e-08	5.047691e+01	6.633701e+02
1.920000e-06	6.949339e-06	1.009857e-08	4.996343e+01	6.606309e+02
1.930000e-06	6.875298e-06	1.004224e-08	4.943110e+01	6.577460e+02
1.940000e-06	6.798563e-06	9.995112e-09	4.887941e+01	6.547211e+02
1.950000e-06	6.719043e-06	9.913737e-09	4.830768e+01	6.515640e+02
1.960000e-06	6.637034e-06	9.903973e-09	4.771806e+01	6.482831e+02
1.970000e-06	6.552624e-06	9.840660e-09	4.711118e+01	6.448868e+02
1.980000e-06	6.465716e-06	9.775444e-09	4.648634e+01	6.413817e+02
1.990000e-06	6.376409e-06	9.738182e-09	4.584425e+01	6.377711e+02
2.000000e-06	6.284999e-06	9.683710e-09	4.518705e+01	6.340547e+02
2.010000e-06	6.191442e-06	9.624467e-09	4.451441e+01	6.302276e+02
2.020000e-06	6.095579e-06	9.542347e-09	4.382518e+01	6.262807e+02
2.030000e-06	5.997487e-06	9.501569e-09	4.311993e+01	6.222020e+02
2.040000e-06	5.897310e-06	9.430733e-09	4.239970e+01	6.179770e+02
2.050000e-06	5.795058e-06	9.357842e-09	4.166453e+01	6.135914e+02
2.060000e-06	5.690734e-06	9.284039e-09	4.091448e+01	6.090325e+02
2.070000e-06	5.584461e-06	9.223621e-09	4.015041e+01	6.042904e+02
2.080000e-06	5.476256e-06	9.140356e-09	3.937246e+01	5.993600e+02
2.090000e-06	5.366134e-06	9.050239e-09	3.858072e+01	5.942406e+02
2.100000e-06	5.254019e-06	8.982760e-09	3.777465e+01	5.889360e+02
2.110000e-06	5.139889e-06	8.903052e-09	3.695409e+01	5.834533e+02
2.120000e-06	5.023842e-06	8.818229e-09	3.611975e+01	5.778012e+02
2.130000e-06	4.905819e-06	8.726340e-09	3.527120e+01	5.719878e+02
2.140000e-06	4.785842e-06	8.640455e-09	3.440861e+01	5.660189e+02
2.150000e-06	4.664096e-06	8.541148e-09	3.353329e+01	5.598955e+02
2.160000e-06	4.540650e-06	8.446237e-09	3.264576e+01	5.536134e+02
2.170000e-06	4.415576e-06	8.349052e-09	3.174652e+01	5.471623e+02
2.180000e-06	4.288880e-06	8.253518e-09	3.083562e+01	5.405264e+02
2.190000e-06	4.160556e-06	8.148768e-09	2.991301e+01	5.336860e+02
2.200000e-06	4.030734e-06	8.042520e-09	2.897963e+01	5.266198e+02
2.210000e-06	3.899412e-06	7.930880e-09	2.803547e+01	5.193067e+02
2.220000e-06	3.766727e-06	7.810465e-09	2.708151e+01	5.117286e+02
2.230000e-06	3.632678e-06	7.689747e-09	2.611774e+01	5.038722e+02
2.240000e-06	3.497177e-06	7.568039e-09	2.514354e+01	4.957300e+02
2.250000e-06	3.360335e-06	7.443105e-09	2.415969e+01	4.873007e+02
2.260000e-06	3.222221e-06	7.309918e-09	2.316669e+01	4.785875e+02
2.270000e-06	3.082911e-06	7.178382e-09	2.216510e+01	4.695966e+02
2.280000e-06	2.942393e-06	7.038898e-09	2.115483e+01	4.603346e+02
2.290000e-06	2.800687e-06	6.892001e-09	2.013601e+01	4.508051e+02
2.300000e-06	2.657879e-06	6.741670e-09	1.910927e+01	4.410062e+02
2.310000e-06	2.514067e-06	6.592444e-09	1.807530e+01	4.309288e+02
2.320000e-06	2.369422e-06	6.437427e-09	1.703536e+01	4.205549e+02
2.330000e-06	2.224070e-06	6.274545e-09	1.599032e+01	4.098589e+02
2.340000e-06	2.077950e-06	6.104686e-09	1.493977e+01	3.988086e+02
2.350000e-06	1.931020e-06	5.926636e-09	1.388339e+01	3.873683e+02
2.360000e-06	1.783435e-06	5.741327e-09	1.282230e+01	3.755025e+02
2.370000e-06	1.635302e-06	5.551243e-09	1.175727e+01	3.631793e+02
2.380000e-06	1.486720e-06	5.357368e-09	1.068902e+01	3.503739e+02
2.390000e-06	1.337725e-06	5.157913e-09	9.617798e+00	3.370701e+02
2.400000e-06	1.188255e-06	4.950194e-09	8.543158e+00	3.232611e+02
2.410000e-06	1.038387e-06	4.733379e-09	7.465655e+00	3.089482e+02
2.420000e-06	8.881991e-07	4.507506e-09	6.385856e+00	2.941370e+02
2.430000e-06	7.377090e-07	4.272742e-09	5.303882e+00	2.788327e+02
2.440000e-06	5.870230e-07	4.032073e-09	4.220500e+00	2.630347e+02
2.450000e-06	4.361242e-07	3.783125e-09	3.135588e+00	2.467303e+02
2.460000e-06	2.849798e-07	3.525261e-09	2.048910e+00	2.298903e+02
2.470000e-06	1.337204e-07	3.257858e-09	9.614051e-01	2.124654e+02
2.480000e-06	-1.759314e-08	2.980717e-09	-1.264888e-01	1.943861e+02
2.490000e-06	-1.689610e-07	2.693102e-09	-1.214773e+00	1.755655e+02
2.500000e-06	-3.203113e-07	2.390260e-09	-2.302931e+00	1.559045e+02
2.510000e-06	-4.715284e-07	2.072392e-09	-3.390132e+00	1.353019e+02
2.520000e-06	-6.225681e-07	1.740585e-09	-4.476057e+00	1.136643e+02
2.530000e-06	-7.734132e-07	1.395632e-09	-5.560583e+00	9.091966e+01
2.540000e-06	-9.240256e-07	1.037766e-09	-6.643436e+00	6.702858e+01
2.550000e-06	-1.074346e-06	6.657954e-10	-7.724186e+00	4.199571e+01
2.560000e-06	-1.224307e-06	2.759095e-10	-8.802361e+00	1.587735e+01
2.570000e-06	-1.373803e-06	-1.349972e-10	-9.877189e+00	-1.121450e+01
2.580000e-06	-1.522741e-06	-5.634314e-10	-1.094800e+01	-3.911284e+01
2.590000e-06	-1.671089e-06	-1.003013e-09	-1.201457e+01	-6.760120e+01
2.600000e-06	-1.818872e-06	-1.448243e-09	-1.307708e+01	-9.642366e+01
2.610000e-06	-1.966041e-06	-1.895866e-09	-1.413518e+01	-1.252986e+02
2.620000e-06	-2.112464e-06	-2.341460e-09	-1.518791e+01	-1.539351e+02
2.630000e-06	-2.258107e-06	-2.775499e-09	-1.623504e+01	-1.820497e+02
2.640000e-06	-2.402949e-06	-3.191272e-09	-1.727640e+01	-2.093835e+02
2.650000e-06	-2.546873e-06	-3.589566e-09	-1.831117e+01	-2.357157e+02
2.660000e-06	-2.689794e-06	-3.970629e-09	-1.933872e+01	-2.608751e+02
2.670000e-06	-2.831588e-06	-4.333440e-09	-2.035818e+01	-2.847458e+02
2.680000e-06	-2.972159e-06	-4.675919e-09	-2.136883e+01	-3.072692e+02
2.690000e-06	-3.111476e-06	-4.996656e-09	-2.237048e+01	-3.284402e+02
2.700000e-06	-3.249577e-06	-5.298027e-09	-2.336338e+01	-3.483007e+02
2.710000e-06	-3.386565e-06	-5.583622e-09	-2.434827e+01	-3.669285e+02
2.720000e-06	-3.522324e-06	-5.855225e-09	-2.532434e+01	-3.844257e+02
2.730000e-06	-3.656719e-06	-6.111806e-09	-2.629059e+01	-4.009061e+02
2.740000e-06	-3.789802e-06	-6.353140e-09	-2.724741e+01	-4.164834e+02
2.750000e-06	-3.921513e-06	-6.581552e-09	-2.819437e+01	-4.312617e+02
2.760000e-06	-4.051842e-06	-6.799800e-09	-2.913140e+01	-4.453291e+02
2.770000e-06	-4.180847e-06	-7.008761e-09	-3.005890e+01	-4.587533e+02
2.780000e-06	-4.308346e-06	-7.207332e-09	-3.097557e+01	-4.715821e+02
2.790000e-06	-4.434292e-06	-7.394676e-09	-3.188108e+01	-4.838449e+02
2.800000e-06	-4.558710e-06	-7.571247e-09	-3.277560e+01	-4.955570e+02
2.810000e-06	-4.681523e-06	-7.737703e-09	-3.365859e+01	-5.067252e+02
2.820000e-06	-4.802665e-06	-7.895213e-09	-3.452956e+01	-5.173530e+02
2.830000e-06	-4.922007e-06	-8.046416e-09	-3.538759e+01	-5.274457e+02
2.840000e-06	-5.039457e-06	-8.193452e-09	-3.623202e+01	-5.370138e+02
2.850000e-06	-5.154877e-06	-8.333807e-09	-3.706185e+01	-5.460753e+02
2.860000e-06	-5.268179e-06	-8.464959e-09	-3.787645e+01	-5.546558e+02
2.870000e-06	-5.379422e-06	-8.590068e-09	-3.867625e+01	-5.627871e+02
2.880000e-06	-5.488693e-06	-8.711529e-09	-3.946188e+01	-5.705052e+02
2.890000e-06	-5.596081e-06	-8.826039e-09	-4.023396e+01	-5.778469e+02
2.900000e-06	-5.701593e-06	-8.933010e-09	-4.099256e+01	-5.848472e+02
2.910000e-06	-5.805033e-06	-9.035211e-09	-4.173626e+01	-5.915364e+02
2.920000e-06	-5.906251e-06	-9.133266e-09	-4.246398e+01	-5.979387e+02
2.930000e-06	-6.005300e-06	-9.225747e-09	-4.317610e+01	-6.040713e+02
2.940000e-06	-6.102266e-06	-9.313535e-09	-4.387326e+01	-6.099453e+02
