# Temperatura_=_47.21
# Concentracion g/m^3_=_10000.0
# C_Vs_to_Am_M_A/Vsm_=_65563218390.804596
# pendiente_HvsI_1/m_=_3716.3
# ordenada_HvsI_A/m_=_1297.0
# frecuencia_Hz_=_302621.1512100687

Tiempo_(s)	Campo_(V.s)	Magnetizacion_(V.s)	Campo_(kA/m)	Magnetizacion_(A/m)
0.000000e+00	-7.839396e-06	-1.041748e-08	-5.683161e+01	-6.825588e+02
1.000000e-08	-7.837334e-06	-1.042076e-08	-5.681666e+01	-6.823089e+02
2.000000e-08	-7.832610e-06	-1.041823e-08	-5.678242e+01	-6.819392e+02
3.000000e-08	-7.825400e-06	-1.041229e-08	-5.673015e+01	-6.814615e+02
4.000000e-08	-7.815410e-06	-1.040454e-08	-5.665773e+01	-6.808900e+02
5.000000e-08	-7.802517e-06	-1.039364e-08	-5.656426e+01	-6.802402e+02
6.000000e-08	-7.786670e-06	-1.038019e-08	-5.644938e+01	-6.795264e+02
7.000000e-08	-7.768218e-06	-1.036622e-08	-5.631561e+01	-6.787609e+02
8.000000e-08	-7.747633e-06	-1.034560e-08	-5.616638e+01	-6.779525e+02
9.000000e-08	-7.724552e-06	-1.037316e-08	-5.599906e+01	-6.771056e+02
1.000000e-07	-7.698347e-06	-1.041045e-08	-5.580908e+01	-6.762206e+02
1.100000e-07	-7.668938e-06	-1.036606e-08	-5.559588e+01	-6.752933e+02
1.200000e-07	-7.636751e-06	-1.031358e-08	-5.536254e+01	-6.743166e+02
1.300000e-07	-7.601940e-06	-1.028677e-08	-5.511018e+01	-6.732805e+02
1.400000e-07	-7.564654e-06	-1.025444e-08	-5.483987e+01	-6.721738e+02
1.500000e-07	-7.525272e-06	-1.018822e-08	-5.455437e+01	-6.709847e+02
1.600000e-07	-7.483724e-06	-1.018718e-08	-5.425318e+01	-6.697018e+02
1.700000e-07	-7.439545e-06	-1.024403e-08	-5.393290e+01	-6.683145e+02
1.800000e-07	-7.392667e-06	-1.013610e-08	-5.359305e+01	-6.668137e+02
1.900000e-07	-7.343054e-06	-1.012750e-08	-5.323339e+01	-6.651914e+02
2.000000e-07	-7.290398e-06	-1.013779e-08	-5.285166e+01	-6.634410e+02
2.100000e-07	-7.234981e-06	-1.003793e-08	-5.244992e+01	-6.615574e+02
2.200000e-07	-7.176975e-06	-1.003008e-08	-5.202940e+01	-6.595366e+02
2.300000e-07	-7.116315e-06	-1.000811e-08	-5.158964e+01	-6.573761e+02
2.400000e-07	-7.053127e-06	-1.000388e-08	-5.113157e+01	-6.550745e+02
2.500000e-07	-6.987205e-06	-9.943179e-09	-5.065367e+01	-6.526322e+02
2.600000e-07	-6.918614e-06	-9.886384e-09	-5.015641e+01	-6.500510e+02
2.700000e-07	-6.847516e-06	-9.870729e-09	-4.964099e+01	-6.473345e+02
2.800000e-07	-6.773645e-06	-9.815600e-09	-4.910546e+01	-6.444878e+02
2.900000e-07	-6.697014e-06	-9.762047e-09	-4.854993e+01	-6.415172e+02
3.000000e-07	-6.617650e-06	-9.723134e-09	-4.797458e+01	-6.384292e+02
3.100000e-07	-6.535649e-06	-9.701384e-09	-4.738012e+01	-6.352304e+02
3.200000e-07	-6.451440e-06	-9.635439e-09	-4.676964e+01	-6.319258e+02
3.300000e-07	-6.365102e-06	-9.562199e-09	-4.614374e+01	-6.285187e+02
3.400000e-07	-6.276479e-06	-9.529967e-09	-4.550126e+01	-6.250090e+02
3.500000e-07	-6.185500e-06	-9.467838e-09	-4.484171e+01	-6.213936e+02
3.600000e-07	-6.092313e-06	-9.404435e-09	-4.416616e+01	-6.176660e+02
3.700000e-07	-5.997008e-06	-9.354190e-09	-4.347524e+01	-6.138163e+02
3.800000e-07	-5.899446e-06	-9.302991e-09	-4.276797e+01	-6.098331e+02
3.900000e-07	-5.799663e-06	-9.229927e-09	-4.204459e+01	-6.057035e+02
4.000000e-07	-5.697896e-06	-9.150122e-09	-4.130683e+01	-6.014154e+02
4.100000e-07	-5.594189e-06	-9.086724e-09	-4.055501e+01	-5.969584e+02
4.200000e-07	-5.488437e-06	-9.015843e-09	-3.978837e+01	-5.923251e+02
4.300000e-07	-5.380653e-06	-8.946288e-09	-3.900698e+01	-5.875119e+02
4.400000e-07	-5.271029e-06	-8.879472e-09	-3.821227e+01	-5.825187e+02
4.500000e-07	-5.159631e-06	-8.811444e-09	-3.740469e+01	-5.773491e+02
4.600000e-07	-5.046233e-06	-8.722927e-09	-3.658261e+01	-5.720088e+02
4.700000e-07	-4.930726e-06	-8.629126e-09	-3.574524e+01	-5.665041e+02
4.800000e-07	-4.813332e-06	-8.546539e-09	-3.489419e+01	-5.608405e+02
4.900000e-07	-4.694164e-06	-8.460791e-09	-3.403029e+01	-5.550207e+02
5.000000e-07	-4.573281e-06	-8.369267e-09	-3.315395e+01	-5.490434e+02
5.100000e-07	-4.450733e-06	-8.274202e-09	-3.226554e+01	-5.429021e+02
5.200000e-07	-4.326569e-06	-8.175255e-09	-3.136542e+01	-5.365857e+02
5.300000e-07	-4.200887e-06	-8.067577e-09	-3.045428e+01	-5.300785e+02
5.400000e-07	-4.073756e-06	-7.958105e-09	-2.953265e+01	-5.233619e+02
5.500000e-07	-3.945191e-06	-7.851124e-09	-2.860062e+01	-5.164162e+02
5.600000e-07	-3.815046e-06	-7.743780e-09	-2.765713e+01	-5.092226e+02
5.700000e-07	-3.683292e-06	-7.633393e-09	-2.670198e+01	-5.017652e+02
5.800000e-07	-3.550138e-06	-7.517064e-09	-2.573669e+01	-4.940328e+02
5.900000e-07	-3.415751e-06	-7.395026e-09	-2.476245e+01	-4.860187e+02
6.000000e-07	-3.280103e-06	-7.265501e-09	-2.377907e+01	-4.777218e+02
6.100000e-07	-3.143232e-06	-7.134121e-09	-2.278683e+01	-4.691444e+02
6.200000e-07	-3.005053e-06	-7.001249e-09	-2.178510e+01	-4.602911e+02
6.300000e-07	-2.865482e-06	-6.864158e-09	-2.077328e+01	-4.511658e+02
6.400000e-07	-2.724690e-06	-6.721276e-09	-1.975261e+01	-4.417698e+02
6.500000e-07	-2.582795e-06	-6.573576e-09	-1.872394e+01	-4.320988e+02
6.600000e-07	-2.439920e-06	-6.418984e-09	-1.768817e+01	-4.221418e+02
6.700000e-07	-2.296078e-06	-6.254620e-09	-1.664539e+01	-4.118804e+02
6.800000e-07	-2.151301e-06	-6.089458e-09	-1.559583e+01	-4.012893e+02
6.900000e-07	-2.005771e-06	-5.923435e-09	-1.454081e+01	-3.903382e+02
7.000000e-07	-1.859668e-06	-5.751870e-09	-1.348164e+01	-3.789944e+02
7.100000e-07	-1.713016e-06	-5.573120e-09	-1.241849e+01	-3.672259e+02
7.200000e-07	-1.565842e-06	-5.389388e-09	-1.135156e+01	-3.550049e+02
7.300000e-07	-1.418213e-06	-5.198361e-09	-1.028132e+01	-3.423101e+02
7.400000e-07	-1.270138e-06	-4.996760e-09	-9.207849e+00	-3.291287e+02
7.500000e-07	-1.121713e-06	-4.787514e-09	-8.131844e+00	-3.154558e+02
7.600000e-07	-9.729743e-07	-4.573155e-09	-7.053567e+00	-3.012935e+02
7.700000e-07	-8.239192e-07	-4.353515e-09	-5.972993e+00	-2.866469e+02
7.800000e-07	-6.746225e-07	-4.123915e-09	-4.890669e+00	-2.715199e+02
7.900000e-07	-5.251601e-07	-3.886582e-09	-3.807142e+00	-2.559095e+02
8.000000e-07	-3.755567e-07	-3.643549e-09	-2.722594e+00	-2.398009e+02
8.100000e-07	-2.258236e-07	-3.390555e-09	-1.637105e+00	-2.231627e+02
8.200000e-07	-7.598566e-08	-3.124100e-09	-5.508572e-01	-2.059446e+02
8.300000e-07	7.395110e-08	-2.849800e-09	5.361076e-01	-1.880773e+02
8.400000e-07	2.238771e-07	-2.566838e-09	1.622994e+00	-1.694756e+02
8.500000e-07	3.737097e-07	-2.267360e-09	2.709204e+00	-1.500440e+02
8.600000e-07	5.234712e-07	-1.951555e-09	3.794898e+00	-1.296857e+02
8.700000e-07	6.730979e-07	-1.623841e-09	4.879616e+00	-1.083129e+02
8.800000e-07	8.225212e-07	-1.284812e-09	5.962858e+00	-8.585926e+01
8.900000e-07	9.717141e-07	-9.281772e-10	7.044431e+00	-6.229076e+01
9.000000e-07	1.120649e-06	-5.547919e-10	8.124134e+00	-3.761611e+01
9.100000e-07	1.269299e-06	-1.672810e-10	9.201766e+00	-1.189393e+01
9.200000e-07	1.417582e-06	2.353292e-10	1.027674e+01	1.476372e+01
9.300000e-07	1.565421e-06	6.534592e-10	1.134850e+01	4.219224e+01
9.400000e-07	1.712782e-06	1.082216e-09	1.241680e+01	7.018000e+01
9.500000e-07	1.859507e-06	1.516781e-09	1.348048e+01	9.847802e+01
9.600000e-07	2.005471e-06	1.953536e-09	1.453864e+01	1.268133e+02
9.700000e-07	2.150696e-06	2.384691e-09	1.559145e+01	1.549043e+02
9.800000e-07	2.295130e-06	2.805489e-09	1.663852e+01	1.824774e+02
9.900000e-07	2.438604e-06	3.212577e-09	1.767863e+01	2.092828e+02
1.000000e-06	2.581050e-06	3.604102e-09	1.871130e+01	2.351080e+02
1.010000e-06	2.722557e-06	3.974923e-09	1.973714e+01	2.597880e+02
1.020000e-06	2.863070e-06	4.325707e-09	2.075580e+01	2.832116e+02
1.030000e-06	3.002386e-06	4.657655e-09	2.176577e+01	3.053225e+02
1.040000e-06	3.140359e-06	4.972775e-09	2.276600e+01	3.261166e+02
1.050000e-06	3.277028e-06	5.268049e-09	2.375678e+01	3.456346e+02
1.060000e-06	3.412450e-06	5.544467e-09	2.473852e+01	3.639525e+02
1.070000e-06	3.546580e-06	5.808066e-09	2.571090e+01	3.811694e+02
1.080000e-06	3.679498e-06	6.058945e-09	2.667448e+01	3.973956e+02
1.090000e-06	3.811228e-06	6.296150e-09	2.762945e+01	4.127414e+02
1.100000e-06	3.941510e-06	6.518472e-09	2.857393e+01	4.273076e+02
1.110000e-06	4.070294e-06	6.728727e-09	2.950755e+01	4.411790e+02
1.120000e-06	4.197649e-06	6.929167e-09	3.043081e+01	4.544205e+02
1.130000e-06	4.323539e-06	7.119733e-09	3.134345e+01	4.670770e+02
1.140000e-06	4.448091e-06	7.301992e-09	3.224638e+01	4.791751e+02
1.150000e-06	4.571171e-06	7.477032e-09	3.313865e+01	4.907274e+02
1.160000e-06	4.692522e-06	7.642248e-09	3.401838e+01	5.017381e+02
1.170000e-06	4.812161e-06	7.796573e-09	3.488571e+01	5.122079e+02
1.180000e-06	4.930124e-06	7.943692e-09	3.574088e+01	5.221396e+02
1.190000e-06	5.046245e-06	8.087429e-09	3.658270e+01	5.315417e+02
1.200000e-06	5.160304e-06	8.224622e-09	3.740957e+01	5.404305e+02
1.210000e-06	5.272330e-06	8.353671e-09	3.822170e+01	5.488309e+02
1.220000e-06	5.382553e-06	8.475269e-09	3.902076e+01	5.567750e+02
1.230000e-06	5.491009e-06	8.594993e-09	3.980701e+01	5.642998e+02
1.240000e-06	5.597447e-06	8.711695e-09	4.057863e+01	5.714446e+02
1.250000e-06	5.701780e-06	8.819300e-09	4.133499e+01	5.782472e+02
1.260000e-06	5.804065e-06	8.916135e-09	4.207651e+01	5.847416e+02
1.270000e-06	5.904256e-06	9.005633e-09	4.280284e+01	5.909556e+02
1.280000e-06	6.002135e-06	9.092274e-09	4.351241e+01	5.969101e+02
1.290000e-06	6.097666e-06	9.176150e-09	4.420496e+01	6.026188e+02
1.300000e-06	6.191098e-06	9.256600e-09	4.488230e+01	6.080898e+02
1.310000e-06	6.282418e-06	9.332555e-09	4.554432e+01	6.133267e+02
1.320000e-06	6.371382e-06	9.405508e-09	4.618927e+01	6.183314e+02
1.330000e-06	6.457998e-06	9.478853e-09	4.681719e+01	6.231055e+02
1.340000e-06	6.542457e-06	9.551107e-09	4.742947e+01	6.276521e+02
1.350000e-06	6.624671e-06	9.619653e-09	4.802548e+01	6.319770e+02
1.360000e-06	6.704378e-06	9.682765e-09	4.860331e+01	6.360886e+02
1.370000e-06	6.781550e-06	9.741787e-09	4.916277e+01	6.399974e+02
1.380000e-06	6.856145e-06	9.798201e-09	4.970355e+01	6.437148e+02
1.390000e-06	6.928167e-06	9.851396e-09	5.022567e+01	6.472519e+02
1.400000e-06	6.997787e-06	9.901963e-09	5.073038e+01	6.506177e+02
1.410000e-06	7.064962e-06	9.949984e-09	5.121737e+01	6.538181e+02
1.420000e-06	7.129564e-06	9.996637e-09	5.168569e+01	6.568549e+02
1.430000e-06	7.191656e-06	1.004094e-08	5.213583e+01	6.597265e+02
1.440000e-06	7.251324e-06	1.008124e-08	5.256839e+01	6.624279e+02
1.450000e-06	7.308443e-06	1.011891e-08	5.298248e+01	6.649524e+02
1.460000e-06	7.362960e-06	1.015312e-08	5.337769e+01	6.672932e+02
1.470000e-06	7.414608e-06	1.018446e-08	5.375212e+01	6.694452e+02
1.480000e-06	7.463192e-06	1.021275e-08	5.410433e+01	6.714066e+02
1.490000e-06	7.509049e-06	1.023906e-08	5.443676e+01	6.731802e+02
1.500000e-06	7.552301e-06	1.026344e-08	5.475032e+01	6.747733e+02
1.510000e-06	7.592762e-06	1.028605e-08	5.504365e+01	6.761983e+02
1.520000e-06	7.630542e-06	1.030721e-08	5.531753e+01	6.774708e+02
1.530000e-06	7.665747e-06	1.032516e-08	5.557275e+01	6.786088e+02
1.540000e-06	7.698167e-06	1.034320e-08	5.580778e+01	6.796300e+02
1.550000e-06	7.727853e-06	1.035992e-08	5.602298e+01	6.805505e+02
1.560000e-06	7.754805e-06	1.037312e-08	5.621837e+01	6.813826e+02
1.570000e-06	7.778839e-06	1.038384e-08	5.639261e+01	6.821337e+02
1.580000e-06	7.800106e-06	1.039324e-08	5.654678e+01	6.828059e+02
1.590000e-06	7.818736e-06	1.040238e-08	5.668184e+01	6.833959e+02
1.600000e-06	7.834481e-06	1.041020e-08	5.679599e+01	6.838962e+02
1.610000e-06	7.847180e-06	1.041634e-08	5.688804e+01	6.842967e+02
1.620000e-06	7.856784e-06	1.042164e-08	5.695767e+01	6.845863e+02
1.630000e-06	7.863409e-06	1.042605e-08	5.700569e+01	6.847551e+02
1.640000e-06	7.867290e-06	1.042896e-08	5.703383e+01	6.847959e+02
1.650000e-06	7.868348e-06	1.043141e-08	5.704150e+01	6.847059e+02
1.660000e-06	7.866680e-06	1.042663e-08	5.702941e+01	6.844869e+02
1.670000e-06	7.862530e-06	1.041908e-08	5.699932e+01	6.841457e+02
1.680000e-06	7.855742e-06	1.041331e-08	5.695012e+01	6.836932e+02
1.690000e-06	7.846277e-06	1.040592e-08	5.688150e+01	6.831433e+02
1.700000e-06	7.834081e-06	1.039926e-08	5.679308e+01	6.825111e+02
1.710000e-06	7.819079e-06	1.039548e-08	5.668433e+01	6.818116e+02
1.720000e-06	7.801632e-06	1.039249e-08	5.655784e+01	6.810576e+02
1.730000e-06	7.782004e-06	1.037277e-08	5.641555e+01	6.802588e+02
1.740000e-06	7.759788e-06	1.027714e-08	5.625449e+01	6.794209e+02
1.750000e-06	7.734343e-06	1.025415e-08	5.607003e+01	6.785452e+02
1.760000e-06	7.705329e-06	1.028684e-08	5.585969e+01	6.776286e+02
1.770000e-06	7.673126e-06	1.027662e-08	5.562624e+01	6.766646e+02
1.780000e-06	7.638510e-06	1.027260e-08	5.537529e+01	6.756439e+02
1.790000e-06	7.601607e-06	1.033101e-08	5.510776e+01	6.745554e+02
1.800000e-06	7.562512e-06	1.029469e-08	5.482435e+01	6.733876e+02
1.810000e-06	7.521381e-06	1.018507e-08	5.452617e+01	6.721287e+02
1.820000e-06	7.477857e-06	1.026781e-08	5.421064e+01	6.707680e+02
1.830000e-06	7.431722e-06	1.020229e-08	5.387619e+01	6.692959e+02
1.840000e-06	7.382880e-06	1.020757e-08	5.352210e+01	6.677041e+02
1.850000e-06	7.331105e-06	1.023344e-08	5.314677e+01	6.659858e+02
1.860000e-06	7.276449e-06	1.012888e-08	5.275054e+01	6.641355e+02
1.870000e-06	7.219042e-06	1.015712e-08	5.233437e+01	6.621488e+02
1.880000e-06	7.159131e-06	1.003300e-08	5.190004e+01	6.600229e+02
1.890000e-06	7.096582e-06	1.002315e-08	5.144659e+01	6.577562e+02
1.900000e-06	7.031170e-06	1.003871e-08	5.097239e+01	6.553484e+02
1.910000e-06	6.963145e-06	9.935576e-09	5.047924e+01	6.528012e+02
1.920000e-06	6.892346e-06	9.950865e-09	4.996598e+01	6.501177e+02
1.930000e-06	6.818869e-06	9.888275e-09	4.943331e+01	6.473025e+02
1.940000e-06	6.742777e-06	9.848080e-09	4.888168e+01	6.443618e+02
1.950000e-06	6.663917e-06	9.763606e-09	4.830999e+01	6.413020e+02
1.960000e-06	6.582594e-06	9.724028e-09	4.772044e+01	6.381299e+02
1.970000e-06	6.498941e-06	9.721469e-09	4.711400e+01	6.348509e+02
1.980000e-06	6.412818e-06	9.621373e-09	4.648966e+01	6.314688e+02
1.990000e-06	6.324205e-06	9.606594e-09	4.584725e+01	6.279845e+02
2.000000e-06	6.233482e-06	9.545460e-09	4.518956e+01	6.243956e+02
2.010000e-06	6.140705e-06	9.479069e-09	4.451698e+01	6.206963e+02
2.020000e-06	6.045612e-06	9.400148e-09	4.382760e+01	6.168777e+02
2.030000e-06	5.948254e-06	9.351655e-09	4.312180e+01	6.129286e+02
2.040000e-06	5.848867e-06	9.313547e-09	4.240130e+01	6.088363e+02
2.050000e-06	5.747490e-06	9.234865e-09	4.166636e+01	6.045884e+02
2.060000e-06	5.643992e-06	9.170397e-09	4.091606e+01	6.001740e+02
2.070000e-06	5.538547e-06	9.092178e-09	4.015164e+01	5.955848e+02
2.080000e-06	5.431301e-06	9.015256e-09	3.937416e+01	5.908162e+02
2.090000e-06	5.322167e-06	8.918931e-09	3.858299e+01	5.858674e+02
2.100000e-06	5.211000e-06	8.859717e-09	3.777708e+01	5.807409e+02
2.110000e-06	5.097917e-06	8.793783e-09	3.695729e+01	5.754422e+02
2.120000e-06	4.982947e-06	8.710551e-09	3.612382e+01	5.699776e+02
2.130000e-06	4.865947e-06	8.618790e-09	3.527563e+01	5.643528e+02
2.140000e-06	4.746973e-06	8.530512e-09	3.441313e+01	5.585716e+02
2.150000e-06	4.626156e-06	8.437612e-09	3.353727e+01	5.526336e+02
2.160000e-06	4.503729e-06	8.335942e-09	3.264973e+01	5.465337e+02
2.170000e-06	4.379711e-06	8.248590e-09	3.175066e+01	5.402619e+02
2.180000e-06	4.254087e-06	8.159694e-09	3.083996e+01	5.338036e+02
2.190000e-06	4.126825e-06	8.064318e-09	2.991737e+01	5.271407e+02
2.200000e-06	3.998059e-06	7.953845e-09	2.898388e+01	5.202536e+02
2.210000e-06	3.867908e-06	7.843722e-09	2.804036e+01	5.131231e+02
2.220000e-06	3.736329e-06	7.725312e-09	2.708647e+01	5.057325e+02
2.230000e-06	3.603303e-06	7.609018e-09	2.612210e+01	4.980692e+02
2.240000e-06	3.468848e-06	7.491913e-09	2.514737e+01	4.901254e+02
2.250000e-06	3.333125e-06	7.373215e-09	2.416345e+01	4.818986e+02
2.260000e-06	3.196288e-06	7.245489e-09	2.317145e+01	4.733904e+02
2.270000e-06	3.058346e-06	7.110332e-09	2.217145e+01	4.646052e+02
2.280000e-06	2.919175e-06	6.970176e-09	2.116253e+01	4.555472e+02
2.290000e-06	2.778742e-06	6.824152e-09	2.014446e+01	4.462186e+02
2.300000e-06	2.637165e-06	6.678914e-09	1.911810e+01	4.366166e+02
2.310000e-06	2.494557e-06	6.533264e-09	1.808426e+01	4.267320e+02
2.320000e-06	2.351009e-06	6.384336e-09	1.704362e+01	4.165484e+02
2.330000e-06	2.206665e-06	6.224221e-09	1.599719e+01	4.060419e+02
2.340000e-06	2.061628e-06	6.057156e-09	1.494575e+01	3.951834e+02
2.350000e-06	1.915946e-06	5.881059e-09	1.388963e+01	3.839404e+02
2.360000e-06	1.769688e-06	5.697769e-09	1.282933e+01	3.722804e+02
2.370000e-06	1.622938e-06	5.510391e-09	1.176547e+01	3.601744e+02
2.380000e-06	1.475687e-06	5.319443e-09	1.069798e+01	3.475991e+02
2.390000e-06	1.327936e-06	5.124134e-09	9.626855e+00	3.345396e+02
2.400000e-06	1.179713e-06	4.918672e-09	8.552316e+00	3.209891e+02
2.410000e-06	1.031067e-06	4.703489e-09	7.474705e+00	3.069483e+02
2.420000e-06	8.821106e-07	4.482384e-09	6.394851e+00	2.924218e+02
2.430000e-06	7.329035e-07	4.254632e-09	5.313176e+00	2.774143e+02
2.440000e-06	5.834291e-07	4.020691e-09	4.229563e+00	2.619252e+02
2.450000e-06	4.337486e-07	3.778571e-09	3.144456e+00	2.459429e+02
2.460000e-06	2.838967e-07	3.526744e-09	2.058106e+00	2.294406e+02
2.470000e-06	1.339138e-07	3.263119e-09	9.708063e-01	2.123727e+02
2.480000e-06	-1.614714e-08	2.986076e-09	-1.170585e-01	1.946748e+02
2.490000e-06	-1.662537e-07	2.700722e-09	-1.205254e+00	1.762649e+02
2.500000e-06	-3.163021e-07	2.404403e-09	-2.293029e+00	1.570495e+02
2.510000e-06	-4.662144e-07	2.095488e-09	-3.379816e+00	1.369311e+02
2.520000e-06	-6.159689e-07	1.774962e-09	-4.465460e+00	1.158187e+02
2.530000e-06	-7.655697e-07	1.440881e-09	-5.549989e+00	9.363949e+01
2.540000e-06	-9.149224e-07	1.092214e-09	-6.632720e+00	7.035023e+01
2.550000e-06	-1.063972e-06	7.275546e-10	-7.713253e+00	4.594819e+01
2.560000e-06	-1.212693e-06	3.460460e-10	-8.791402e+00	2.047903e+01
2.570000e-06	-1.360945e-06	-5.499522e-11	-9.866155e+00	-5.958657e+00
2.580000e-06	-1.508675e-06	-4.731182e-10	-1.093712e+01	-3.321308e+01
2.590000e-06	-1.655874e-06	-9.038654e-10	-1.200424e+01	-6.108358e+01
2.600000e-06	-1.802434e-06	-1.342469e-09	-1.306672e+01	-8.932941e+01
2.610000e-06	-1.948324e-06	-1.783786e-09	-1.412435e+01	-1.176822e+02
2.620000e-06	-2.093542e-06	-2.223125e-09	-1.517711e+01	-1.458609e+02
2.630000e-06	-2.238076e-06	-2.651568e-09	-1.622491e+01	-1.735886e+02
2.640000e-06	-2.381814e-06	-3.062300e-09	-1.726693e+01	-2.006080e+02
2.650000e-06	-2.524553e-06	-3.455567e-09	-1.830172e+01	-2.266962e+02
2.660000e-06	-2.666169e-06	-3.832049e-09	-1.932836e+01	-2.516756e+02
2.670000e-06	-2.806613e-06	-4.192492e-09	-2.034651e+01	-2.754211e+02
2.680000e-06	-2.945862e-06	-4.534124e-09	-2.135600e+01	-2.978630e+02
2.690000e-06	-3.083919e-06	-4.855459e-09	-2.235684e+01	-3.189845e+02
2.700000e-06	-3.220902e-06	-5.158672e-09	-2.334989e+01	-3.388161e+02
2.710000e-06	-3.356836e-06	-5.445627e-09	-2.433534e+01	-3.574259e+02
2.720000e-06	-3.491511e-06	-5.715910e-09	-2.531167e+01	-3.749084e+02
2.730000e-06	-3.624780e-06	-5.969238e-09	-2.627781e+01	-3.913722e+02
2.740000e-06	-3.756743e-06	-6.209501e-09	-2.723447e+01	-4.069286e+02
2.750000e-06	-3.887351e-06	-6.437349e-09	-2.818131e+01	-4.216816e+02
2.760000e-06	-4.016586e-06	-6.655289e-09	-2.911819e+01	-4.357202e+02
2.770000e-06	-4.144597e-06	-6.865122e-09	-3.004621e+01	-4.491147e+02
2.780000e-06	-4.271174e-06	-7.065508e-09	-3.096383e+01	-4.619148e+02
2.790000e-06	-4.396158e-06	-7.254579e-09	-3.186990e+01	-4.741513e+02
2.800000e-06	-4.519648e-06	-7.429278e-09	-3.276514e+01	-4.858399e+02
2.810000e-06	-4.641560e-06	-7.592922e-09	-3.364894e+01	-4.969863e+02
2.820000e-06	-4.761812e-06	-7.749402e-09	-3.452070e+01	-5.075917e+02
2.830000e-06	-4.880178e-06	-7.900848e-09	-3.537880e+01	-5.176579e+02
2.840000e-06	-4.996547e-06	-8.046849e-09	-3.622241e+01	-5.271917e+02
2.850000e-06	-5.110984e-06	-8.186471e-09	-3.705202e+01	-5.362073e+02
2.860000e-06	-5.223335e-06	-8.318458e-09	-3.786651e+01	-5.447275e+02
2.870000e-06	-5.333613e-06	-8.443273e-09	-3.866597e+01	-5.527828e+02
2.880000e-06	-5.442017e-06	-8.561818e-09	-3.945184e+01	-5.604092e+02
2.890000e-06	-5.548602e-06	-8.673695e-09	-4.022453e+01	-5.676458e+02
2.900000e-06	-5.653258e-06	-8.779670e-09	-4.098323e+01	-5.745311e+02
2.910000e-06	-5.755731e-06	-8.880467e-09	-4.172611e+01	-5.811001e+02
2.920000e-06	-5.855945e-06	-8.977325e-09	-4.245261e+01	-5.873825e+02
2.930000e-06	-5.954149e-06	-9.068079e-09	-4.316454e+01	-5.934007e+02
2.940000e-06	-6.050381e-06	-9.154534e-09	-4.386217e+01	-5.991704e+02
