# Temperatura_=_57.17
# Concentracion g/m^3_=_10000.0
# C_Vs_to_Am_M_A/Vsm_=_65563218390.804596
# pendiente_HvsI_1/m_=_3716.3
# ordenada_HvsI_A/m_=_1297.0
# frecuencia_Hz_=_302617.8867266541

Tiempo_(s)	Campo_(V.s)	Magnetizacion_(V.s)	Campo_(kA/m)	Magnetizacion_(A/m)
0.000000e+00	-7.946203e-06	-1.081975e-08	-5.683304e+01	-7.097535e+02
1.000000e-08	-7.944030e-06	-1.082382e-08	-5.681750e+01	-7.094786e+02
2.000000e-08	-7.939112e-06	-1.081782e-08	-5.678232e+01	-7.090934e+02
3.000000e-08	-7.931714e-06	-1.080909e-08	-5.672941e+01	-7.086088e+02
4.000000e-08	-7.921575e-06	-1.080189e-08	-5.665689e+01	-7.080357e+02
5.000000e-08	-7.908431e-06	-1.079187e-08	-5.656289e+01	-7.073837e+02
6.000000e-08	-7.892281e-06	-1.077905e-08	-5.644738e+01	-7.066597e+02
7.000000e-08	-7.873590e-06	-1.076809e-08	-5.631370e+01	-7.058679e+02
8.000000e-08	-7.852725e-06	-1.075187e-08	-5.616446e+01	-7.050094e+02
9.000000e-08	-7.829289e-06	-1.079161e-08	-5.599684e+01	-7.040826e+02
1.000000e-07	-7.802688e-06	-1.081853e-08	-5.580659e+01	-7.030840e+02
1.100000e-07	-7.772895e-06	-1.075719e-08	-5.559350e+01	-7.020090e+02
1.200000e-07	-7.740288e-06	-1.070576e-08	-5.536029e+01	-7.008533e+02
1.300000e-07	-7.704936e-06	-1.068214e-08	-5.510744e+01	-6.996127e+02
1.400000e-07	-7.667064e-06	-1.065561e-08	-5.483657e+01	-6.982842e+02
1.500000e-07	-7.627042e-06	-1.058882e-08	-5.455033e+01	-6.968656e+02
1.600000e-07	-7.584837e-06	-1.055838e-08	-5.424847e+01	-6.953552e+02
1.700000e-07	-7.540035e-06	-1.061439e-08	-5.392804e+01	-6.937512e+02
1.800000e-07	-7.492513e-06	-1.051101e-08	-5.358814e+01	-6.920507e+02
1.900000e-07	-7.442147e-06	-1.050021e-08	-5.322792e+01	-6.902492e+02
2.000000e-07	-7.388786e-06	-1.053972e-08	-5.284626e+01	-6.883402e+02
2.100000e-07	-7.332630e-06	-1.043090e-08	-5.244462e+01	-6.863151e+02
2.200000e-07	-7.273799e-06	-1.041262e-08	-5.202385e+01	-6.841638e+02
2.300000e-07	-7.212369e-06	-1.038565e-08	-5.158450e+01	-6.818756e+02
2.400000e-07	-7.148295e-06	-1.037075e-08	-5.112622e+01	-6.794402e+02
2.500000e-07	-7.081487e-06	-1.030781e-08	-5.064840e+01	-6.768495e+02
2.600000e-07	-7.012008e-06	-1.026251e-08	-5.015147e+01	-6.740982e+02
2.700000e-07	-6.939788e-06	-1.023646e-08	-4.963493e+01	-6.711851e+02
2.800000e-07	-6.864768e-06	-1.016503e-08	-4.909837e+01	-6.681134e+02
2.900000e-07	-6.786917e-06	-1.011759e-08	-4.854156e+01	-6.648902e+02
3.000000e-07	-6.706305e-06	-1.007136e-08	-4.796501e+01	-6.615255e+02
3.100000e-07	-6.623315e-06	-1.004554e-08	-4.737145e+01	-6.580311e+02
3.200000e-07	-6.538146e-06	-9.981083e-09	-4.676230e+01	-6.544183e+02
3.300000e-07	-6.450681e-06	-9.904062e-09	-4.613673e+01	-6.506962e+02
3.400000e-07	-6.360846e-06	-9.865664e-09	-4.549421e+01	-6.468701e+02
3.500000e-07	-6.268628e-06	-9.807985e-09	-4.483464e+01	-6.429403e+02
3.600000e-07	-6.174180e-06	-9.736871e-09	-4.415913e+01	-6.389018e+02
3.700000e-07	-6.077509e-06	-9.670813e-09	-4.346771e+01	-6.347444e+02
3.800000e-07	-5.978558e-06	-9.617965e-09	-4.276000e+01	-6.304542e+02
3.900000e-07	-5.877489e-06	-9.546578e-09	-4.203713e+01	-6.260151e+02
4.000000e-07	-5.774353e-06	-9.466172e-09	-4.129948e+01	-6.214114e+02
4.100000e-07	-5.669113e-06	-9.398525e-09	-4.054678e+01	-6.166292e+02
4.200000e-07	-5.561878e-06	-9.323766e-09	-3.977981e+01	-6.116590e+02
4.300000e-07	-5.452752e-06	-9.243662e-09	-3.899932e+01	-6.064961e+02
4.400000e-07	-5.341735e-06	-9.162043e-09	-3.820530e+01	-6.011414e+02
4.500000e-07	-5.228686e-06	-9.086788e-09	-3.739674e+01	-5.956005e+02
4.600000e-07	-5.113448e-06	-9.000793e-09	-3.657253e+01	-5.898821e+02
4.700000e-07	-4.996209e-06	-8.903512e-09	-3.573401e+01	-5.839961e+02
4.800000e-07	-4.877228e-06	-8.808140e-09	-3.488303e+01	-5.779510e+02
4.900000e-07	-4.756462e-06	-8.717688e-09	-3.401929e+01	-5.717513e+02
5.000000e-07	-4.633939e-06	-8.625690e-09	-3.314298e+01	-5.653960e+02
5.100000e-07	-4.509773e-06	-8.525263e-09	-3.225492e+01	-5.588776e+02
5.200000e-07	-4.383996e-06	-8.419878e-09	-3.135533e+01	-5.521818e+02
5.300000e-07	-4.256631e-06	-8.309708e-09	-3.044439e+01	-5.452889e+02
5.400000e-07	-4.127631e-06	-8.196591e-09	-2.952175e+01	-5.381754e+02
5.500000e-07	-3.997105e-06	-8.081530e-09	-2.858819e+01	-5.308172e+02
5.600000e-07	-3.865100e-06	-7.965721e-09	-2.764407e+01	-5.231921e+02
5.700000e-07	-3.731643e-06	-7.846996e-09	-2.668955e+01	-5.152825e+02
5.800000e-07	-3.596776e-06	-7.719656e-09	-2.572495e+01	-5.070769e+02
5.900000e-07	-3.460501e-06	-7.588915e-09	-2.475028e+01	-4.985717e+02
6.000000e-07	-3.322768e-06	-7.455980e-09	-2.376518e+01	-4.897695e+02
6.100000e-07	-3.183699e-06	-7.321071e-09	-2.277053e+01	-4.806785e+02
6.200000e-07	-3.043371e-06	-7.179929e-09	-2.176688e+01	-4.713092e+02
6.300000e-07	-2.901684e-06	-7.033689e-09	-2.075350e+01	-4.616711e+02
6.400000e-07	-2.758696e-06	-6.884900e-09	-1.973082e+01	-4.517696e+02
6.500000e-07	-2.614641e-06	-6.730147e-09	-1.870050e+01	-4.416028e+02
6.600000e-07	-2.469791e-06	-6.567934e-09	-1.766450e+01	-4.311593e+02
6.700000e-07	-2.324135e-06	-6.397354e-09	-1.662274e+01	-4.204182e+02
6.800000e-07	-2.177638e-06	-6.224451e-09	-1.557496e+01	-4.093497e+02
6.900000e-07	-2.030472e-06	-6.046817e-09	-1.452239e+01	-3.979174e+02
7.000000e-07	-1.882696e-06	-5.867090e-09	-1.346547e+01	-3.860820e+02
7.100000e-07	-1.734282e-06	-5.682293e-09	-1.240398e+01	-3.738055e+02
7.200000e-07	-1.585306e-06	-5.491805e-09	-1.133847e+01	-3.610553e+02
7.300000e-07	-1.435910e-06	-5.293038e-09	-1.026995e+01	-3.478071e+02
7.400000e-07	-1.286138e-06	-5.081552e-09	-9.198747e+00	-3.340470e+02
7.500000e-07	-1.135808e-06	-4.864830e-09	-8.123553e+00	-3.197709e+02
7.600000e-07	-9.849868e-07	-4.641853e-09	-7.044848e+00	-3.049828e+02
7.700000e-07	-8.337852e-07	-4.411235e-09	-5.963420e+00	-2.896898e+02
7.800000e-07	-6.822834e-07	-4.170894e-09	-4.879845e+00	-2.738970e+02
7.900000e-07	-5.305986e-07	-3.922998e-09	-3.794961e+00	-2.576004e+02
8.000000e-07	-3.787504e-07	-3.668322e-09	-2.708909e+00	-2.407817e+02
8.100000e-07	-2.267926e-07	-3.404454e-09	-1.622072e+00	-2.234028e+02
8.200000e-07	-7.474402e-08	-3.127962e-09	-5.345861e-01	-2.054037e+02
8.300000e-07	7.738030e-08	-2.839859e-09	5.534414e-01	-1.867034e+02
8.400000e-07	2.295141e-07	-2.538871e-09	1.641537e+00	-1.672038e+02
8.500000e-07	3.816144e-07	-2.220316e-09	2.729392e+00	-1.467975e+02
8.600000e-07	5.336561e-07	-1.888409e-09	3.816829e+00	-1.253786e+02
8.700000e-07	6.855644e-07	-1.547601e-09	4.903312e+00	-1.028552e+02
8.800000e-07	8.372791e-07	-1.192627e-09	5.988409e+00	-7.916251e+01
8.900000e-07	9.887318e-07	-8.172018e-10	7.071633e+00	-5.427597e+01
9.000000e-07	1.139788e-06	-4.248772e-10	8.152022e+00	-2.822117e+01
9.100000e-07	1.290327e-06	-1.867186e-11	9.228708e+00	-1.080708e+00
9.200000e-07	1.440332e-06	4.044735e-10	1.030158e+01	2.700364e+01
9.300000e-07	1.589823e-06	8.465874e-10	1.137077e+01	5.583398e+01
9.400000e-07	1.738821e-06	1.300279e-09	1.243644e+01	8.516431e+01
9.500000e-07	1.887230e-06	1.758068e-09	1.349790e+01	1.147132e+02
9.600000e-07	2.034972e-06	2.213854e-09	1.455458e+01	1.441796e+02
9.700000e-07	2.182073e-06	2.661219e-09	1.560668e+01	1.732609e+02
9.800000e-07	2.328439e-06	3.096070e-09	1.665352e+01	2.016711e+02
9.900000e-07	2.473910e-06	3.511167e-09	1.769396e+01	2.291568e+02
1.000000e-06	2.618444e-06	3.906486e-09	1.872770e+01	2.555116e+02
1.010000e-06	2.761947e-06	4.279734e-09	1.975407e+01	2.805845e+02
1.020000e-06	2.904293e-06	4.634699e-09	2.077216e+01	3.042844e+02
1.030000e-06	3.045456e-06	4.971752e-09	2.178179e+01	3.265795e+02
1.040000e-06	3.185403e-06	5.289386e-09	2.278272e+01	3.474912e+02
1.050000e-06	3.324051e-06	5.588640e-09	2.377436e+01	3.670851e+02
1.060000e-06	3.461410e-06	5.868354e-09	2.475679e+01	3.854586e+02
1.070000e-06	3.597512e-06	6.133086e-09	2.573022e+01	4.027278e+02
1.080000e-06	3.732274e-06	6.384292e-09	2.669407e+01	4.190144e+02
1.090000e-06	3.865663e-06	6.622653e-09	2.764810e+01	4.344349e+02
1.100000e-06	3.997688e-06	6.847676e-09	2.859237e+01	4.490912e+02
1.110000e-06	4.128292e-06	7.059569e-09	2.952648e+01	4.630656e+02
1.120000e-06	4.257426e-06	7.260414e-09	3.045007e+01	4.764185e+02
1.130000e-06	4.385047e-06	7.453127e-09	3.136284e+01	4.891894e+02
1.140000e-06	4.511137e-06	7.637912e-09	3.226467e+01	5.014007e+02
1.150000e-06	4.635720e-06	7.814782e-09	3.315571e+01	5.130624e+02
1.160000e-06	4.758729e-06	7.980475e-09	3.403551e+01	5.241783e+02
1.170000e-06	4.880061e-06	8.136532e-09	3.490330e+01	5.347515e+02
1.180000e-06	4.999571e-06	8.287137e-09	3.575806e+01	5.447889e+02
1.190000e-06	5.117244e-06	8.434205e-09	3.659969e+01	5.543043e+02
1.200000e-06	5.233041e-06	8.575101e-09	3.742789e+01	5.633194e+02
1.210000e-06	5.346804e-06	8.708680e-09	3.824155e+01	5.718634e+02
1.220000e-06	5.458484e-06	8.834595e-09	3.904031e+01	5.799709e+02
1.230000e-06	5.568160e-06	8.955874e-09	3.982474e+01	5.876791e+02
1.240000e-06	5.675941e-06	9.073462e-09	4.059561e+01	5.950246e+02
1.250000e-06	5.781720e-06	9.183953e-09	4.135217e+01	6.020403e+02
1.260000e-06	5.885336e-06	9.285125e-09	4.209325e+01	6.087534e+02
1.270000e-06	5.986780e-06	9.378575e-09	4.281881e+01	6.151842e+02
1.280000e-06	6.086051e-06	9.469822e-09	4.352881e+01	6.213460e+02
1.290000e-06	6.182966e-06	9.558635e-09	4.422197e+01	6.272464e+02
1.300000e-06	6.277530e-06	9.643211e-09	4.489831e+01	6.328887e+02
1.310000e-06	6.369962e-06	9.722183e-09	4.555941e+01	6.382749e+02
1.320000e-06	6.460150e-06	9.798489e-09	4.620445e+01	6.434071e+02
1.330000e-06	6.547962e-06	9.872810e-09	4.683250e+01	6.482897e+02
1.340000e-06	6.633433e-06	9.944692e-09	4.744381e+01	6.529305e+02
1.350000e-06	6.716602e-06	1.001407e-08	4.803865e+01	6.573407e+02
1.360000e-06	6.797374e-06	1.007866e-08	4.861635e+01	6.615343e+02
1.370000e-06	6.875610e-06	1.013771e-08	4.917591e+01	6.655267e+02
1.380000e-06	6.951282e-06	1.019476e-08	4.971714e+01	6.693328e+02
1.390000e-06	7.024329e-06	1.025233e-08	5.023959e+01	6.729657e+02
1.400000e-06	7.094807e-06	1.030816e-08	5.074366e+01	6.764343e+02
1.410000e-06	7.162827e-06	1.035973e-08	5.123016e+01	6.797432e+02
1.420000e-06	7.228254e-06	1.040733e-08	5.169810e+01	6.828919e+02
1.430000e-06	7.291093e-06	1.045105e-08	5.214754e+01	6.858756e+02
1.440000e-06	7.351528e-06	1.049021e-08	5.257979e+01	6.886867e+02
1.450000e-06	7.409390e-06	1.052683e-08	5.299363e+01	6.913166e+02
1.460000e-06	7.464554e-06	1.056241e-08	5.338818e+01	6.937573e+02
1.470000e-06	7.516895e-06	1.059790e-08	5.376253e+01	6.960038e+02
1.480000e-06	7.566121e-06	1.063091e-08	5.411461e+01	6.980555e+02
1.490000e-06	7.612438e-06	1.066121e-08	5.444587e+01	6.999167e+02
1.500000e-06	7.656144e-06	1.068893e-08	5.475847e+01	7.015965e+02
1.510000e-06	7.697120e-06	1.071333e-08	5.505154e+01	7.031085e+02
1.520000e-06	7.735324e-06	1.073441e-08	5.532478e+01	7.044687e+02
1.530000e-06	7.770871e-06	1.075222e-08	5.557903e+01	7.056940e+02
1.540000e-06	7.803669e-06	1.076907e-08	5.581361e+01	7.068001e+02
1.550000e-06	7.833657e-06	1.078468e-08	5.602808e+01	7.077998e+02
1.560000e-06	7.860875e-06	1.079935e-08	5.622275e+01	7.087015e+02
1.570000e-06	7.885192e-06	1.081255e-08	5.639668e+01	7.095090e+02
1.580000e-06	7.906659e-06	1.082407e-08	5.655021e+01	7.102209e+02
1.590000e-06	7.925367e-06	1.083474e-08	5.668401e+01	7.108323e+02
1.600000e-06	7.941151e-06	1.084498e-08	5.679691e+01	7.113355e+02
1.610000e-06	7.953951e-06	1.085330e-08	5.688845e+01	7.117223e+02
1.620000e-06	7.963674e-06	1.085864e-08	5.695800e+01	7.119852e+02
1.630000e-06	7.970390e-06	1.086159e-08	5.700603e+01	7.121192e+02
1.640000e-06	7.974301e-06	1.086134e-08	5.703400e+01	7.121228e+02
1.650000e-06	7.975349e-06	1.086068e-08	5.704150e+01	7.119984e+02
1.660000e-06	7.973608e-06	1.085385e-08	5.702904e+01	7.117521e+02
1.670000e-06	7.969263e-06	1.084810e-08	5.699797e+01	7.113929e+02
1.680000e-06	7.962275e-06	1.084549e-08	5.694799e+01	7.109315e+02
1.690000e-06	7.952652e-06	1.083956e-08	5.687916e+01	7.103791e+02
1.700000e-06	7.940286e-06	1.083283e-08	5.679072e+01	7.097454e+02
1.710000e-06	7.925109e-06	1.082870e-08	5.668217e+01	7.090383e+02
1.720000e-06	7.907463e-06	1.082106e-08	5.655596e+01	7.082627e+02
1.730000e-06	7.887562e-06	1.078956e-08	5.641362e+01	7.074204e+02
1.740000e-06	7.865003e-06	1.068014e-08	5.625228e+01	7.065103e+02
1.750000e-06	7.839166e-06	1.067037e-08	5.606749e+01	7.055295e+02
1.760000e-06	7.809772e-06	1.070752e-08	5.585725e+01	7.044735e+02
1.770000e-06	7.777162e-06	1.069051e-08	5.562402e+01	7.033378e+02
1.780000e-06	7.742069e-06	1.068209e-08	5.537303e+01	7.021182e+02
1.790000e-06	7.704582e-06	1.074074e-08	5.510491e+01	7.008113e+02
1.800000e-06	7.664873e-06	1.071887e-08	5.482090e+01	6.994148e+02
1.810000e-06	7.623239e-06	1.058368e-08	5.452313e+01	6.979270e+02
1.820000e-06	7.579084e-06	1.066595e-08	5.420732e+01	6.963461e+02
1.830000e-06	7.532253e-06	1.060401e-08	5.387237e+01	6.946695e+02
1.840000e-06	7.482762e-06	1.057725e-08	5.351840e+01	6.928932e+02
1.850000e-06	7.430130e-06	1.059508e-08	5.314196e+01	6.910112e+02
1.860000e-06	7.374647e-06	1.049575e-08	5.274514e+01	6.890155e+02
1.870000e-06	7.316597e-06	1.052977e-08	5.232995e+01	6.868962e+02
1.880000e-06	7.255854e-06	1.040926e-08	5.189551e+01	6.846426e+02
1.890000e-06	7.192340e-06	1.041679e-08	5.144124e+01	6.822443e+02
1.900000e-06	7.126053e-06	1.041238e-08	5.096714e+01	6.796925e+02
1.910000e-06	7.057007e-06	1.029619e-08	5.047331e+01	6.769810e+02
1.920000e-06	6.985091e-06	1.031401e-08	4.995895e+01	6.741077e+02
1.930000e-06	6.910503e-06	1.024624e-08	4.942548e+01	6.710746e+02
1.940000e-06	6.833175e-06	1.022157e-08	4.887241e+01	6.678878e+02
1.950000e-06	6.753157e-06	1.011846e-08	4.830010e+01	6.645569e+02
1.960000e-06	6.670788e-06	1.007196e-08	4.771098e+01	6.610933e+02
1.970000e-06	6.585914e-06	1.005921e-08	4.710394e+01	6.575085e+02
1.980000e-06	6.498495e-06	9.960129e-09	4.647870e+01	6.538125e+02
1.990000e-06	6.408767e-06	9.937836e-09	4.583695e+01	6.500116e+02
2.000000e-06	6.316874e-06	9.874019e-09	4.517971e+01	6.461074e+02
2.010000e-06	6.222710e-06	9.818339e-09	4.450622e+01	6.420963e+02
2.020000e-06	6.126248e-06	9.717280e-09	4.381631e+01	6.379692e+02
2.030000e-06	6.027654e-06	9.662935e-09	4.311115e+01	6.337131e+02
2.040000e-06	5.926887e-06	9.612206e-09	4.239044e+01	6.293122e+02
2.050000e-06	5.823962e-06	9.532575e-09	4.165429e+01	6.247505e+02
2.060000e-06	5.719025e-06	9.457108e-09	4.090376e+01	6.200135e+02
2.070000e-06	5.612235e-06	9.379667e-09	4.013997e+01	6.150903e+02
2.080000e-06	5.503472e-06	9.311975e-09	3.936207e+01	6.099752e+02
2.090000e-06	5.392695e-06	9.212807e-09	3.856977e+01	6.046675e+02
2.100000e-06	5.279976e-06	9.138913e-09	3.776358e+01	5.991718e+02
2.110000e-06	5.165316e-06	9.057355e-09	3.694351e+01	5.934963e+02
2.120000e-06	5.048593e-06	8.975251e-09	3.610867e+01	5.876508e+02
2.130000e-06	4.929841e-06	8.875477e-09	3.525933e+01	5.816443e+02
2.140000e-06	4.809253e-06	8.783829e-09	3.439687e+01	5.754825e+02
2.150000e-06	4.686959e-06	8.688359e-09	3.352219e+01	5.691660e+02
2.160000e-06	4.562969e-06	8.585430e-09	3.263538e+01	5.626889e+02
2.170000e-06	4.437193e-06	8.482345e-09	3.173580e+01	5.560386e+02
2.180000e-06	4.309842e-06	8.383537e-09	3.082496e+01	5.491964e+02
2.190000e-06	4.180936e-06	8.285473e-09	2.990300e+01	5.421398e+02
2.200000e-06	4.050563e-06	8.172949e-09	2.897054e+01	5.348444e+02
2.210000e-06	3.918714e-06	8.053747e-09	2.802753e+01	5.272874e+02
2.220000e-06	3.785312e-06	7.925356e-09	2.707341e+01	5.194496e+02
2.230000e-06	3.650479e-06	7.802485e-09	2.610905e+01	5.113181e+02
2.240000e-06	3.514302e-06	7.675853e-09	2.513508e+01	5.028872e+02
2.250000e-06	3.376834e-06	7.547824e-09	2.415188e+01	4.941581e+02
2.260000e-06	3.238052e-06	7.413487e-09	2.315928e+01	4.851379e+02
2.270000e-06	3.097993e-06	7.276743e-09	2.215754e+01	4.758366e+02
2.280000e-06	2.956664e-06	7.130258e-09	2.114673e+01	4.662644e+02
2.290000e-06	2.814136e-06	6.976153e-09	2.012734e+01	4.564280e+02
2.300000e-06	2.670615e-06	6.821495e-09	1.910084e+01	4.463276e+02
2.310000e-06	2.526190e-06	6.665073e-09	1.806788e+01	4.359543e+02
2.320000e-06	2.380886e-06	6.504083e-09	1.702863e+01	4.252896e+02
2.330000e-06	2.234808e-06	6.335865e-09	1.598385e+01	4.143055e+02
2.340000e-06	2.087974e-06	6.162002e-09	1.493366e+01	4.029672e+02
2.350000e-06	1.940380e-06	5.981128e-09	1.387804e+01	3.912357e+02
2.360000e-06	1.792145e-06	5.792609e-09	1.281782e+01	3.790723e+02
2.370000e-06	1.643373e-06	5.598057e-09	1.175377e+01	3.664426e+02
2.380000e-06	1.494045e-06	5.396740e-09	1.068575e+01	3.533200e+02
2.390000e-06	1.344142e-06	5.190552e-09	9.613608e+00	3.396881e+02
2.400000e-06	1.193693e-06	4.978096e-09	8.537560e+00	3.255403e+02
2.410000e-06	1.042838e-06	4.755528e-09	7.458613e+00	3.108790e+02
2.420000e-06	8.917410e-07	4.524494e-09	6.377933e+00	2.957111e+02
2.430000e-06	7.404186e-07	4.284936e-09	5.295641e+00	2.800425e+02
2.440000e-06	5.888773e-07	4.039653e-09	4.211784e+00	2.638724e+02
2.450000e-06	4.371409e-07	3.786451e-09	3.126531e+00	2.471864e+02
2.460000e-06	2.852349e-07	3.523369e-09	2.040065e+00	2.299517e+02
2.470000e-06	1.332187e-07	3.249029e-09	9.528103e-01	2.121139e+02
2.480000e-06	-1.889047e-08	2.961274e-09	-1.351089e-01	1.935970e+02
2.490000e-06	-1.710744e-07	2.662664e-09	-1.223563e+00	1.743065e+02
2.500000e-06	-3.231685e-07	2.352406e-09	-2.311374e+00	1.541365e+02
2.510000e-06	-4.750658e-07	2.027835e-09	-3.397778e+00	1.329796e+02
2.520000e-06	-6.268496e-07	1.688986e-09	-4.483370e+00	1.107391e+02
2.530000e-06	-7.785104e-07	1.335163e-09	-5.568083e+00	8.734220e+01
2.540000e-06	-9.299927e-07	9.653430e-10	-6.651518e+00	6.275328e+01
2.550000e-06	-1.081218e-06	5.803418e-10	-7.733114e+00	3.698453e+01
2.560000e-06	-1.232050e-06	1.774836e-10	-8.811900e+00	1.010393e+01
2.570000e-06	-1.382408e-06	-2.450655e-10	-9.887295e+00	-1.776147e+01
2.580000e-06	-1.532202e-06	-6.854421e-10	-1.095865e+01	-4.642724e+01
2.590000e-06	-1.681373e-06	-1.138225e-09	-1.202556e+01	-7.565839e+01
2.600000e-06	-1.829922e-06	-1.594947e-09	-1.308802e+01	-1.051809e+02
2.610000e-06	-1.977782e-06	-2.051868e-09	-1.414555e+01	-1.346971e+02
2.620000e-06	-2.124897e-06	-2.504076e-09	-1.519774e+01	-1.639031e+02
2.630000e-06	-2.271190e-06	-2.945956e-09	-1.624406e+01	-1.925069e+02
2.640000e-06	-2.416613e-06	-3.370710e-09	-1.728416e+01	-2.202457e+02
2.650000e-06	-2.561127e-06	-3.772827e-09	-1.831776e+01	-2.469002e+02
2.660000e-06	-2.704716e-06	-4.155251e-09	-1.934474e+01	-2.723050e+02
2.670000e-06	-2.847292e-06	-4.518727e-09	-2.036447e+01	-2.963540e+02
2.680000e-06	-2.988688e-06	-4.861630e-09	-2.137577e+01	-3.190008e+02
2.690000e-06	-3.128866e-06	-5.184486e-09	-2.237835e+01	-3.402543e+02
2.700000e-06	-3.267748e-06	-5.488938e-09	-2.337167e+01	-3.601701e+02
2.710000e-06	-3.405340e-06	-5.777453e-09	-2.435576e+01	-3.788389e+02
2.720000e-06	-3.541703e-06	-6.047407e-09	-2.533106e+01	-3.963733e+02
2.730000e-06	-3.676822e-06	-6.301291e-09	-2.629746e+01	-4.128949e+02
2.740000e-06	-3.810603e-06	-6.542853e-09	-2.725429e+01	-4.285222e+02
2.750000e-06	-3.942977e-06	-6.774114e-09	-2.820106e+01	-4.433616e+02
2.760000e-06	-4.073933e-06	-6.995582e-09	-2.913769e+01	-4.575005e+02
2.770000e-06	-4.203469e-06	-7.204535e-09	-3.006416e+01	-4.710049e+02
2.780000e-06	-4.331592e-06	-7.402748e-09	-3.098052e+01	-4.839192e+02
2.790000e-06	-4.458241e-06	-7.590744e-09	-3.188635e+01	-4.962696e+02
2.800000e-06	-4.583319e-06	-7.768064e-09	-3.278093e+01	-5.080687e+02
2.810000e-06	-4.706777e-06	-7.934684e-09	-3.366393e+01	-5.193214e+02
2.820000e-06	-4.828552e-06	-8.092292e-09	-3.453489e+01	-5.300304e+02
2.830000e-06	-4.948564e-06	-8.243684e-09	-3.539325e+01	-5.402014e+02
2.840000e-06	-5.066701e-06	-8.390455e-09	-3.623819e+01	-5.498461e+02
2.850000e-06	-5.182741e-06	-8.531681e-09	-3.706813e+01	-5.589844e+02
2.860000e-06	-5.296694e-06	-8.666456e-09	-3.788315e+01	-5.676436e+02
2.870000e-06	-5.408569e-06	-8.794165e-09	-3.868330e+01	-5.758574e+02
2.880000e-06	-5.518327e-06	-8.914159e-09	-3.946832e+01	-5.836625e+02
2.890000e-06	-5.626152e-06	-9.028254e-09	-4.023951e+01	-5.910959e+02
2.900000e-06	-5.732086e-06	-9.137631e-09	-4.099717e+01	-5.981918e+02
2.910000e-06	-5.835996e-06	-9.241323e-09	-4.174036e+01	-6.049790e+02
2.920000e-06	-5.937716e-06	-9.339076e-09	-4.246789e+01	-6.114794e+02
2.930000e-06	-6.037191e-06	-9.431347e-09	-4.317936e+01	-6.177081e+02
2.940000e-06	-6.134513e-06	-9.519751e-09	-4.387542e+01	-6.236740e+02
