# Temperatura_=_39.72
# Concentracion g/m^3_=_10000.0
# C_Vs_to_Am_M_A/Vsm_=_65563218390.804596
# pendiente_HvsI_1/m_=_3716.3
# ordenada_HvsI_A/m_=_1297.0
# frecuencia_Hz_=_302621.38100222545

Tiempo_(s)	Campo_(V.s)	Magnetizacion_(V.s)	Campo_(kA/m)	Magnetizacion_(A/m)
0.000000e+00	-7.918478e-06	-1.020624e-08	-5.682936e+01	-6.693500e+02
1.000000e-08	-7.916316e-06	-1.020916e-08	-5.681384e+01	-6.690764e+02
2.000000e-08	-7.911470e-06	-1.020484e-08	-5.677906e+01	-6.686986e+02
3.000000e-08	-7.904124e-06	-1.019949e-08	-5.672635e+01	-6.682273e+02
4.000000e-08	-7.893983e-06	-1.019371e-08	-5.665356e+01	-6.676743e+02
5.000000e-08	-7.880862e-06	-1.018402e-08	-5.655940e+01	-6.670518e+02
6.000000e-08	-7.864838e-06	-1.017017e-08	-5.644439e+01	-6.663706e+02
7.000000e-08	-7.846247e-06	-1.015737e-08	-5.631097e+01	-6.656391e+02
8.000000e-08	-7.825394e-06	-1.014435e-08	-5.616131e+01	-6.648627e+02
9.000000e-08	-7.801968e-06	-1.019192e-08	-5.599319e+01	-6.640434e+02
1.000000e-07	-7.775431e-06	-1.020095e-08	-5.580274e+01	-6.631799e+02
1.100000e-07	-7.745710e-06	-1.014137e-08	-5.558944e+01	-6.622679e+02
1.200000e-07	-7.713169e-06	-1.010558e-08	-5.535589e+01	-6.613012e+02
1.300000e-07	-7.677917e-06	-1.008732e-08	-5.510290e+01	-6.602719e+02
1.400000e-07	-7.640169e-06	-1.005139e-08	-5.483199e+01	-6.591718e+02
1.500000e-07	-7.600284e-06	-9.984744e-09	-5.454574e+01	-6.579927e+02
1.600000e-07	-7.558168e-06	-1.000368e-08	-5.424348e+01	-6.567269e+02
1.700000e-07	-7.513436e-06	-1.001025e-08	-5.392245e+01	-6.553675e+02
1.800000e-07	-7.466091e-06	-9.925031e-09	-5.358267e+01	-6.539085e+02
1.900000e-07	-7.415934e-06	-9.953014e-09	-5.322270e+01	-6.523443e+02
2.000000e-07	-7.362726e-06	-9.943368e-09	-5.284083e+01	-6.506699e+02
2.100000e-07	-7.306735e-06	-9.875691e-09	-5.243900e+01	-6.488808e+02
2.200000e-07	-7.248062e-06	-9.857169e-09	-5.201791e+01	-6.469723e+02
2.300000e-07	-7.186735e-06	-9.822716e-09	-5.157778e+01	-6.449406e+02
2.400000e-07	-7.122829e-06	-9.802400e-09	-5.111914e+01	-6.427823e+02
2.500000e-07	-7.056199e-06	-9.732370e-09	-5.064095e+01	-6.404948e+02
2.600000e-07	-6.986894e-06	-9.724918e-09	-5.014356e+01	-6.380773e+02
2.700000e-07	-6.914972e-06	-9.702147e-09	-4.962739e+01	-6.355303e+02
2.800000e-07	-6.840272e-06	-9.637362e-09	-4.909128e+01	-6.328561e+02
2.900000e-07	-6.762759e-06	-9.593843e-09	-4.853499e+01	-6.300584e+02
3.000000e-07	-6.682430e-06	-9.556457e-09	-4.795848e+01	-6.271421e+02
3.100000e-07	-6.599599e-06	-9.528399e-09	-4.736402e+01	-6.241123e+02
3.200000e-07	-6.514576e-06	-9.456790e-09	-4.675383e+01	-6.209736e+02
3.300000e-07	-6.427296e-06	-9.411720e-09	-4.612744e+01	-6.177290e+02
3.400000e-07	-6.337668e-06	-9.369587e-09	-4.548420e+01	-6.143793e+02
3.500000e-07	-6.245751e-06	-9.315428e-09	-4.482453e+01	-6.109221e+02
3.600000e-07	-6.151623e-06	-9.258673e-09	-4.414899e+01	-6.073522e+02
3.700000e-07	-6.055205e-06	-9.203508e-09	-4.345701e+01	-6.036613e+02
3.800000e-07	-5.956494e-06	-9.150817e-09	-4.274858e+01	-5.998391e+02
3.900000e-07	-5.855678e-06	-9.074798e-09	-4.202505e+01	-5.958740e+02
4.000000e-07	-5.752886e-06	-9.013164e-09	-4.128733e+01	-5.917548e+02
4.100000e-07	-5.648035e-06	-8.954170e-09	-4.053484e+01	-5.874716e+02
4.200000e-07	-5.541124e-06	-8.887816e-09	-3.976755e+01	-5.830169e+02
4.300000e-07	-5.432314e-06	-8.810933e-09	-3.898665e+01	-5.783868e+02
4.400000e-07	-5.321619e-06	-8.741818e-09	-3.819221e+01	-5.735805e+02
4.500000e-07	-5.208907e-06	-8.670855e-09	-3.738330e+01	-5.686006e+02
4.600000e-07	-5.094039e-06	-8.590461e-09	-3.655892e+01	-5.634514e+02
4.700000e-07	-4.977131e-06	-8.509697e-09	-3.571989e+01	-5.581382e+02
4.800000e-07	-4.858442e-06	-8.426395e-09	-3.486809e+01	-5.526654e+02
4.900000e-07	-4.737989e-06	-8.340146e-09	-3.400361e+01	-5.470348e+02
5.000000e-07	-4.615779e-06	-8.248497e-09	-3.312653e+01	-5.412444e+02
5.100000e-07	-4.491907e-06	-8.158626e-09	-3.223754e+01	-5.352878e+02
5.200000e-07	-4.366503e-06	-8.062352e-09	-3.133753e+01	-5.291540e+02
5.300000e-07	-4.239526e-06	-7.964137e-09	-3.042624e+01	-5.228278e+02
5.400000e-07	-4.110981e-06	-7.861153e-09	-2.950370e+01	-5.162915e+02
5.500000e-07	-3.980917e-06	-7.758128e-09	-2.857025e+01	-5.095263e+02
5.600000e-07	-3.849285e-06	-7.651940e-09	-2.762556e+01	-5.025144e+02
5.700000e-07	-3.716208e-06	-7.542120e-09	-2.667049e+01	-4.952410e+02
5.800000e-07	-3.581763e-06	-7.424464e-09	-2.570561e+01	-4.876951e+02
5.900000e-07	-3.445954e-06	-7.299813e-09	-2.473093e+01	-4.798711e+02
6.000000e-07	-3.308809e-06	-7.174515e-09	-2.374667e+01	-4.717678e+02
6.100000e-07	-3.170331e-06	-7.047753e-09	-2.275284e+01	-4.633878e+02
6.200000e-07	-3.030497e-06	-6.918795e-09	-2.174928e+01	-4.547353e+02
6.300000e-07	-2.889258e-06	-6.784026e-09	-2.073563e+01	-4.458143e+02
6.400000e-07	-2.746833e-06	-6.648019e-09	-1.971348e+01	-4.366255e+02
6.500000e-07	-2.603376e-06	-6.505569e-09	-1.868392e+01	-4.271646e+02
6.600000e-07	-2.458886e-06	-6.354548e-09	-1.764694e+01	-4.174204e+02
6.700000e-07	-2.313531e-06	-6.196124e-09	-1.660376e+01	-4.073746e+02
6.800000e-07	-2.167447e-06	-6.035578e-09	-1.555534e+01	-3.970018e+02
6.900000e-07	-2.020674e-06	-5.870107e-09	-1.450198e+01	-3.862716e+02
7.000000e-07	-1.873236e-06	-5.697627e-09	-1.344384e+01	-3.751510e+02
7.100000e-07	-1.725214e-06	-5.520401e-09	-1.238152e+01	-3.636077e+02
7.200000e-07	-1.576707e-06	-5.338325e-09	-1.131571e+01	-3.516130e+02
7.300000e-07	-1.427753e-06	-5.151057e-09	-1.024670e+01	-3.391447e+02
7.400000e-07	-1.278389e-06	-4.955453e-09	-9.174749e+00	-3.261883e+02
7.500000e-07	-1.128637e-06	-4.753942e-09	-8.100003e+00	-3.127377e+02
7.600000e-07	-9.784680e-07	-4.544958e-09	-7.022272e+00	-2.987932e+02
7.700000e-07	-8.279514e-07	-4.327163e-09	-5.942044e+00	-2.843588e+02
7.800000e-07	-6.771428e-07	-4.099131e-09	-4.859720e+00	-2.694375e+02
7.900000e-07	-5.260795e-07	-3.863554e-09	-3.775569e+00	-2.540264e+02
8.000000e-07	-3.748544e-07	-3.621264e-09	-2.690256e+00	-2.381117e+02
8.100000e-07	-2.234450e-07	-3.369087e-09	-1.603621e+00	-2.216642e+02
8.200000e-07	-7.180954e-08	-3.107595e-09	-5.153629e-01	-2.046370e+02
8.300000e-07	7.995019e-08	-2.839431e-09	5.737868e-01	-1.869651e+02
8.400000e-07	2.316717e-07	-2.560464e-09	1.662662e+00	-1.685684e+02
8.500000e-07	3.832379e-07	-2.263275e-09	2.750423e+00	-1.493571e+02
8.600000e-07	5.346932e-07	-1.950365e-09	3.837388e+00	-1.292396e+02
8.700000e-07	6.860122e-07	-1.627832e-09	4.923375e+00	-1.081330e+02
8.800000e-07	8.371010e-07	-1.293489e-09	6.007709e+00	-8.597438e+01
8.900000e-07	9.878981e-07	-9.409316e-10	7.089950e+00	-6.273158e+01
9.000000e-07	1.138351e-06	-5.718907e-10	8.169724e+00	-3.841314e+01
9.100000e-07	1.288419e-06	-1.892238e-10	9.246732e+00	-1.307536e+01
9.200000e-07	1.438027e-06	2.070640e-10	1.032044e+01	1.317414e+01
9.300000e-07	1.587151e-06	6.162755e-10	1.139067e+01	4.017708e+01
9.400000e-07	1.735733e-06	1.036300e-09	1.245702e+01	6.772953e+01
9.500000e-07	1.883728e-06	1.464039e-09	1.351914e+01	9.559104e+01
9.600000e-07	2.031059e-06	1.895448e-09	1.457651e+01	1.234973e+02
9.700000e-07	2.177608e-06	2.322332e-09	1.562826e+01	1.511748e+02
9.800000e-07	2.323340e-06	2.738189e-09	1.667415e+01	1.783569e+02
9.900000e-07	2.468290e-06	3.139420e-09	1.771443e+01	2.047989e+02
1.000000e-06	2.612308e-06	3.526490e-09	1.874802e+01	2.302914e+02
1.010000e-06	2.755265e-06	3.894462e-09	1.977399e+01	2.546702e+02
1.020000e-06	2.897181e-06	4.241854e-09	2.079249e+01	2.778229e+02
1.030000e-06	3.037860e-06	4.568923e-09	2.180212e+01	2.996903e+02
1.040000e-06	3.177261e-06	4.877923e-09	2.280257e+01	3.202639e+02
1.050000e-06	3.315426e-06	5.171180e-09	2.379416e+01	3.395793e+02
1.060000e-06	3.452327e-06	5.448990e-09	2.477667e+01	3.577072e+02
1.070000e-06	3.587908e-06	5.711957e-09	2.574971e+01	3.747417e+02
1.080000e-06	3.722140e-06	5.959240e-09	2.671307e+01	3.907892e+02
1.090000e-06	3.855057e-06	6.193174e-09	2.766698e+01	4.059568e+02
1.100000e-06	3.986586e-06	6.414902e-09	2.861094e+01	4.203436e+02
1.110000e-06	4.116666e-06	6.624185e-09	2.954450e+01	4.340338e+02
1.120000e-06	4.245287e-06	6.820960e-09	3.046759e+01	4.470930e+02
1.130000e-06	4.372406e-06	7.006344e-09	3.137990e+01	4.595671e+02
1.140000e-06	4.498048e-06	7.183587e-09	3.228160e+01	4.714843e+02
1.150000e-06	4.622179e-06	7.355033e-09	3.317247e+01	4.828591e+02
1.160000e-06	4.744692e-06	7.517759e-09	3.405172e+01	4.936966e+02
1.170000e-06	4.865597e-06	7.672699e-09	3.491943e+01	5.039987e+02
1.180000e-06	4.984730e-06	7.821391e-09	3.577442e+01	5.137682e+02
1.190000e-06	5.101948e-06	7.963993e-09	3.661568e+01	5.230134e+02
1.200000e-06	5.217211e-06	8.097434e-09	3.744290e+01	5.317498e+02
1.210000e-06	5.330476e-06	8.223851e-09	3.825578e+01	5.400013e+02
1.220000e-06	5.441761e-06	8.342934e-09	3.905445e+01	5.477989e+02
1.230000e-06	5.551113e-06	8.457262e-09	3.983925e+01	5.551792e+02
1.240000e-06	5.658483e-06	8.567593e-09	4.060982e+01	5.621808e+02
1.250000e-06	5.763787e-06	8.670493e-09	4.136557e+01	5.688419e+02
1.260000e-06	5.866985e-06	8.767641e-09	4.210619e+01	5.751968e+02
1.270000e-06	5.968037e-06	8.859667e-09	4.283142e+01	5.812744e+02
1.280000e-06	6.066902e-06	8.947564e-09	4.354096e+01	5.870965e+02
1.290000e-06	6.163479e-06	9.030285e-09	4.423407e+01	5.926777e+02
1.300000e-06	6.257779e-06	9.108198e-09	4.491085e+01	5.980266e+02
1.310000e-06	6.349835e-06	9.182758e-09	4.557152e+01	6.031468e+02
1.320000e-06	6.439619e-06	9.255192e-09	4.621588e+01	6.080392e+02
1.330000e-06	6.527074e-06	9.325928e-09	4.684353e+01	6.127038e+02
1.340000e-06	6.612214e-06	9.394461e-09	4.745456e+01	6.171418e+02
1.350000e-06	6.695048e-06	9.459788e-09	4.804904e+01	6.213563e+02
1.360000e-06	6.775447e-06	9.520994e-09	4.862605e+01	6.253532e+02
1.370000e-06	6.853350e-06	9.577230e-09	4.918515e+01	6.291407e+02
1.380000e-06	6.928696e-06	9.630680e-09	4.972589e+01	6.327289e+02
1.390000e-06	7.001415e-06	9.684752e-09	5.024777e+01	6.361282e+02
1.400000e-06	7.071581e-06	9.736195e-09	5.075135e+01	6.393483e+02
1.410000e-06	7.139219e-06	9.783578e-09	5.123677e+01	6.423969e+02
1.420000e-06	7.204284e-06	9.827553e-09	5.170373e+01	6.452790e+02
1.430000e-06	7.266886e-06	9.867558e-09	5.215301e+01	6.479967e+02
1.440000e-06	7.327091e-06	9.905035e-09	5.258509e+01	6.505495e+02
1.450000e-06	7.384744e-06	9.938780e-09	5.299885e+01	6.529351e+02
1.460000e-06	7.439689e-06	9.970320e-09	5.339318e+01	6.551504e+02
1.470000e-06	7.491738e-06	1.000200e-08	5.376673e+01	6.571934e+02
1.480000e-06	7.540710e-06	1.003200e-08	5.411819e+01	6.590637e+02
1.490000e-06	7.586867e-06	1.006010e-08	5.444945e+01	6.607641e+02
1.500000e-06	7.630439e-06	1.008437e-08	5.476216e+01	6.623006e+02
1.510000e-06	7.671255e-06	1.010554e-08	5.505509e+01	6.636826e+02
1.520000e-06	7.709336e-06	1.012453e-08	5.532839e+01	6.649218e+02
1.530000e-06	7.744745e-06	1.014144e-08	5.558251e+01	6.660314e+02
1.540000e-06	7.777377e-06	1.015861e-08	5.581671e+01	6.670247e+02
1.550000e-06	7.807238e-06	1.017414e-08	5.603101e+01	6.679135e+02
1.560000e-06	7.834336e-06	1.018855e-08	5.622549e+01	6.687066e+02
1.570000e-06	7.858504e-06	1.020045e-08	5.639894e+01	6.694098e+02
1.580000e-06	7.879824e-06	1.020972e-08	5.655194e+01	6.700244e+02
1.590000e-06	7.898453e-06	1.021800e-08	5.668565e+01	6.705484e+02
1.600000e-06	7.914234e-06	1.022461e-08	5.679890e+01	6.709768e+02
1.610000e-06	7.926951e-06	1.023071e-08	5.689017e+01	6.713030e+02
1.620000e-06	7.936519e-06	1.023631e-08	5.695883e+01	6.715202e+02
1.630000e-06	7.943126e-06	1.024066e-08	5.700625e+01	6.716227e+02
1.640000e-06	7.946983e-06	1.024220e-08	5.703394e+01	6.716073e+02
1.650000e-06	7.948037e-06	1.024157e-08	5.704150e+01	6.714744e+02
1.660000e-06	7.946320e-06	1.023115e-08	5.702918e+01	6.712276e+02
1.670000e-06	7.941962e-06	1.022363e-08	5.699790e+01	6.708744e+02
1.680000e-06	7.934921e-06	1.021830e-08	5.694737e+01	6.704248e+02
1.690000e-06	7.925252e-06	1.021278e-08	5.687797e+01	6.698905e+02
1.700000e-06	7.912862e-06	1.020825e-08	5.678905e+01	6.692838e+02
1.710000e-06	7.897724e-06	1.020604e-08	5.668041e+01	6.686157e+02
1.720000e-06	7.880086e-06	1.020216e-08	5.655383e+01	6.678956e+02
1.730000e-06	7.860233e-06	1.016559e-08	5.641135e+01	6.671295e+02
1.740000e-06	7.837826e-06	1.006908e-08	5.625053e+01	6.663203e+02
1.750000e-06	7.812116e-06	1.007565e-08	5.606602e+01	6.654676e+02
1.760000e-06	7.782797e-06	1.010104e-08	5.585560e+01	6.645677e+02
1.770000e-06	7.750191e-06	1.007644e-08	5.562160e+01	6.636148e+02
1.780000e-06	7.715115e-06	1.007902e-08	5.536986e+01	6.626014e+02
1.790000e-06	7.677748e-06	1.014268e-08	5.510169e+01	6.615192e+02
1.800000e-06	7.638174e-06	1.008310e-08	5.481767e+01	6.603600e+02
1.810000e-06	7.596571e-06	1.002700e-08	5.451909e+01	6.591159e+02
1.820000e-06	7.552505e-06	1.008965e-08	5.420284e+01	6.577800e+02
1.830000e-06	7.505795e-06	9.993607e-09	5.386761e+01	6.563458e+02
1.840000e-06	7.456346e-06	1.001927e-08	5.351273e+01	6.548078e+02
1.850000e-06	7.403818e-06	9.973143e-09	5.313574e+01	6.531609e+02
1.860000e-06	7.348417e-06	9.926967e-09	5.273814e+01	6.514002e+02
1.870000e-06	7.290409e-06	9.949420e-09	5.232183e+01	6.495214e+02
1.880000e-06	7.229776e-06	9.840858e-09	5.188668e+01	6.475203e+02
1.890000e-06	7.166382e-06	9.894690e-09	5.143171e+01	6.453933e+02
1.900000e-06	7.100254e-06	9.831120e-09	5.095713e+01	6.431377e+02
1.910000e-06	7.031440e-06	9.750296e-09	5.046326e+01	6.407522e+02
1.920000e-06	6.959724e-06	9.752599e-09	4.994857e+01	6.382368e+02
1.930000e-06	6.885405e-06	9.687279e-09	4.941519e+01	6.355935e+02
1.940000e-06	6.808412e-06	9.679429e-09	4.886263e+01	6.328257e+02
1.950000e-06	6.728651e-06	9.589196e-09	4.829020e+01	6.299379e+02
1.960000e-06	6.646460e-06	9.577891e-09	4.770033e+01	6.269355e+02
1.970000e-06	6.561825e-06	9.526383e-09	4.709293e+01	6.238231e+02
1.980000e-06	6.474704e-06	9.453078e-09	4.646767e+01	6.206042e+02
1.990000e-06	6.385199e-06	9.434967e-09	4.582531e+01	6.172803e+02
2.000000e-06	6.293566e-06	9.375064e-09	4.516768e+01	6.138498e+02
2.010000e-06	6.199721e-06	9.328649e-09	4.449418e+01	6.103081e+02
2.020000e-06	6.103547e-06	9.237806e-09	4.380395e+01	6.066478e+02
2.030000e-06	6.005231e-06	9.203704e-09	4.309836e+01	6.028589e+02
2.040000e-06	5.904835e-06	9.141768e-09	4.237784e+01	5.989301e+02
2.050000e-06	5.802265e-06	9.075934e-09	4.164171e+01	5.948498e+02
2.060000e-06	5.697568e-06	9.008702e-09	4.089032e+01	5.906078e+02
2.070000e-06	5.591008e-06	8.943015e-09	4.012557e+01	5.861960e+02
2.080000e-06	5.482643e-06	8.874773e-09	3.934785e+01	5.816093e+02
2.090000e-06	5.372300e-06	8.792106e-09	3.855594e+01	5.768464e+02
2.100000e-06	5.259888e-06	8.734871e-09	3.774918e+01	5.719089e+02
2.110000e-06	5.145551e-06	8.654029e-09	3.692861e+01	5.668010e+02
2.120000e-06	5.029274e-06	8.574040e-09	3.609411e+01	5.615278e+02
2.130000e-06	4.910939e-06	8.480030e-09	3.524484e+01	5.560940e+02
2.140000e-06	4.790682e-06	8.400244e-09	3.438178e+01	5.505023e+02
2.150000e-06	4.668772e-06	8.312711e-09	3.350685e+01	5.447517e+02
2.160000e-06	4.545199e-06	8.226228e-09	3.262000e+01	5.388369e+02
2.170000e-06	4.419909e-06	8.132940e-09	3.172082e+01	5.327481e+02
2.180000e-06	4.292939e-06	8.039747e-09	3.080958e+01	5.264710e+02
2.190000e-06	4.164329e-06	7.943875e-09	2.988657e+01	5.199884e+02
2.200000e-06	4.034346e-06	7.842070e-09	2.895371e+01	5.132816e+02
2.210000e-06	3.902913e-06	7.735389e-09	2.801044e+01	5.063324e+02
2.220000e-06	3.769989e-06	7.619394e-09	2.705647e+01	4.991249e+02
2.230000e-06	3.635569e-06	7.508715e-09	2.609176e+01	4.916473e+02
2.240000e-06	3.499702e-06	7.393188e-09	2.511667e+01	4.838926e+02
2.250000e-06	3.362613e-06	7.275465e-09	2.413281e+01	4.758584e+02
2.260000e-06	3.224276e-06	7.147554e-09	2.313999e+01	4.675466e+02
2.270000e-06	3.084661e-06	7.019057e-09	2.213800e+01	4.589612e+02
2.280000e-06	2.943840e-06	6.881130e-09	2.112736e+01	4.501065e+02
2.290000e-06	2.801861e-06	6.740159e-09	2.010841e+01	4.409842e+02
2.300000e-06	2.658794e-06	6.600545e-09	1.908164e+01	4.315915e+02
2.310000e-06	2.514751e-06	6.459559e-09	1.804788e+01	4.219191e+02
2.320000e-06	2.369850e-06	6.310437e-09	1.700795e+01	4.119502e+02
2.330000e-06	2.224219e-06	6.150571e-09	1.596278e+01	4.016613e+02
2.340000e-06	2.077902e-06	5.984205e-09	1.491269e+01	3.910229e+02
2.350000e-06	1.930839e-06	5.812488e-09	1.385725e+01	3.800024e+02
2.360000e-06	1.783015e-06	5.635474e-09	1.279635e+01	3.685671e+02
2.370000e-06	1.634579e-06	5.453383e-09	1.173106e+01	3.566871e+02
2.380000e-06	1.485657e-06	5.266042e-09	1.066227e+01	3.443382e+02
2.390000e-06	1.336335e-06	5.072744e-09	9.590610e+00	3.315042e+02
2.400000e-06	1.186580e-06	4.871454e-09	8.515854e+00	3.181767e+02
2.410000e-06	1.036390e-06	4.660737e-09	7.437970e+00	3.043548e+02
2.420000e-06	8.858591e-07	4.440850e-09	6.357636e+00	2.900419e+02
2.430000e-06	7.350518e-07	4.213042e-09	5.275322e+00	2.752417e+02
2.440000e-06	5.840027e-07	3.981666e-09	4.191273e+00	2.599533e+02
2.450000e-06	4.327703e-07	3.744292e-09	3.105907e+00	2.441660e+02
2.460000e-06	2.813771e-07	3.497461e-09	2.019388e+00	2.278548e+02
2.470000e-06	1.297949e-07	3.238272e-09	9.315124e-01	2.109773e+02
2.480000e-06	-2.189950e-08	2.965593e-09	-1.571684e-01	1.934730e+02
2.490000e-06	-1.735805e-07	2.681767e-09	-1.245753e+00	1.752651e+02
2.500000e-06	-3.252057e-07	2.387686e-09	-2.333937e+00	1.562656e+02
2.510000e-06	-4.767111e-07	2.082909e-09	-3.421262e+00	1.363823e+02
2.520000e-06	-6.280430e-07	1.766331e-09	-4.507341e+00	1.155293e+02
2.530000e-06	-7.791788e-07	1.435433e-09	-5.592013e+00	9.363753e+01
2.540000e-06	-9.300010e-07	1.088526e-09	-6.674434e+00	7.066612e+01
2.550000e-06	-1.080468e-06	7.279001e-10	-7.754306e+00	4.661269e+01
2.560000e-06	-1.230578e-06	3.523074e-10	-8.831618e+00	2.152111e+01
2.570000e-06	-1.380310e-06	-4.091777e-11	-9.906213e+00	-4.513954e+00
2.580000e-06	-1.529600e-06	-4.510403e-10	-1.097764e+01	-3.134658e+01
2.590000e-06	-1.678347e-06	-8.757320e-10	-1.204517e+01	-5.878353e+01
2.600000e-06	-1.826455e-06	-1.307241e-09	-1.310811e+01	-8.659244e+01
2.610000e-06	-1.973813e-06	-1.739517e-09	-1.416567e+01	-1.145136e+02
2.620000e-06	-2.120416e-06	-2.169668e-09	-1.521781e+01	-1.422744e+02
2.630000e-06	-2.266264e-06	-2.592250e-09	-1.626453e+01	-1.696051e+02
2.640000e-06	-2.411258e-06	-3.000970e-09	-1.730513e+01	-1.962539e+02
2.650000e-06	-2.555307e-06	-3.392323e-09	-1.833894e+01	-2.220016e+02
2.660000e-06	-2.698318e-06	-3.765525e-09	-1.936530e+01	-2.466720e+02
2.670000e-06	-2.840266e-06	-4.119729e-09	-2.038403e+01	-2.701394e+02
2.680000e-06	-2.981158e-06	-4.453587e-09	-2.139518e+01	-2.923314e+02
2.690000e-06	-3.120852e-06	-4.768915e-09	-2.239774e+01	-3.132272e+02
2.700000e-06	-3.259228e-06	-5.069192e-09	-2.339084e+01	-3.328524e+02
2.710000e-06	-3.396331e-06	-5.353602e-09	-2.437480e+01	-3.512696e+02
2.720000e-06	-3.532188e-06	-5.619163e-09	-2.534982e+01	-3.685684e+02
2.730000e-06	-3.666763e-06	-5.868846e-09	-2.631564e+01	-3.848530e+02
2.740000e-06	-3.800050e-06	-6.106666e-09	-2.727221e+01	-4.002314e+02
2.750000e-06	-3.931979e-06	-6.333103e-09	-2.821904e+01	-4.148054e+02
2.760000e-06	-4.062493e-06	-6.549428e-09	-2.915571e+01	-4.286635e+02
2.770000e-06	-4.191613e-06	-6.754633e-09	-3.008238e+01	-4.418759e+02
2.780000e-06	-4.319274e-06	-6.949169e-09	-3.099858e+01	-4.544936e+02
2.790000e-06	-4.445472e-06	-7.133946e-09	-3.190428e+01	-4.665488e+02
2.800000e-06	-4.570159e-06	-7.307411e-09	-3.279913e+01	-4.780590e+02
2.810000e-06	-4.693173e-06	-7.471185e-09	-3.368198e+01	-4.890312e+02
2.820000e-06	-4.814527e-06	-7.626401e-09	-3.455291e+01	-4.994676e+02
2.830000e-06	-4.934162e-06	-7.774074e-09	-3.541151e+01	-5.093703e+02
2.840000e-06	-5.051842e-06	-7.915678e-09	-3.625608e+01	-5.187460e+02
2.850000e-06	-5.167325e-06	-8.052271e-09	-3.708488e+01	-5.276083e+02
2.860000e-06	-5.280662e-06	-8.182777e-09	-3.789827e+01	-5.359789e+02
2.870000e-06	-5.392011e-06	-8.305942e-09	-3.869740e+01	-5.438873e+02
2.880000e-06	-5.501343e-06	-8.422106e-09	-3.948205e+01	-5.513689e+02
2.890000e-06	-5.608768e-06	-8.532039e-09	-4.025303e+01	-5.584621e+02
2.900000e-06	-5.714335e-06	-8.636696e-09	-4.101066e+01	-5.652055e+02
2.910000e-06	-5.817827e-06	-8.736390e-09	-4.175340e+01	-5.716345e+02
2.920000e-06	-5.919111e-06	-8.830150e-09	-4.248029e+01	-5.777797e+02
2.930000e-06	-6.018209e-06	-8.916357e-09	-4.319150e+01	-5.836646e+02
2.940000e-06	-6.115165e-06	-8.998768e-09	-4.388733e+01	-5.893056e+02
