# Temperatura_=_53.2
# Concentracion g/m^3_=_10000.0
# C_Vs_to_Am_M_A/Vsm_=_65563218390.804596
# pendiente_HvsI_1/m_=_3716.3
# ordenada_HvsI_A/m_=_1297.0
# frecuencia_Hz_=_302617.51922733546

Tiempo_(s)	Campo_(V.s)	Magnetizacion_(V.s)	Campo_(kA/m)	Magnetizacion_(A/m)
0.000000e+00	-7.890195e-06	-1.063418e-08	-5.683308e+01	-6.975023e+02
1.000000e-08	-7.888088e-06	-1.063943e-08	-5.681790e+01	-6.972330e+02
2.000000e-08	-7.883226e-06	-1.063813e-08	-5.678288e+01	-6.968477e+02
3.000000e-08	-7.875843e-06	-1.063113e-08	-5.672970e+01	-6.963585e+02
4.000000e-08	-7.865756e-06	-1.062305e-08	-5.665704e+01	-6.957790e+02
5.000000e-08	-7.852849e-06	-1.061215e-08	-5.656407e+01	-6.951221e+02
6.000000e-08	-7.837002e-06	-1.059837e-08	-5.644992e+01	-6.943990e+02
7.000000e-08	-7.818492e-06	-1.058354e-08	-5.631660e+01	-6.936174e+02
8.000000e-08	-7.797784e-06	-1.056577e-08	-5.616744e+01	-6.927815e+02
9.000000e-08	-7.774525e-06	-1.058989e-08	-5.599990e+01	-6.918913e+02
1.000000e-07	-7.748101e-06	-1.061870e-08	-5.580957e+01	-6.909432e+02
1.100000e-07	-7.718505e-06	-1.057509e-08	-5.559639e+01	-6.899311e+02
1.200000e-07	-7.686094e-06	-1.052507e-08	-5.536294e+01	-6.888467e+02
1.300000e-07	-7.650997e-06	-1.050306e-08	-5.511013e+01	-6.876811e+02
1.400000e-07	-7.613441e-06	-1.047465e-08	-5.483961e+01	-6.864257e+02
1.500000e-07	-7.573770e-06	-1.040282e-08	-5.455387e+01	-6.850728e+02
1.600000e-07	-7.531903e-06	-1.037430e-08	-5.425230e+01	-6.836159e+02
1.700000e-07	-7.487408e-06	-1.043906e-08	-5.393180e+01	-6.820498e+02
1.800000e-07	-7.440198e-06	-1.035811e-08	-5.359175e+01	-6.803707e+02
1.900000e-07	-7.390219e-06	-1.032896e-08	-5.323175e+01	-6.785752e+02
2.000000e-07	-7.337225e-06	-1.035040e-08	-5.285003e+01	-6.766604e+02
2.100000e-07	-7.281462e-06	-1.025005e-08	-5.244837e+01	-6.746233e+02
2.200000e-07	-7.223103e-06	-1.022240e-08	-5.202801e+01	-6.724607e+02
2.300000e-07	-7.162115e-06	-1.020128e-08	-5.158872e+01	-6.701697e+02
2.400000e-07	-7.098540e-06	-1.018366e-08	-5.113078e+01	-6.677472e+02
2.500000e-07	-7.032176e-06	-1.013163e-08	-5.065276e+01	-6.651912e+02
2.600000e-07	-6.963097e-06	-1.008779e-08	-5.015518e+01	-6.625009e+02
2.700000e-07	-6.891389e-06	-1.006929e-08	-4.963867e+01	-6.596769e+02
2.800000e-07	-6.816935e-06	-1.000901e-08	-4.910238e+01	-6.567218e+02
2.900000e-07	-6.739769e-06	-9.956423e-09	-4.854656e+01	-6.536399e+02
3.000000e-07	-6.659888e-06	-9.910727e-09	-4.797117e+01	-6.504363e+02
3.100000e-07	-6.577469e-06	-9.876632e-09	-4.737751e+01	-6.471168e+02
3.200000e-07	-6.492843e-06	-9.823095e-09	-4.676795e+01	-6.436862e+02
3.300000e-07	-6.405988e-06	-9.752606e-09	-4.614233e+01	-6.401474e+02
3.400000e-07	-6.316800e-06	-9.706499e-09	-4.549991e+01	-6.365008e+02
3.500000e-07	-6.225299e-06	-9.645933e-09	-4.484083e+01	-6.327432e+02
3.600000e-07	-6.131533e-06	-9.580159e-09	-4.416543e+01	-6.288681e+02
3.700000e-07	-6.035532e-06	-9.521585e-09	-4.347393e+01	-6.248657e+02
3.800000e-07	-5.937273e-06	-9.468567e-09	-4.276618e+01	-6.207239e+02
3.900000e-07	-5.836867e-06	-9.402183e-09	-4.204295e+01	-6.164297e+02
4.000000e-07	-5.734387e-06	-9.323194e-09	-4.130479e+01	-6.119706e+02
4.100000e-07	-5.629875e-06	-9.254039e-09	-4.055199e+01	-6.073361e+02
4.200000e-07	-5.523403e-06	-9.180449e-09	-3.978507e+01	-6.025189e+02
4.300000e-07	-5.414982e-06	-9.108194e-09	-3.900412e+01	-5.975160e+02
4.400000e-07	-5.304668e-06	-9.035801e-09	-3.820953e+01	-5.923282e+02
4.500000e-07	-5.192432e-06	-8.961670e-09	-3.740109e+01	-5.869601e+02
4.600000e-07	-5.078141e-06	-8.873737e-09	-3.657785e+01	-5.814184e+02
4.700000e-07	-4.961785e-06	-8.779970e-09	-3.573974e+01	-5.757107e+02
4.800000e-07	-4.843553e-06	-8.689461e-09	-3.488811e+01	-5.698431e+02
4.900000e-07	-4.723598e-06	-8.596107e-09	-3.402407e+01	-5.638187e+02
5.000000e-07	-4.601971e-06	-8.502808e-09	-3.314799e+01	-5.576360e+02
5.100000e-07	-4.478676e-06	-8.406785e-09	-3.225991e+01	-5.512881e+02
5.200000e-07	-4.353730e-06	-8.306930e-09	-3.135992e+01	-5.447629e+02
5.300000e-07	-4.227143e-06	-8.200072e-09	-3.044811e+01	-5.380434e+02
5.400000e-07	-4.099059e-06	-8.091152e-09	-2.952552e+01	-5.311100e+02
5.500000e-07	-3.969566e-06	-7.980117e-09	-2.859278e+01	-5.239422e+02
5.600000e-07	-3.838478e-06	-7.865592e-09	-2.764856e+01	-5.165206e+02
5.700000e-07	-3.705861e-06	-7.747520e-09	-2.669332e+01	-5.088297e+02
5.800000e-07	-3.571879e-06	-7.625749e-09	-2.572824e+01	-5.008586e+02
5.900000e-07	-3.436564e-06	-7.501156e-09	-2.475357e+01	-4.926024e+02
6.000000e-07	-3.300016e-06	-7.370498e-09	-2.377002e+01	-4.840612e+02
6.100000e-07	-3.162174e-06	-7.237559e-09	-2.277714e+01	-4.752392e+02
6.200000e-07	-3.023001e-06	-7.100136e-09	-2.177467e+01	-4.661423e+02
6.300000e-07	-2.882473e-06	-6.956760e-09	-2.076246e+01	-4.567758e+02
6.400000e-07	-2.740678e-06	-6.809223e-09	-1.974110e+01	-4.471409e+02
6.500000e-07	-2.597847e-06	-6.658382e-09	-1.871229e+01	-4.372330e+02
6.600000e-07	-2.454057e-06	-6.500571e-09	-1.767657e+01	-4.270397e+02
6.700000e-07	-2.309319e-06	-6.334733e-09	-1.663403e+01	-4.165407e+02
6.800000e-07	-2.163701e-06	-6.167161e-09	-1.558513e+01	-4.057082e+02
6.900000e-07	-2.017363e-06	-5.994718e-09	-1.453107e+01	-3.945094e+02
7.000000e-07	-1.870418e-06	-5.816291e-09	-1.347262e+01	-3.829091e+02
7.100000e-07	-1.722921e-06	-5.631444e-09	-1.241020e+01	-3.708735e+02
7.200000e-07	-1.574874e-06	-5.442950e-09	-1.134382e+01	-3.583737e+02
7.300000e-07	-1.426325e-06	-5.248855e-09	-1.027382e+01	-3.453879e+02
7.400000e-07	-1.277399e-06	-5.043554e-09	-9.201103e+00	-3.319034e+02
7.500000e-07	-1.128111e-06	-4.829916e-09	-8.125785e+00	-3.179162e+02
7.600000e-07	-9.784304e-07	-4.610779e-09	-7.047634e+00	-3.034289e+02
7.700000e-07	-8.284342e-07	-4.385882e-09	-5.967212e+00	-2.884466e+02
7.800000e-07	-6.781226e-07	-4.152439e-09	-4.884517e+00	-2.729727e+02
7.900000e-07	-5.275694e-07	-3.911307e-09	-3.800082e+00	-2.570020e+02
8.000000e-07	-3.768616e-07	-3.662841e-09	-2.714534e+00	-2.405164e+02
8.100000e-07	-2.259538e-07	-3.403781e-09	-1.627545e+00	-2.234797e+02
8.200000e-07	-7.490441e-08	-3.130551e-09	-5.395365e-01	-2.058358e+02
8.300000e-07	7.621659e-08	-2.847543e-09	5.489881e-01	-1.875094e+02
8.400000e-07	2.273429e-07	-2.553726e-09	1.637551e+00	-1.684090e+02
8.500000e-07	3.784189e-07	-2.243479e-09	2.725752e+00	-1.484344e+02
8.600000e-07	5.293675e-07	-1.917766e-09	3.813034e+00	-1.274861e+02
8.700000e-07	6.801249e-07	-1.582637e-09	4.898940e+00	-1.054763e+02
8.800000e-07	8.306746e-07	-1.235723e-09	5.983349e+00	-8.234209e+01
8.900000e-07	9.809444e-07	-8.703900e-10	7.065742e+00	-5.805640e+01
9.000000e-07	1.130835e-06	-4.885052e-10	8.145406e+00	-3.263846e+01
9.100000e-07	1.280327e-06	-9.053477e-11	9.222196e+00	-6.160334e+00
9.200000e-07	1.429448e-06	3.232289e-10	1.029632e+01	2.125033e+01
9.300000e-07	1.578147e-06	7.541398e-10	1.136739e+01	4.941236e+01
9.400000e-07	1.726314e-06	1.197058e-09	1.243464e+01	7.809779e+01
9.500000e-07	1.873825e-06	1.645253e-09	1.349716e+01	1.070429e+02
9.600000e-07	2.020610e-06	2.092138e-09	1.455446e+01	1.359626e+02
9.700000e-07	2.166694e-06	2.530536e-09	1.560670e+01	1.645669e+02
9.800000e-07	2.312029e-06	2.957512e-09	1.665355e+01	1.925780e+02
9.900000e-07	2.456464e-06	3.368331e-09	1.769391e+01	2.197459e+02
1.000000e-06	2.599901e-06	3.761543e-09	1.872709e+01	2.458619e+02
1.010000e-06	2.742306e-06	4.134953e-09	1.975283e+01	2.707684e+02
1.020000e-06	2.883670e-06	4.489594e-09	2.077107e+01	2.943638e+02
1.030000e-06	3.023868e-06	4.824767e-09	2.178092e+01	3.166027e+02
1.040000e-06	3.162712e-06	5.140575e-09	2.278101e+01	3.374920e+02
1.050000e-06	3.300295e-06	5.438362e-09	2.377202e+01	3.570829e+02
1.060000e-06	3.436706e-06	5.718322e-09	2.475460e+01	3.754598e+02
1.070000e-06	3.571800e-06	5.984384e-09	2.572767e+01	3.927286e+02
1.080000e-06	3.705566e-06	6.235655e-09	2.669119e+01	4.090039e+02
1.090000e-06	3.838113e-06	6.472617e-09	2.764593e+01	4.243984e+02
1.100000e-06	3.969250e-06	6.696238e-09	2.859050e+01	4.390136e+02
1.110000e-06	4.098878e-06	6.908325e-09	2.952422e+01	4.529339e+02
1.120000e-06	4.227099e-06	7.110491e-09	3.044779e+01	4.662235e+02
1.130000e-06	4.353831e-06	7.301481e-09	3.136064e+01	4.789268e+02
1.140000e-06	4.479127e-06	7.483350e-09	3.226315e+01	4.910707e+02
1.150000e-06	4.602937e-06	7.657412e-09	3.315496e+01	5.026689e+02
1.160000e-06	4.725050e-06	7.822755e-09	3.403453e+01	5.137277e+02
1.170000e-06	4.845459e-06	7.979873e-09	3.490184e+01	5.242507e+02
1.180000e-06	4.964167e-06	8.130005e-09	3.575690e+01	5.342436e+02
1.190000e-06	5.081042e-06	8.275575e-09	3.659874e+01	5.437180e+02
1.200000e-06	5.195844e-06	8.414963e-09	3.742566e+01	5.526921e+02
1.210000e-06	5.308552e-06	8.546927e-09	3.823750e+01	5.611919e+02
1.220000e-06	5.419362e-06	8.671987e-09	3.903566e+01	5.692487e+02
1.230000e-06	5.528409e-06	8.791933e-09	3.982113e+01	5.768976e+02
1.240000e-06	5.635561e-06	8.907325e-09	4.059295e+01	5.841740e+02
1.250000e-06	5.740540e-06	9.015029e-09	4.134911e+01	5.911112e+02
1.260000e-06	5.843360e-06	9.115122e-09	4.208972e+01	5.977379e+02
1.270000e-06	5.944142e-06	9.210251e-09	4.281566e+01	6.040769e+02
1.280000e-06	6.042753e-06	9.300488e-09	4.352595e+01	6.101446e+02
1.290000e-06	6.139000e-06	9.386650e-09	4.421921e+01	6.159518e+02
1.300000e-06	6.232978e-06	9.468786e-09	4.489614e+01	6.215049e+02
1.310000e-06	6.324787e-06	9.546463e-09	4.555744e+01	6.268082e+02
1.320000e-06	6.414314e-06	9.621374e-09	4.620230e+01	6.318653e+02
1.330000e-06	6.501500e-06	9.694024e-09	4.683030e+01	6.366813e+02
1.340000e-06	6.586422e-06	9.764665e-09	4.744199e+01	6.412638e+02
1.350000e-06	6.669094e-06	9.831764e-09	4.803749e+01	6.456231e+02
1.360000e-06	6.749329e-06	9.896283e-09	4.861542e+01	6.497720e+02
1.370000e-06	6.827028e-06	9.957653e-09	4.917508e+01	6.537244e+02
1.380000e-06	6.902132e-06	1.001607e-08	4.971606e+01	6.574943e+02
1.390000e-06	6.974629e-06	1.007212e-08	5.023826e+01	6.610935e+02
1.400000e-06	7.044680e-06	1.012416e-08	5.074283e+01	6.645305e+02
1.410000e-06	7.112263e-06	1.017386e-08	5.122963e+01	6.678094e+02
1.420000e-06	7.177238e-06	1.022158e-08	5.169765e+01	6.709298e+02
1.430000e-06	7.239672e-06	1.026513e-08	5.214736e+01	6.738868e+02
1.440000e-06	7.299684e-06	1.030419e-08	5.257962e+01	6.766726e+02
1.450000e-06	7.357106e-06	1.034167e-08	5.299323e+01	6.792783e+02
1.460000e-06	7.411905e-06	1.037810e-08	5.338795e+01	6.816955e+02
1.470000e-06	7.463879e-06	1.041205e-08	5.376232e+01	6.839182e+02
1.480000e-06	7.512745e-06	1.044284e-08	5.411430e+01	6.859450e+02
1.490000e-06	7.558745e-06	1.047174e-08	5.444564e+01	6.877793e+02
1.500000e-06	7.602123e-06	1.049857e-08	5.475810e+01	6.894299e+02
1.510000e-06	7.642766e-06	1.052332e-08	5.505084e+01	6.909102e+02
1.520000e-06	7.680681e-06	1.054523e-08	5.532394e+01	6.922368e+02
1.530000e-06	7.715990e-06	1.056240e-08	5.557828e+01	6.934280e+02
1.540000e-06	7.748568e-06	1.057741e-08	5.581293e+01	6.945012e+02
1.550000e-06	7.778408e-06	1.059214e-08	5.602787e+01	6.954711e+02
1.560000e-06	7.805470e-06	1.060679e-08	5.622280e+01	6.963483e+02
1.570000e-06	7.829615e-06	1.062066e-08	5.639671e+01	6.971383e+02
1.580000e-06	7.850966e-06	1.063246e-08	5.655051e+01	6.978410e+02
1.590000e-06	7.869601e-06	1.064281e-08	5.668473e+01	6.984518e+02
1.600000e-06	7.885313e-06	1.065192e-08	5.679791e+01	6.989625e+02
1.610000e-06	7.898009e-06	1.065840e-08	5.688936e+01	6.993630e+02
1.620000e-06	7.907599e-06	1.066278e-08	5.695843e+01	6.996435e+02
1.630000e-06	7.914194e-06	1.066610e-08	5.700594e+01	6.997962e+02
1.640000e-06	7.918078e-06	1.066729e-08	5.703391e+01	6.998168e+02
1.650000e-06	7.919131e-06	1.066635e-08	5.704150e+01	6.997052e+02
1.660000e-06	7.917419e-06	1.066047e-08	5.702917e+01	6.994661e+02
1.670000e-06	7.913151e-06	1.065482e-08	5.699843e+01	6.991081e+02
1.680000e-06	7.906209e-06	1.065079e-08	5.694843e+01	6.986431e+02
1.690000e-06	7.896661e-06	1.064539e-08	5.687965e+01	6.980844e+02
1.700000e-06	7.884423e-06	1.063918e-08	5.679150e+01	6.974452e+02
1.710000e-06	7.869349e-06	1.063501e-08	5.668292e+01	6.967372e+02
1.720000e-06	7.851819e-06	1.062951e-08	5.655665e+01	6.959692e+02
1.730000e-06	7.832081e-06	1.060223e-08	5.641448e+01	6.951462e+02
1.740000e-06	7.809731e-06	1.051356e-08	5.625350e+01	6.942692e+02
1.750000e-06	7.784109e-06	1.048983e-08	5.606894e+01	6.933356e+02
1.760000e-06	7.754897e-06	1.051852e-08	5.585852e+01	6.923396e+02
1.770000e-06	7.722493e-06	1.050805e-08	5.562512e+01	6.912735e+02
1.780000e-06	7.687603e-06	1.049645e-08	5.537380e+01	6.901285e+02
1.790000e-06	7.650379e-06	1.055239e-08	5.510568e+01	6.888959e+02
1.800000e-06	7.610971e-06	1.053414e-08	5.482183e+01	6.875674e+02
1.810000e-06	7.569566e-06	1.041686e-08	5.452359e+01	6.861365e+02
1.820000e-06	7.525670e-06	1.046996e-08	5.420740e+01	6.845976e+02
1.830000e-06	7.479167e-06	1.041837e-08	5.387244e+01	6.829466e+02
1.840000e-06	7.429956e-06	1.039237e-08	5.351798e+01	6.811799e+02
1.850000e-06	7.377726e-06	1.041167e-08	5.314176e+01	6.792946e+02
1.860000e-06	7.322684e-06	1.033562e-08	5.274530e+01	6.772879e+02
1.870000e-06	7.264930e-06	1.035232e-08	5.232929e+01	6.751565e+02
1.880000e-06	7.204606e-06	1.024795e-08	5.189478e+01	6.728973e+02
1.890000e-06	7.141630e-06	1.022853e-08	5.144116e+01	6.705074e+02
1.900000e-06	7.075827e-06	1.022602e-08	5.096718e+01	6.679844e+02
1.910000e-06	7.007301e-06	1.012082e-08	5.047359e+01	6.653271e+02
1.920000e-06	6.936016e-06	1.012071e-08	4.996013e+01	6.625358e+02
1.930000e-06	6.862136e-06	1.006752e-08	4.942796e+01	6.596126e+02
1.940000e-06	6.785554e-06	1.002743e-08	4.887635e+01	6.565614e+02
1.950000e-06	6.706194e-06	9.956489e-09	4.830471e+01	6.533872e+02
1.960000e-06	6.624374e-06	9.906472e-09	4.771537e+01	6.500956e+02
1.970000e-06	6.540095e-06	9.889088e-09	4.710831e+01	6.466919e+02
1.980000e-06	6.453355e-06	9.800404e-09	4.648351e+01	6.431794e+02
1.990000e-06	6.364257e-06	9.772060e-09	4.584174e+01	6.395594e+02
2.000000e-06	6.272975e-06	9.720612e-09	4.518424e+01	6.358295e+02
2.010000e-06	6.179512e-06	9.653549e-09	4.451102e+01	6.319841e+02
2.020000e-06	6.083753e-06	9.570026e-09	4.382127e+01	6.280140e+02
2.030000e-06	5.985805e-06	9.510860e-09	4.311575e+01	6.239078e+02
2.040000e-06	5.885763e-06	9.463119e-09	4.239515e+01	6.196523e+02
2.050000e-06	5.783659e-06	9.386461e-09	4.165970e+01	6.152350e+02
2.060000e-06	5.679467e-06	9.320065e-09	4.090920e+01	6.106446e+02
2.070000e-06	5.573278e-06	9.248138e-09	4.014432e+01	6.058730e+02
2.080000e-06	5.465216e-06	9.168965e-09	3.936595e+01	6.009161e+02
2.090000e-06	5.355217e-06	9.071865e-09	3.857363e+01	5.957737e+02
2.100000e-06	5.243193e-06	8.999157e-09	3.776672e+01	5.904495e+02
2.110000e-06	5.129227e-06	8.925817e-09	3.694582e+01	5.849500e+02
2.120000e-06	5.013363e-06	8.841629e-09	3.611125e+01	5.792826e+02
2.130000e-06	4.895518e-06	8.750843e-09	3.526241e+01	5.734540e+02
2.140000e-06	4.775768e-06	8.661280e-09	3.439985e+01	5.674682e+02
2.150000e-06	4.654281e-06	8.567055e-09	3.352478e+01	5.613250e+02
2.160000e-06	4.531142e-06	8.464516e-09	3.263781e+01	5.550188e+02
2.170000e-06	4.406354e-06	8.367823e-09	3.173897e+01	5.485388e+02
2.180000e-06	4.279947e-06	8.271349e-09	3.082846e+01	5.418691e+02
2.190000e-06	4.151905e-06	8.171963e-09	2.990617e+01	5.349906e+02
2.200000e-06	4.022332e-06	8.062551e-09	2.897286e+01	5.278827e+02
2.210000e-06	3.891285e-06	7.948404e-09	2.802893e+01	5.205257e+02
2.220000e-06	3.758817e-06	7.825898e-09	2.707476e+01	5.129028e+02
2.230000e-06	3.624965e-06	7.704374e-09	2.611063e+01	5.050019e+02
2.240000e-06	3.489688e-06	7.584284e-09	2.513623e+01	4.968166e+02
2.250000e-06	3.353016e-06	7.461578e-09	2.415178e+01	4.883459e+02
2.260000e-06	3.215105e-06	7.330749e-09	2.315840e+01	4.795930e+02
2.270000e-06	3.076109e-06	7.194587e-09	2.215721e+01	4.705638e+02
2.280000e-06	2.935933e-06	7.051988e-09	2.114753e+01	4.612638e+02
2.290000e-06	2.794586e-06	6.901719e-09	2.012941e+01	4.516956e+02
2.300000e-06	2.652109e-06	6.751194e-09	1.910314e+01	4.418562e+02
2.310000e-06	2.508598e-06	6.600853e-09	1.806943e+01	4.317354e+02
2.320000e-06	2.364180e-06	6.447228e-09	1.702919e+01	4.213146e+02
2.330000e-06	2.218966e-06	6.284830e-09	1.598321e+01	4.105679e+02
2.340000e-06	2.073060e-06	6.115421e-09	1.493225e+01	3.994634e+02
2.350000e-06	1.926453e-06	5.938413e-09	1.387624e+01	3.879662e+02
2.360000e-06	1.779184e-06	5.752286e-09	1.281546e+01	3.760419e+02
2.370000e-06	1.631334e-06	5.558598e-09	1.175050e+01	3.636599e+02
2.380000e-06	1.482998e-06	5.360949e-09	1.068203e+01	3.507966e+02
2.390000e-06	1.334194e-06	5.160659e-09	9.610198e+00	3.374370e+02
2.400000e-06	1.184981e-06	4.953888e-09	8.535421e+00	3.235749e+02
2.410000e-06	1.035447e-06	4.736845e-09	7.458328e+00	3.092116e+02
2.420000e-06	8.856120e-07	4.509375e-09	6.379064e+00	2.943521e+02
2.430000e-06	7.355137e-07	4.273361e-09	5.297905e+00	2.790006e+02
2.440000e-06	5.851787e-07	4.031545e-09	4.215042e+00	2.631547e+02
2.450000e-06	4.345993e-07	3.783068e-09	3.130419e+00	2.467999e+02
2.460000e-06	2.838130e-07	3.525108e-09	2.044305e+00	2.299049e+02
2.470000e-06	1.328774e-07	3.254623e-09	9.571158e-01	2.124186e+02
2.480000e-06	-1.814026e-08	2.972700e-09	-1.306643e-01	1.942703e+02
2.490000e-06	-1.691887e-07	2.682084e-09	-1.218666e+00	1.753720e+02
2.500000e-06	-3.202437e-07	2.380600e-09	-2.306715e+00	1.556250e+02
2.510000e-06	-4.711781e-07	2.065264e-09	-3.393896e+00	1.349285e+02
2.520000e-06	-6.219146e-07	1.734687e-09	-4.479651e+00	1.131907e+02
2.530000e-06	-7.724358e-07	1.387256e-09	-5.563855e+00	9.034113e+01
2.540000e-06	-9.226682e-07	1.023990e-09	-6.645979e+00	6.634291e+01
2.550000e-06	-1.072571e-06	6.470896e-10	-7.725728e+00	4.120289e+01
2.560000e-06	-1.222167e-06	2.531683e-10	-8.803269e+00	1.497948e+01
2.570000e-06	-1.371377e-06	-1.600028e-10	-9.878029e+00	-1.221356e+01
2.580000e-06	-1.520094e-06	-5.888425e-10	-1.094924e+01	-4.020798e+01
2.590000e-06	-1.668286e-06	-1.028150e-09	-1.201666e+01	-6.878665e+01
2.600000e-06	-1.815882e-06	-1.473433e-09	-1.307980e+01	-9.769353e+01
2.610000e-06	-1.962742e-06	-1.921560e-09	-1.413763e+01	-1.266474e+02
2.620000e-06	-2.108821e-06	-2.368403e-09	-1.518984e+01	-1.553579e+02
2.630000e-06	-2.254195e-06	-2.804844e-09	-1.623697e+01	-1.835426e+02
2.640000e-06	-2.398818e-06	-3.223810e-09	-1.727869e+01	-2.109432e+02
2.650000e-06	-2.542482e-06	-3.624758e-09	-1.831350e+01	-2.373396e+02
2.660000e-06	-2.685005e-06	-4.007279e-09	-1.934009e+01	-2.625608e+02
2.670000e-06	-2.826369e-06	-4.370092e-09	-2.035834e+01	-2.864909e+02
2.680000e-06	-2.966623e-06	-4.711491e-09	-2.136859e+01	-3.090707e+02
2.690000e-06	-3.105682e-06	-5.030282e-09	-2.237023e+01	-3.302948e+02
2.700000e-06	-3.243501e-06	-5.329930e-09	-2.336294e+01	-3.502040e+02
2.710000e-06	-3.380187e-06	-5.615417e-09	-2.434749e+01	-3.688756e+02
2.720000e-06	-3.515660e-06	-5.887742e-09	-2.532330e+01	-3.864114e+02
2.730000e-06	-3.649773e-06	-6.145893e-09	-2.628931e+01	-4.029248e+02
2.740000e-06	-3.782603e-06	-6.389499e-09	-2.724609e+01	-4.185299e+02
2.750000e-06	-3.914087e-06	-6.620325e-09	-2.819317e+01	-4.333318e+02
2.760000e-06	-4.044143e-06	-6.839886e-09	-2.912996e+01	-4.474195e+02
2.770000e-06	-4.172904e-06	-7.048020e-09	-3.005743e+01	-4.608624e+02
2.780000e-06	-4.300191e-06	-7.246314e-09	-3.097428e+01	-4.737097e+02
2.790000e-06	-4.425888e-06	-7.432971e-09	-3.187967e+01	-4.859923e+02
2.800000e-06	-4.550117e-06	-7.606434e-09	-3.277450e+01	-4.977267e+02
2.810000e-06	-4.672743e-06	-7.769451e-09	-3.365777e+01	-5.089205e+02
2.820000e-06	-4.793694e-06	-7.927230e-09	-3.452898e+01	-5.195776e+02
2.830000e-06	-4.912864e-06	-8.081165e-09	-3.538736e+01	-5.297027e+02
2.840000e-06	-5.030063e-06	-8.229526e-09	-3.623155e+01	-5.393058e+02
2.850000e-06	-5.145273e-06	-8.371274e-09	-3.706140e+01	-5.484034e+02
2.860000e-06	-5.258404e-06	-8.505295e-09	-3.787628e+01	-5.570196e+02
2.870000e-06	-5.369391e-06	-8.633529e-09	-3.867572e+01	-5.651845e+02
2.880000e-06	-5.478383e-06	-8.754382e-09	-3.946079e+01	-5.729325e+02
2.890000e-06	-5.585552e-06	-8.865770e-09	-4.023273e+01	-5.802993e+02
2.900000e-06	-5.690907e-06	-8.969841e-09	-4.099160e+01	-5.873189e+02
2.910000e-06	-5.794142e-06	-9.069113e-09	-4.173520e+01	-5.940214e+02
2.920000e-06	-5.895049e-06	-9.166322e-09	-4.246204e+01	-6.004311e+02
2.930000e-06	-5.993812e-06	-9.260627e-09	-4.317343e+01	-6.065659e+02
2.940000e-06	-6.090560e-06	-9.351506e-09	-4.387030e+01	-6.124380e+02
