# Temperatura_=_31.61
# Concentracion g/m^3_=_10000.0
# C_Vs_to_Am_M_A/Vsm_=_65563218390.804596
# pendiente_HvsI_1/m_=_3716.3
# ordenada_HvsI_A/m_=_1297.0
# frecuencia_Hz_=_302627.747530918

Tiempo_(s)	Campo_(V.s)	Magnetizacion_(V.s)	Campo_(kA/m)	Magnetizacion_(A/m)
0.000000e+00	-7.938499e-06	-1.047604e-08	-5.681540e+01	-6.867595e+02
1.000000e-08	-7.934140e-06	-1.047462e-08	-5.678420e+01	-6.864096e+02
2.000000e-08	-7.927293e-06	-1.046902e-08	-5.673520e+01	-6.859487e+02
3.000000e-08	-7.917704e-06	-1.046162e-08	-5.666657e+01	-6.853910e+02
4.000000e-08	-7.905237e-06	-1.045301e-08	-5.657734e+01	-6.847519e+02
5.000000e-08	-7.889857e-06	-1.044474e-08	-5.646727e+01	-6.840465e+02
6.000000e-08	-7.871795e-06	-1.043735e-08	-5.633800e+01	-6.832875e+02
7.000000e-08	-7.851534e-06	-1.043469e-08	-5.619299e+01	-6.824840e+02
8.000000e-08	-7.828815e-06	-1.043193e-08	-5.603039e+01	-6.816406e+02
9.000000e-08	-7.802990e-06	-1.044391e-08	-5.584556e+01	-6.807569e+02
1.000000e-07	-7.773959e-06	-1.042404e-08	-5.563779e+01	-6.798282e+02
1.100000e-07	-7.742060e-06	-1.037309e-08	-5.540950e+01	-6.788458e+02
1.200000e-07	-7.707407e-06	-1.034500e-08	-5.516148e+01	-6.777986e+02
1.300000e-07	-7.670134e-06	-1.032154e-08	-5.489472e+01	-6.766742e+02
1.400000e-07	-7.630648e-06	-1.028222e-08	-5.461212e+01	-6.754607e+02
1.500000e-07	-7.589004e-06	-1.024136e-08	-5.431408e+01	-6.741473e+02
1.600000e-07	-7.544839e-06	-1.026601e-08	-5.399799e+01	-6.727253e+02
1.700000e-07	-7.497910e-06	-1.025904e-08	-5.366212e+01	-6.711890e+02
1.800000e-07	-7.448168e-06	-1.018623e-08	-5.330612e+01	-6.695348e+02
1.900000e-07	-7.395508e-06	-1.019026e-08	-5.292924e+01	-6.677615e+02
2.000000e-07	-7.339982e-06	-1.013656e-08	-5.253184e+01	-6.658695e+02
2.100000e-07	-7.281738e-06	-1.007228e-08	-5.211500e+01	-6.638597e+02
2.200000e-07	-7.220865e-06	-1.008484e-08	-5.167933e+01	-6.617335e+02
2.300000e-07	-7.157430e-06	-1.005966e-08	-5.122533e+01	-6.594918e+02
2.400000e-07	-7.091294e-06	-1.002060e-08	-5.075200e+01	-6.571348e+02
2.500000e-07	-7.022412e-06	-9.964663e-09	-5.025902e+01	-6.546621e+02
2.600000e-07	-6.950803e-06	-9.937725e-09	-4.974651e+01	-6.520729e+02
2.700000e-07	-6.876405e-06	-9.895123e-09	-4.921405e+01	-6.493661e+02
2.800000e-07	-6.799238e-06	-9.851535e-09	-4.866177e+01	-6.465409e+02
2.900000e-07	-6.719343e-06	-9.824473e-09	-4.808997e+01	-6.435968e+02
3.000000e-07	-6.636961e-06	-9.771843e-09	-4.750036e+01	-6.405341e+02
3.100000e-07	-6.552308e-06	-9.723516e-09	-4.689450e+01	-6.373534e+02
3.200000e-07	-6.465366e-06	-9.659542e-09	-4.627227e+01	-6.340554e+02
3.300000e-07	-6.376084e-06	-9.605277e-09	-4.563328e+01	-6.306406e+02
3.400000e-07	-6.284447e-06	-9.552852e-09	-4.497744e+01	-6.271085e+02
3.500000e-07	-6.190516e-06	-9.498182e-09	-4.430518e+01	-6.234573e+02
3.600000e-07	-6.094312e-06	-9.449856e-09	-4.361666e+01	-6.196831e+02
3.700000e-07	-5.995870e-06	-9.393395e-09	-4.291211e+01	-6.157806e+02
3.800000e-07	-5.895307e-06	-9.330493e-09	-4.219239e+01	-6.117423e+02
3.900000e-07	-5.792693e-06	-9.261136e-09	-4.145798e+01	-6.075597e+02
4.000000e-07	-5.688061e-06	-9.193026e-09	-4.070914e+01	-6.032237e+02
4.100000e-07	-5.581449e-06	-9.114223e-09	-3.994612e+01	-5.987256e+02
4.200000e-07	-5.472839e-06	-9.044672e-09	-3.916880e+01	-5.940577e+02
4.300000e-07	-5.362223e-06	-8.988262e-09	-3.837713e+01	-5.892140e+02
4.400000e-07	-5.249619e-06	-8.921276e-09	-3.757123e+01	-5.841906e+02
4.500000e-07	-5.134995e-06	-8.833317e-09	-3.675088e+01	-5.789857e+02
4.600000e-07	-5.018353e-06	-8.744686e-09	-3.591607e+01	-5.735993e+02
4.700000e-07	-4.899863e-06	-8.661419e-09	-3.506804e+01	-5.680320e+02
4.800000e-07	-4.779622e-06	-8.571366e-09	-3.420749e+01	-5.622845e+02
4.900000e-07	-4.657647e-06	-8.482291e-09	-3.333452e+01	-5.563562e+02
5.000000e-07	-4.533949e-06	-8.393616e-09	-3.244922e+01	-5.502445e+02
5.100000e-07	-4.408578e-06	-8.296984e-09	-3.155194e+01	-5.439440e+02
5.200000e-07	-4.281603e-06	-8.189088e-09	-3.064319e+01	-5.374463e+02
5.300000e-07	-4.153055e-06	-8.083995e-09	-2.972319e+01	-5.307402e+02
5.400000e-07	-4.023034e-06	-7.981186e-09	-2.879263e+01	-5.238127e+02
5.500000e-07	-3.891510e-06	-7.873744e-09	-2.785132e+01	-5.166494e+02
5.600000e-07	-3.758492e-06	-7.760765e-09	-2.689932e+01	-5.092366e+02
5.700000e-07	-3.623982e-06	-7.645332e-09	-2.593664e+01	-5.015620e+02
5.800000e-07	-3.487987e-06	-7.523775e-09	-2.496333e+01	-4.936156e+02
5.900000e-07	-3.350664e-06	-7.393598e-09	-2.398052e+01	-4.853906e+02
6.000000e-07	-3.212111e-06	-7.260226e-09	-2.298890e+01	-4.768830e+02
6.100000e-07	-3.072214e-06	-7.125478e-09	-2.198766e+01	-4.680910e+02
6.200000e-07	-2.930844e-06	-6.990699e-09	-2.097589e+01	-4.590136e+02
6.300000e-07	-2.788258e-06	-6.853158e-09	-1.995541e+01	-4.496495e+02
6.400000e-07	-2.644704e-06	-6.710962e-09	-1.892800e+01	-4.399947e+02
6.500000e-07	-2.500263e-06	-6.557003e-09	-1.789424e+01	-4.300417e+02
6.600000e-07	-2.354967e-06	-6.393641e-09	-1.685437e+01	-4.197778e+02
6.700000e-07	-2.208766e-06	-6.226636e-09	-1.580802e+01	-4.091855e+02
6.800000e-07	-2.061784e-06	-6.056503e-09	-1.475607e+01	-3.982423e+02
6.900000e-07	-1.914149e-06	-5.882275e-09	-1.369946e+01	-3.869226e+02
7.000000e-07	-1.765896e-06	-5.704226e-09	-1.263842e+01	-3.751993e+02
7.100000e-07	-1.617131e-06	-5.522265e-09	-1.157371e+01	-3.630463e+02
7.200000e-07	-1.467916e-06	-5.330028e-09	-1.050580e+01	-3.504407e+02
7.300000e-07	-1.318270e-06	-5.131271e-09	-9.434788e+00	-3.373649e+02
7.400000e-07	-1.168125e-06	-4.926899e-09	-8.360207e+00	-3.238072e+02
7.500000e-07	-1.017438e-06	-4.714787e-09	-7.281745e+00	-3.097620e+02
7.600000e-07	-8.663386e-07	-4.494814e-09	-6.200337e+00	-2.952283e+02
7.700000e-07	-7.149026e-07	-4.267531e-09	-5.116518e+00	-2.802070e+02
7.800000e-07	-5.631996e-07	-4.032295e-09	-4.030788e+00	-2.646973e+02
7.900000e-07	-4.113707e-07	-3.788202e-09	-2.944157e+00	-2.486927e+02
8.000000e-07	-2.594699e-07	-3.536168e-09	-1.857012e+00	-2.321773e+02
8.100000e-07	-1.074614e-07	-3.275073e-09	-7.690955e-01	-2.151220e+02
8.200000e-07	4.467632e-08	-3.006207e-09	3.197459e-01	-1.974837e+02
8.300000e-07	1.968414e-07	-2.728019e-09	1.408783e+00	-1.792050e+02
8.400000e-07	3.489219e-07	-2.437300e-09	2.497215e+00	-1.602173e+02
8.500000e-07	5.009229e-07	-2.131413e-09	3.585077e+00	-1.404455e+02
8.600000e-07	6.528478e-07	-1.813141e-09	4.672396e+00	-1.198158e+02
8.700000e-07	8.046355e-07	-1.483342e-09	5.758732e+00	-9.826355e+01
8.800000e-07	9.562214e-07	-1.139748e-09	6.843623e+00	-7.574374e+01
8.900000e-07	1.107473e-06	-7.832294e-10	7.926125e+00	-5.223954e+01
9.000000e-07	1.258171e-06	-4.134473e-10	9.004662e+00	-2.777050e+01
9.100000e-07	1.408267e-06	-3.144080e-11	1.007889e+01	-2.398141e+00
9.200000e-07	1.557817e-06	3.647535e-10	1.114921e+01	2.377148e+01
9.300000e-07	1.706887e-06	7.742145e-10	1.221609e+01	5.058885e+01
9.400000e-07	1.855415e-06	1.193006e-09	1.327910e+01	7.786578e+01
9.500000e-07	2.003231e-06	1.615001e-09	1.433701e+01	1.053836e+02
9.600000e-07	2.150262e-06	2.035871e-09	1.538931e+01	1.329043e+02
9.700000e-07	2.296512e-06	2.453585e-09	1.643601e+01	1.601835e+02
9.800000e-07	2.441931e-06	2.863684e-09	1.747677e+01	1.869836e+02
9.900000e-07	2.586442e-06	3.261078e-09	1.851102e+01	2.130876e+02
1.000000e-06	2.729991e-06	3.641870e-09	1.953840e+01	2.383096e+02
1.010000e-06	2.872473e-06	4.006257e-09	2.055813e+01	2.625038e+02
1.020000e-06	3.013816e-06	4.352888e-09	2.156972e+01	2.855693e+02
1.030000e-06	3.153909e-06	4.681622e-09	2.257235e+01	3.074515e+02
1.040000e-06	3.292711e-06	4.994319e-09	2.356575e+01	3.281395e+02
1.050000e-06	3.430302e-06	5.292160e-09	2.455048e+01	3.476608e+02
1.060000e-06	3.566599e-06	5.575054e-09	2.552595e+01	3.660728e+02
1.070000e-06	3.701480e-06	5.841635e-09	2.649129e+01	3.834535e+02
1.080000e-06	3.835045e-06	6.092841e-09	2.744720e+01	3.998915e+02
1.090000e-06	3.967284e-06	6.329899e-09	2.839363e+01	4.154769e+02
1.100000e-06	4.098017e-06	6.555072e-09	2.932928e+01	4.302934e+02
1.110000e-06	4.227317e-06	6.769133e-09	3.025467e+01	4.444126e+02
1.120000e-06	4.355246e-06	6.972252e-09	3.117025e+01	4.578911e+02
1.130000e-06	4.481627e-06	7.168032e-09	3.207476e+01	4.707698e+02
1.140000e-06	4.606449e-06	7.356649e-09	3.296810e+01	4.830754e+02
1.150000e-06	4.729650e-06	7.534067e-09	3.384984e+01	4.948231e+02
1.160000e-06	4.851215e-06	7.699881e-09	3.471988e+01	5.060215e+02
1.170000e-06	4.971083e-06	7.857489e-09	3.557777e+01	5.166761e+02
1.180000e-06	5.089078e-06	8.009594e-09	3.642225e+01	5.267937e+02
1.190000e-06	5.205104e-06	8.156397e-09	3.725264e+01	5.363851e+02
1.200000e-06	5.319099e-06	8.296828e-09	3.806850e+01	5.454671e+02
1.210000e-06	5.431091e-06	8.430975e-09	3.887001e+01	5.540627e+02
1.220000e-06	5.541117e-06	8.559208e-09	3.965747e+01	5.622005e+02
1.230000e-06	5.649227e-06	8.682029e-09	4.043120e+01	5.699127e+02
1.240000e-06	5.755351e-06	8.797682e-09	4.119073e+01	5.772330e+02
1.250000e-06	5.859379e-06	8.904221e-09	4.193525e+01	5.841942e+02
1.260000e-06	5.961250e-06	9.002918e-09	4.266433e+01	5.908258e+02
1.270000e-06	6.060915e-06	9.097549e-09	4.337763e+01	5.971529e+02
1.280000e-06	6.158306e-06	9.186803e-09	4.407465e+01	6.031953e+02
1.290000e-06	6.253387e-06	9.270246e-09	4.475514e+01	6.089675e+02
1.300000e-06	6.346222e-06	9.349770e-09	4.541956e+01	6.144798e+02
1.310000e-06	6.436754e-06	9.429264e-09	4.606749e+01	6.197394e+02
1.320000e-06	6.524907e-06	9.508637e-09	4.669840e+01	6.247520e+02
1.330000e-06	6.610788e-06	9.583702e-09	4.731304e+01	6.295233e+02
1.340000e-06	6.694408e-06	9.654293e-09	4.791151e+01	6.340599e+02
1.350000e-06	6.775632e-06	9.719682e-09	4.849282e+01	6.383701e+02
1.360000e-06	6.854364e-06	9.781511e-09	4.905630e+01	6.424636e+02
1.370000e-06	6.930526e-06	9.840224e-09	4.960139e+01	6.463513e+02
1.380000e-06	7.004075e-06	9.896367e-09	5.012778e+01	6.500438e+02
1.390000e-06	7.075105e-06	9.951168e-09	5.063613e+01	6.535506e+02
1.400000e-06	7.143686e-06	1.000297e-08	5.112697e+01	6.568791e+02
1.410000e-06	7.209692e-06	1.005256e-08	5.159936e+01	6.600337e+02
1.420000e-06	7.273048e-06	1.009925e-08	5.205280e+01	6.630155e+02
1.430000e-06	7.333929e-06	1.014242e-08	5.248852e+01	6.658228e+02
1.440000e-06	7.392265e-06	1.018334e-08	5.290603e+01	6.684517e+02
1.450000e-06	7.447906e-06	1.021979e-08	5.330425e+01	6.708976e+02
1.460000e-06	7.500744e-06	1.025251e-08	5.368241e+01	6.731565e+02
1.470000e-06	7.550517e-06	1.028319e-08	5.403863e+01	6.752266e+02
1.480000e-06	7.597374e-06	1.031255e-08	5.437398e+01	6.771095e+02
1.490000e-06	7.641663e-06	1.033867e-08	5.469096e+01	6.788105e+02
1.500000e-06	7.683236e-06	1.036231e-08	5.498849e+01	6.803394e+02
1.510000e-06	7.721997e-06	1.038456e-08	5.526590e+01	6.817092e+02
1.520000e-06	7.758135e-06	1.040357e-08	5.552454e+01	6.829354e+02
1.530000e-06	7.791514e-06	1.042146e-08	5.576343e+01	6.840342e+02
1.540000e-06	7.822041e-06	1.043765e-08	5.598191e+01	6.850208e+02
1.550000e-06	7.849885e-06	1.045175e-08	5.618119e+01	6.859077e+02
1.560000e-06	7.874888e-06	1.046476e-08	5.636014e+01	6.867035e+02
1.570000e-06	7.896978e-06	1.047630e-08	5.651824e+01	6.874118e+02
1.580000e-06	7.916333e-06	1.048673e-08	5.665675e+01	6.880315e+02
1.590000e-06	7.932826e-06	1.049498e-08	5.677480e+01	6.885572e+02
1.600000e-06	7.946281e-06	1.050166e-08	5.687109e+01	6.889805e+02
1.610000e-06	7.956608e-06	1.050785e-08	5.694500e+01	6.892915e+02
1.620000e-06	7.963903e-06	1.051331e-08	5.699721e+01	6.894810e+02
1.630000e-06	7.968417e-06	1.051639e-08	5.702952e+01	6.895421e+02
1.640000e-06	7.970091e-06	1.051576e-08	5.704150e+01	6.894714e+02
1.650000e-06	7.968935e-06	1.051256e-08	5.703322e+01	6.892702e+02
1.660000e-06	7.965234e-06	1.050472e-08	5.700674e+01	6.889449e+02
1.670000e-06	7.958908e-06	1.049728e-08	5.696146e+01	6.885057e+02
1.680000e-06	7.949871e-06	1.049165e-08	5.689679e+01	6.879665e+02
1.690000e-06	7.938157e-06	1.048661e-08	5.681295e+01	6.873427e+02
1.700000e-06	7.923610e-06	1.047977e-08	5.670884e+01	6.866494e+02
1.710000e-06	7.906464e-06	1.046686e-08	5.658612e+01	6.859000e+02
1.720000e-06	7.887074e-06	1.043943e-08	5.644735e+01	6.851046e+02
1.730000e-06	7.865199e-06	1.039656e-08	5.629079e+01	6.842687e+02
1.740000e-06	7.840168e-06	1.035138e-08	5.611165e+01	6.833930e+02
1.750000e-06	7.811529e-06	1.036425e-08	5.590668e+01	6.824736e+02
1.760000e-06	7.779542e-06	1.037352e-08	5.567775e+01	6.815027e+02
1.770000e-06	7.744932e-06	1.036035e-08	5.543005e+01	6.804695e+02
1.780000e-06	7.708030e-06	1.036438e-08	5.516594e+01	6.793618e+02
1.790000e-06	7.668812e-06	1.038703e-08	5.488526e+01	6.781674e+02
1.800000e-06	7.627534e-06	1.033733e-08	5.458984e+01	6.768753e+02
1.810000e-06	7.583943e-06	1.028935e-08	5.427786e+01	6.754763e+02
1.820000e-06	7.537674e-06	1.031664e-08	5.394671e+01	6.739639e+02
1.830000e-06	7.488722e-06	1.025671e-08	5.359637e+01	6.723342e+02
1.840000e-06	7.436797e-06	1.026334e-08	5.322475e+01	6.705856e+02
1.850000e-06	7.381948e-06	1.024329e-08	5.283219e+01	6.687180e+02
1.860000e-06	7.324386e-06	1.018685e-08	5.242022e+01	6.667324e+02
1.870000e-06	7.264218e-06	1.014983e-08	5.198961e+01	6.646301e+02
1.880000e-06	7.201382e-06	1.007815e-08	5.153989e+01	6.624122e+02
1.890000e-06	7.135670e-06	1.009560e-08	5.106959e+01	6.600790e+02
1.900000e-06	7.067206e-06	1.004555e-08	5.057960e+01	6.576303e+02
1.910000e-06	6.996009e-06	1.001242e-08	5.007004e+01	6.550652e+02
1.920000e-06	6.922140e-06	9.984371e-09	4.954137e+01	6.523828e+02
1.930000e-06	6.845568e-06	9.896939e-09	4.899335e+01	6.495821e+02
1.940000e-06	6.766183e-06	9.860569e-09	4.842520e+01	6.466626e+02
1.950000e-06	6.684271e-06	9.800748e-09	4.783896e+01	6.436243e+02
1.960000e-06	6.599942e-06	9.788185e-09	4.723542e+01	6.404679e+02
1.970000e-06	6.513183e-06	9.739428e-09	4.661449e+01	6.371941e+02
1.980000e-06	6.424025e-06	9.681321e-09	4.597639e+01	6.338034e+02
1.990000e-06	6.332654e-06	9.640584e-09	4.532245e+01	6.302956e+02
2.000000e-06	6.239108e-06	9.555633e-09	4.465295e+01	6.266692e+02
2.010000e-06	6.143236e-06	9.498235e-09	4.396680e+01	6.229209e+02
2.020000e-06	6.045139e-06	9.438840e-09	4.326472e+01	6.190455e+02
2.030000e-06	5.944849e-06	9.394103e-09	4.254695e+01	6.150361e+02
2.040000e-06	5.842471e-06	9.326129e-09	4.181424e+01	6.108843e+02
2.050000e-06	5.738042e-06	9.264146e-09	4.106684e+01	6.065810e+02
2.060000e-06	5.631625e-06	9.201567e-09	4.030522e+01	6.021175e+02
2.070000e-06	5.523290e-06	9.116114e-09	3.952988e+01	5.974856e+02
2.080000e-06	5.413017e-06	9.028992e-09	3.874066e+01	5.926790e+02
2.090000e-06	5.300786e-06	8.951439e-09	3.793743e+01	5.876934e+02
2.100000e-06	5.186543e-06	8.886682e-09	3.711980e+01	5.825266e+02
2.110000e-06	5.070324e-06	8.807401e-09	3.628803e+01	5.771781e+02
2.120000e-06	4.952158e-06	8.731748e-09	3.544232e+01	5.716486e+02
2.130000e-06	4.832050e-06	8.643830e-09	3.458271e+01	5.659387e+02
2.140000e-06	4.710088e-06	8.549308e-09	3.370984e+01	5.600484e+02
2.150000e-06	4.586438e-06	8.448923e-09	3.282488e+01	5.539755e+02
2.160000e-06	4.461094e-06	8.358434e-09	3.192780e+01	5.477151e+02
2.170000e-06	4.334170e-06	8.269024e-09	3.101941e+01	5.412596e+02
2.180000e-06	4.205655e-06	8.169164e-09	3.009964e+01	5.345983e+02
2.190000e-06	4.075587e-06	8.061280e-09	2.916875e+01	5.277185e+02
2.200000e-06	3.944015e-06	7.947121e-09	2.822710e+01	5.206060e+02
2.210000e-06	3.810949e-06	7.831126e-09	2.727475e+01	5.132469e+02
2.220000e-06	3.676529e-06	7.715461e-09	2.631271e+01	5.056284e+02
2.230000e-06	3.540732e-06	7.604555e-09	2.534083e+01	4.977400e+02
2.240000e-06	3.403526e-06	7.486374e-09	2.435885e+01	4.895742e+02
2.250000e-06	3.264960e-06	7.358570e-09	2.336714e+01	4.811265e+02
2.260000e-06	3.125193e-06	7.223929e-09	2.236683e+01	4.723945e+02
2.270000e-06	2.984266e-06	7.085111e-09	2.135823e+01	4.633775e+02
2.280000e-06	2.842187e-06	6.936976e-09	2.034138e+01	4.540741e+02
2.290000e-06	2.699071e-06	6.788407e-09	1.931710e+01	4.444812e+02
2.300000e-06	2.554993e-06	6.639361e-09	1.828595e+01	4.345920e+02
2.310000e-06	2.409957e-06	6.489000e-09	1.724793e+01	4.243952e+02
2.320000e-06	2.264094e-06	6.335169e-09	1.620400e+01	4.138741e+02
2.330000e-06	2.117503e-06	6.173542e-09	1.515485e+01	4.030072e+02
2.340000e-06	1.970123e-06	6.001112e-09	1.410006e+01	3.917696e+02
2.350000e-06	1.822018e-06	5.818272e-09	1.304008e+01	3.801341e+02
2.360000e-06	1.673306e-06	5.631268e-09	1.197576e+01	3.680743e+02
2.370000e-06	1.524096e-06	5.439195e-09	1.090787e+01	3.555665e+02
2.380000e-06	1.374418e-06	5.242241e-09	9.836634e+00	3.425917e+02
2.390000e-06	1.224270e-06	5.037477e-09	8.762032e+00	3.291370e+02
2.400000e-06	1.073757e-06	4.822981e-09	7.684820e+00	3.151956e+02
2.410000e-06	9.229727e-07	4.599303e-09	6.605664e+00	3.007656e+02
2.420000e-06	7.719576e-07	4.370976e-09	5.524857e+00	2.858478e+02
2.430000e-06	6.207475e-07	4.141080e-09	4.442655e+00	2.704421e+02
2.440000e-06	4.693186e-07	3.905202e-09	3.358887e+00	2.545437e+02
2.450000e-06	3.176737e-07	3.657395e-09	2.273573e+00	2.381387e+02
2.460000e-06	1.658211e-07	3.395153e-09	1.186773e+00	2.212014e+02
2.470000e-06	1.382701e-08	3.122154e-09	9.895912e-02	2.036915e+02
2.480000e-06	-1.381564e-07	2.841322e-09	-9.887774e-01	1.855545e+02
2.490000e-06	-2.900888e-07	2.551854e-09	-2.076149e+00	1.667240e+02
2.500000e-06	-4.419364e-07	2.250566e-09	-3.162915e+00	1.471257e+02
2.510000e-06	-5.936180e-07	1.937167e-09	-4.248491e+00	1.266848e+02
2.520000e-06	-7.450768e-07	1.614091e-09	-5.332473e+00	1.053339e+02
2.530000e-06	-8.962959e-07	1.279975e-09	-6.414740e+00	8.302306e+01
2.540000e-06	-1.047238e-06	9.325498e-10	-7.495023e+00	5.972858e+01
2.550000e-06	-1.197864e-06	5.674594e-10	-8.573043e+00	3.546169e+01
2.560000e-06	-1.348089e-06	1.830907e-10	-9.648195e+00	1.027458e+01
2.570000e-06	-1.497836e-06	-2.153958e-10	-1.071993e+01	-1.573626e+01
2.580000e-06	-1.647086e-06	-6.246379e-10	-1.178810e+01	-4.243038e+01
2.590000e-06	-1.795800e-06	-1.041398e-09	-1.285244e+01	-6.962726e+01
2.600000e-06	-1.943890e-06	-1.465104e-09	-1.391231e+01	-9.711396e+01
2.610000e-06	-2.091186e-06	-1.893649e-09	-1.496650e+01	-1.246555e+02
2.620000e-06	-2.237586e-06	-2.318281e-09	-1.601428e+01	-1.520078e+02
2.630000e-06	-2.383172e-06	-2.730027e-09	-1.705623e+01	-1.789306e+02
2.640000e-06	-2.527864e-06	-3.127133e-09	-1.809178e+01	-2.052016e+02
2.650000e-06	-2.671524e-06	-3.510934e-09	-1.911995e+01	-2.306272e+02
2.660000e-06	-2.814179e-06	-3.882296e-09	-2.014092e+01	-2.550526e+02
2.670000e-06	-2.955764e-06	-4.239275e-09	-2.115424e+01	-2.783671e+02
2.680000e-06	-3.096245e-06	-4.577915e-09	-2.215965e+01	-3.005061e+02
2.690000e-06	-3.235456e-06	-4.897537e-09	-2.315598e+01	-3.214498e+02
2.700000e-06	-3.373363e-06	-5.198242e-09	-2.414297e+01	-3.412181e+02
2.710000e-06	-3.509955e-06	-5.482954e-09	-2.512055e+01	-3.598627e+02
2.720000e-06	-3.645162e-06	-5.753699e-09	-2.608822e+01	-3.774580e+02
2.730000e-06	-3.779114e-06	-6.009525e-09	-2.704691e+01	-3.940913e+02
2.740000e-06	-3.911786e-06	-6.250797e-09	-2.799644e+01	-4.098530e+02
2.750000e-06	-4.043020e-06	-6.481493e-09	-2.893567e+01	-4.248287e+02
2.760000e-06	-4.172838e-06	-6.704502e-09	-2.986477e+01	-4.390929e+02
2.770000e-06	-4.301204e-06	-6.919129e-09	-3.078348e+01	-4.527056e+02
2.780000e-06	-4.428005e-06	-7.122134e-09	-3.169098e+01	-4.657111e+02
2.790000e-06	-4.553374e-06	-7.310923e-09	-3.258824e+01	-4.781388e+02
2.800000e-06	-4.677190e-06	-7.487664e-09	-3.347439e+01	-4.900061e+02
2.810000e-06	-4.799323e-06	-7.656480e-09	-3.434849e+01	-5.013226e+02
2.820000e-06	-4.919732e-06	-7.818013e-09	-3.521025e+01	-5.120942e+02
2.830000e-06	-5.038223e-06	-7.972655e-09	-3.605828e+01	-5.223270e+02
2.840000e-06	-5.154694e-06	-8.119813e-09	-3.689186e+01	-5.320309e+02
2.850000e-06	-5.268997e-06	-8.257735e-09	-3.770992e+01	-5.412212e+02
2.860000e-06	-5.381173e-06	-8.390337e-09	-3.851275e+01	-5.499197e+02
2.870000e-06	-5.491354e-06	-8.518784e-09	-3.930132e+01	-5.581539e+02
2.880000e-06	-5.599572e-06	-8.641280e-09	-4.007583e+01	-5.659554e+02
2.890000e-06	-5.705893e-06	-8.756969e-09	-4.083676e+01	-5.733578e+02
2.900000e-06	-5.810179e-06	-8.864895e-09	-4.158313e+01	-5.803942e+02
2.910000e-06	-5.912289e-06	-8.965958e-09	-4.231393e+01	-5.870951e+02
2.920000e-06	-6.012218e-06	-9.060999e-09	-4.302911e+01	-5.934865e+02
2.930000e-06	-6.110018e-06	-9.152206e-09	-4.372906e+01	-5.995894e+02
2.940000e-06	-6.205650e-06	-9.240457e-09	-4.441349e+01	-6.054195e+02
