# Temperatura_=_35.58
# Concentracion g/m^3_=_10000.0
# C_Vs_to_Am_M_A/Vsm_=_65563218390.804596
# pendiente_HvsI_1/m_=_3716.3
# ordenada_HvsI_A/m_=_1297.0
# frecuencia_Hz_=_302619.9198448933

Tiempo_(s)	Campo_(V.s)	Magnetizacion_(V.s)	Campo_(kA/m)	Magnetizacion_(A/m)
0.000000e+00	-7.875553e-06	-1.011114e-08	-5.681512e+01	-6.621630e+02
1.000000e-08	-7.871174e-06	-1.011001e-08	-5.678353e+01	-6.618275e+02
2.000000e-08	-7.864336e-06	-1.010278e-08	-5.673420e+01	-6.613912e+02
3.000000e-08	-7.854803e-06	-1.009686e-08	-5.666543e+01	-6.608695e+02
4.000000e-08	-7.842384e-06	-1.009043e-08	-5.657584e+01	-6.602793e+02
5.000000e-08	-7.826969e-06	-1.007960e-08	-5.646463e+01	-6.596361e+02
6.000000e-08	-7.808888e-06	-1.006746e-08	-5.633419e+01	-6.589525e+02
7.000000e-08	-7.788648e-06	-1.005356e-08	-5.618818e+01	-6.582367e+02
8.000000e-08	-7.765930e-06	-1.006202e-08	-5.602429e+01	-6.574914e+02
9.000000e-08	-7.740092e-06	-1.010727e-08	-5.583789e+01	-6.567139e+02
1.000000e-07	-7.711036e-06	-1.007769e-08	-5.562828e+01	-6.558964e+02
1.100000e-07	-7.679153e-06	-1.001465e-08	-5.539827e+01	-6.550273e+02
1.200000e-07	-7.644590e-06	-9.986340e-09	-5.514892e+01	-6.540922e+02
1.300000e-07	-7.607535e-06	-9.957481e-09	-5.488161e+01	-6.530762e+02
1.400000e-07	-7.568300e-06	-9.909971e-09	-5.459856e+01	-6.519649e+02
1.500000e-07	-7.526901e-06	-9.881688e-09	-5.429991e+01	-6.507462e+02
1.600000e-07	-7.482995e-06	-9.955466e-09	-5.398316e+01	-6.494109e+02
1.700000e-07	-7.436376e-06	-9.898435e-09	-5.364684e+01	-6.479532e+02
1.800000e-07	-7.387012e-06	-9.828144e-09	-5.329073e+01	-6.463706e+02
1.900000e-07	-7.334679e-06	-9.863522e-09	-5.291319e+01	-6.446634e+02
2.000000e-07	-7.279501e-06	-9.765187e-09	-5.251514e+01	-6.428337e+02
2.100000e-07	-7.221649e-06	-9.729985e-09	-5.209778e+01	-6.408850e+02
2.200000e-07	-7.161157e-06	-9.735700e-09	-5.166139e+01	-6.388207e+02
2.300000e-07	-7.098104e-06	-9.700469e-09	-5.120652e+01	-6.366439e+02
2.400000e-07	-7.032313e-06	-9.672295e-09	-5.073189e+01	-6.343566e+02
2.500000e-07	-6.963822e-06	-9.628394e-09	-5.023779e+01	-6.319601e+02
2.600000e-07	-6.892762e-06	-9.619829e-09	-4.972516e+01	-6.294546e+02
2.700000e-07	-6.818975e-06	-9.569223e-09	-4.919285e+01	-6.268400e+02
2.800000e-07	-6.742415e-06	-9.521060e-09	-4.864053e+01	-6.241157e+02
2.900000e-07	-6.663085e-06	-9.474520e-09	-4.806824e+01	-6.212816e+02
3.000000e-07	-6.581154e-06	-9.432357e-09	-4.747718e+01	-6.183376e+02
3.100000e-07	-6.496955e-06	-9.397689e-09	-4.686976e+01	-6.152842e+02
3.200000e-07	-6.410533e-06	-9.323083e-09	-4.624630e+01	-6.121213e+02
3.300000e-07	-6.321805e-06	-9.280236e-09	-4.560621e+01	-6.088489e+02
3.400000e-07	-6.230768e-06	-9.227900e-09	-4.494946e+01	-6.054657e+02
3.500000e-07	-6.137549e-06	-9.169950e-09	-4.427696e+01	-6.019689e+02
3.600000e-07	-6.042123e-06	-9.118840e-09	-4.358855e+01	-5.983541e+02
3.700000e-07	-5.944395e-06	-9.069434e-09	-4.288353e+01	-5.946151e+02
3.800000e-07	-5.844476e-06	-9.013437e-09	-4.216270e+01	-5.907439e+02
3.900000e-07	-5.742516e-06	-8.941389e-09	-4.142715e+01	-5.867318e+02
4.000000e-07	-5.638582e-06	-8.878311e-09	-4.067736e+01	-5.825698e+02
4.100000e-07	-5.532605e-06	-8.805501e-09	-3.991283e+01	-5.782493e+02
4.200000e-07	-5.424575e-06	-8.744862e-09	-3.913349e+01	-5.737633e+02
4.300000e-07	-5.314673e-06	-8.682039e-09	-3.834065e+01	-5.691070e+02
4.400000e-07	-5.202909e-06	-8.613302e-09	-3.753436e+01	-5.642776e+02
4.500000e-07	-5.089116e-06	-8.533187e-09	-3.671345e+01	-5.592747e+02
4.600000e-07	-4.973286e-06	-8.449382e-09	-3.587784e+01	-5.540995e+02
4.700000e-07	-4.855594e-06	-8.364064e-09	-3.502880e+01	-5.487540e+02
4.800000e-07	-4.736105e-06	-8.275320e-09	-3.416679e+01	-5.432397e+02
4.900000e-07	-4.614913e-06	-8.191255e-09	-3.329250e+01	-5.375566e+02
5.000000e-07	-4.492040e-06	-8.101151e-09	-3.240608e+01	-5.317022e+02
5.100000e-07	-4.367503e-06	-8.006784e-09	-3.150766e+01	-5.256707e+02
5.200000e-07	-4.241404e-06	-7.907715e-09	-3.059796e+01	-5.194528e+02
5.300000e-07	-4.113738e-06	-7.813971e-09	-2.967697e+01	-5.130364e+02
5.400000e-07	-3.984696e-06	-7.714436e-09	-2.874604e+01	-5.064069e+02
5.500000e-07	-3.854208e-06	-7.609179e-09	-2.780469e+01	-4.995488e+02
5.600000e-07	-3.722130e-06	-7.500681e-09	-2.685186e+01	-4.924471e+02
5.700000e-07	-3.588611e-06	-7.387354e-09	-2.588864e+01	-4.850884e+02
5.800000e-07	-3.453742e-06	-7.265887e-09	-2.491568e+01	-4.774624e+02
5.900000e-07	-3.317559e-06	-7.138229e-09	-2.393324e+01	-4.695620e+02
6.000000e-07	-3.180115e-06	-7.013259e-09	-2.294171e+01	-4.613834e+02
6.100000e-07	-3.041401e-06	-6.885419e-09	-2.194101e+01	-4.529252e+02
6.200000e-07	-2.901313e-06	-6.755581e-09	-2.093040e+01	-4.441875e+02
6.300000e-07	-2.759941e-06	-6.622524e-09	-1.991052e+01	-4.351694e+02
6.400000e-07	-2.617528e-06	-6.485764e-09	-1.888314e+01	-4.258679e+02
6.500000e-07	-2.474168e-06	-6.339487e-09	-1.784892e+01	-4.162759e+02
6.600000e-07	-2.329835e-06	-6.185772e-09	-1.680769e+01	-4.063813e+02
6.700000e-07	-2.184601e-06	-6.028048e-09	-1.575995e+01	-3.961666e+02
6.800000e-07	-2.038601e-06	-5.861952e-09	-1.470670e+01	-3.856094e+02
6.900000e-07	-1.891926e-06	-5.691053e-09	-1.364857e+01	-3.746840e+02
7.000000e-07	-1.744678e-06	-5.516151e-09	-1.258630e+01	-3.633630e+02
7.100000e-07	-1.596945e-06	-5.336977e-09	-1.152054e+01	-3.516204e+02
7.200000e-07	-1.448741e-06	-5.151129e-09	-1.045138e+01	-3.394334e+02
7.300000e-07	-1.300059e-06	-4.960033e-09	-9.378773e+00	-3.267845e+02
7.400000e-07	-1.150949e-06	-4.763618e-09	-8.303076e+00	-3.136622e+02
7.500000e-07	-1.001497e-06	-4.561139e-09	-7.224909e+00	-3.000610e+02
7.600000e-07	-8.517864e-07	-4.351763e-09	-6.144883e+00	-2.859795e+02
7.700000e-07	-7.017988e-07	-4.134315e-09	-5.062855e+00	-2.714180e+02
7.800000e-07	-5.515597e-07	-3.905389e-09	-3.979013e+00	-2.563740e+02
7.900000e-07	-4.011487e-07	-3.665112e-09	-2.893932e+00	-2.408387e+02
8.000000e-07	-2.505645e-07	-3.417460e-09	-1.807601e+00	-2.247924e+02
8.100000e-07	-9.987165e-08	-3.161973e-09	-7.204852e-01	-2.082022e+02
8.200000e-07	5.089316e-08	-2.900218e-09	3.671489e-01	-1.910200e+02
8.300000e-07	2.017170e-07	-2.628826e-09	1.455209e+00	-1.731835e+02
8.400000e-07	3.524885e-07	-2.344827e-09	2.542891e+00	-1.546195e+02
8.500000e-07	5.031481e-07	-2.044886e-09	3.629767e+00	-1.352494e+02
8.600000e-07	6.536854e-07	-1.733412e-09	4.715759e+00	-1.149972e+02
8.700000e-07	8.040325e-07	-1.412211e-09	5.800380e+00	-9.379878e+01
8.800000e-07	9.540824e-07	-1.076260e-09	6.882857e+00	-7.161156e+01
8.900000e-07	1.103808e-06	-7.252044e-10	7.962998e+00	-4.842419e+01
9.000000e-07	1.253215e-06	-3.582709e-10	9.040833e+00	-2.426426e+01
9.100000e-07	1.402235e-06	2.071514e-11	1.011588e+01	7.964225e-01
9.200000e-07	1.550766e-06	4.125699e-10	1.118740e+01	2.663988e+01
9.300000e-07	1.698745e-06	8.156053e-10	1.225493e+01	5.310392e+01
9.400000e-07	1.846153e-06	1.228053e-09	1.331835e+01	7.998791e+01
9.500000e-07	1.992904e-06	1.644646e-09	1.437703e+01	1.070621e+02
9.600000e-07	2.138920e-06	2.058213e-09	1.543041e+01	1.340796e+02
9.700000e-07	2.284128e-06	2.467006e-09	1.647795e+01	1.607902e+02
9.800000e-07	2.428423e-06	2.866483e-09	1.751892e+01	1.869546e+02
9.900000e-07	2.571793e-06	3.253657e-09	1.855320e+01	2.123575e+02
1.000000e-06	2.714168e-06	3.622929e-09	1.958031e+01	2.368188e+02
1.010000e-06	2.855488e-06	3.973144e-09	2.059981e+01	2.602018e+02
1.020000e-06	2.995625e-06	4.305620e-09	2.161078e+01	2.824174e+02
1.030000e-06	3.134428e-06	4.621773e-09	2.261212e+01	3.034241e+02
1.040000e-06	3.271990e-06	4.921088e-09	2.360450e+01	3.232251e+02
1.050000e-06	3.408389e-06	5.203772e-09	2.458850e+01	3.418609e+02
1.060000e-06	3.543493e-06	5.472118e-09	2.556316e+01	3.594009e+02
1.070000e-06	3.677226e-06	5.725456e-09	2.652792e+01	3.759323e+02
1.080000e-06	3.809700e-06	5.965073e-09	2.748360e+01	3.915504e+02
1.090000e-06	3.940783e-06	6.190874e-09	2.842925e+01	4.063491e+02
1.100000e-06	4.070379e-06	6.405472e-09	2.936417e+01	4.204129e+02
1.110000e-06	4.198599e-06	6.608942e-09	3.028916e+01	4.338121e+02
1.120000e-06	4.325392e-06	6.799600e-09	3.120386e+01	4.466002e+02
1.130000e-06	4.450731e-06	6.982847e-09	3.210807e+01	4.588140e+02
1.140000e-06	4.574570e-06	7.160558e-09	3.300146e+01	4.704760e+02
1.150000e-06	4.696742e-06	7.329203e-09	3.388282e+01	4.815981e+02
1.160000e-06	4.817285e-06	7.486918e-09	3.475243e+01	4.921858e+02
1.170000e-06	4.936140e-06	7.636171e-09	3.560987e+01	5.022436e+02
1.180000e-06	5.053092e-06	7.780594e-09	3.645357e+01	5.117785e+02
1.190000e-06	5.168033e-06	7.918859e-09	3.728277e+01	5.208028e+02
1.200000e-06	5.281003e-06	8.050814e-09	3.809775e+01	5.293357e+02
1.210000e-06	5.392057e-06	8.176278e-09	3.889890e+01	5.374034e+02
1.220000e-06	5.501260e-06	8.296798e-09	3.968670e+01	5.450373e+02
1.230000e-06	5.608537e-06	8.412724e-09	4.046062e+01	5.522723e+02
1.240000e-06	5.713702e-06	8.520521e-09	4.121928e+01	5.591439e+02
1.250000e-06	5.816733e-06	8.618990e-09	4.196256e+01	5.656855e+02
1.260000e-06	5.917642e-06	8.708889e-09	4.269053e+01	5.719264e+02
1.270000e-06	6.016359e-06	8.794727e-09	4.340269e+01	5.778900e+02
1.280000e-06	6.112740e-06	8.878295e-09	4.409799e+01	5.835939e+02
1.290000e-06	6.206848e-06	8.959050e-09	4.477690e+01	5.890496e+02
1.300000e-06	6.298819e-06	9.037347e-09	4.544038e+01	5.942645e+02
1.310000e-06	6.388591e-06	9.113254e-09	4.608801e+01	5.992429e+02
1.320000e-06	6.476065e-06	9.187465e-09	4.671906e+01	6.039881e+02
1.330000e-06	6.561255e-06	9.258072e-09	4.733363e+01	6.085039e+02
1.340000e-06	6.644160e-06	9.323817e-09	4.793172e+01	6.127959e+02
1.350000e-06	6.724679e-06	9.384649e-09	4.851259e+01	6.168718e+02
1.360000e-06	6.802704e-06	9.441315e-09	4.907546e+01	6.207415e+02
1.370000e-06	6.878151e-06	9.495516e-09	4.961975e+01	6.244159e+02
1.380000e-06	6.950954e-06	9.548567e-09	5.014496e+01	6.279059e+02
1.390000e-06	7.021253e-06	9.601202e-09	5.065211e+01	6.312213e+02
1.400000e-06	7.089162e-06	9.651236e-09	5.114201e+01	6.343690e+02
1.410000e-06	7.154544e-06	9.698571e-09	5.161368e+01	6.373528e+02
1.420000e-06	7.217376e-06	9.741797e-09	5.206696e+01	6.401728e+02
1.430000e-06	7.277790e-06	9.778895e-09	5.250279e+01	6.428259e+02
1.440000e-06	7.335689e-06	9.812427e-09	5.292048e+01	6.453069e+02
1.450000e-06	7.390937e-06	9.843801e-09	5.331905e+01	6.476099e+02
1.460000e-06	7.443343e-06	9.874713e-09	5.369711e+01	6.497299e+02
1.470000e-06	7.492638e-06	9.904644e-09	5.405273e+01	6.516646e+02
1.480000e-06	7.539018e-06	9.933496e-09	5.438732e+01	6.534156e+02
1.490000e-06	7.582806e-06	9.959211e-09	5.470321e+01	6.549890e+02
1.500000e-06	7.623886e-06	9.982644e-09	5.499957e+01	6.563956e+02
1.510000e-06	7.662217e-06	1.000452e-08	5.527609e+01	6.576498e+02
1.520000e-06	7.697973e-06	1.002009e-08	5.553404e+01	6.587687e+02
1.530000e-06	7.730983e-06	1.003317e-08	5.577218e+01	6.597700e+02
1.540000e-06	7.761242e-06	1.004703e-08	5.599047e+01	6.606699e+02
1.550000e-06	7.788831e-06	1.006171e-08	5.618950e+01	6.614816e+02
1.560000e-06	7.813481e-06	1.007573e-08	5.636732e+01	6.622136e+02
1.570000e-06	7.835236e-06	1.008735e-08	5.652427e+01	6.628691e+02
1.580000e-06	7.854343e-06	1.009801e-08	5.666211e+01	6.634461e+02
1.590000e-06	7.870579e-06	1.010632e-08	5.677924e+01	6.639380e+02
1.600000e-06	7.883750e-06	1.011176e-08	5.687425e+01	6.643351e+02
1.610000e-06	7.893827e-06	1.011637e-08	5.694695e+01	6.646264e+02
1.620000e-06	7.900926e-06	1.012043e-08	5.699817e+01	6.648019e+02
1.630000e-06	7.905325e-06	1.012193e-08	5.702990e+01	6.648545e+02
1.640000e-06	7.906933e-06	1.012095e-08	5.704150e+01	6.647813e+02
1.650000e-06	7.905733e-06	1.011862e-08	5.703284e+01	6.645845e+02
1.660000e-06	7.901964e-06	1.011184e-08	5.700565e+01	6.642716e+02
1.670000e-06	7.895517e-06	1.010988e-08	5.695914e+01	6.638547e+02
1.680000e-06	7.886436e-06	1.010681e-08	5.689363e+01	6.633490e+02
1.690000e-06	7.874739e-06	1.010168e-08	5.680925e+01	6.627713e+02
1.700000e-06	7.860168e-06	1.009951e-08	5.670413e+01	6.621373e+02
1.710000e-06	7.843019e-06	1.009586e-08	5.658041e+01	6.614607e+02
1.720000e-06	7.823652e-06	1.008468e-08	5.644070e+01	6.607504e+02
1.730000e-06	7.801780e-06	1.001125e-08	5.628291e+01	6.600105e+02
1.740000e-06	7.776800e-06	9.950618e-09	5.610270e+01	6.592396e+02
1.750000e-06	7.748324e-06	9.984346e-09	5.589728e+01	6.584307e+02
1.760000e-06	7.716501e-06	9.993943e-09	5.566770e+01	6.575728e+02
1.770000e-06	7.682053e-06	9.980851e-09	5.541919e+01	6.566523e+02
1.780000e-06	7.645330e-06	1.001559e-08	5.515427e+01	6.556540e+02
1.790000e-06	7.606333e-06	1.004720e-08	5.487294e+01	6.545633e+02
1.800000e-06	7.565354e-06	9.923573e-09	5.457731e+01	6.533677e+02
1.810000e-06	7.522056e-06	9.930721e-09	5.426495e+01	6.520570e+02
1.820000e-06	7.476122e-06	9.957530e-09	5.393358e+01	6.506250e+02
1.830000e-06	7.427522e-06	9.877728e-09	5.358298e+01	6.490683e+02
1.840000e-06	7.375937e-06	9.943518e-09	5.321084e+01	6.473868e+02
1.850000e-06	7.321467e-06	9.861333e-09	5.281788e+01	6.455822e+02
1.860000e-06	7.264235e-06	9.838758e-09	5.240501e+01	6.436578e+02
1.870000e-06	7.204408e-06	9.794079e-09	5.197340e+01	6.416171e+02
1.880000e-06	7.141959e-06	9.713892e-09	5.152289e+01	6.394633e+02
1.890000e-06	7.076704e-06	9.758357e-09	5.105213e+01	6.371987e+02
1.900000e-06	7.008770e-06	9.657339e-09	5.056205e+01	6.348247e+02
1.910000e-06	6.938093e-06	9.652189e-09	5.005218e+01	6.323417e+02
1.920000e-06	6.864712e-06	9.613192e-09	4.952280e+01	6.297495e+02
1.930000e-06	6.788653e-06	9.558434e-09	4.897410e+01	6.270479e+02
1.940000e-06	6.709825e-06	9.534807e-09	4.840543e+01	6.242364e+02
1.950000e-06	6.628457e-06	9.452415e-09	4.781843e+01	6.213151e+02
1.960000e-06	6.544687e-06	9.460571e-09	4.721411e+01	6.182842e+02
1.970000e-06	6.458468e-06	9.377409e-09	4.659211e+01	6.151439e+02
1.980000e-06	6.369822e-06	9.337890e-09	4.595261e+01	6.118942e+02
1.990000e-06	6.279008e-06	9.300833e-09	4.529747e+01	6.085340e+02
2.000000e-06	6.186105e-06	9.233981e-09	4.462725e+01	6.050609e+02
2.010000e-06	6.090867e-06	9.182107e-09	4.394020e+01	6.014710e+02
2.020000e-06	5.993376e-06	9.113475e-09	4.323688e+01	5.977583e+02
2.030000e-06	5.893826e-06	9.074251e-09	4.251872e+01	5.939153e+02
2.040000e-06	5.792268e-06	9.002136e-09	4.178607e+01	5.899333e+02
2.050000e-06	5.688608e-06	8.949688e-09	4.103825e+01	5.858033e+02
2.060000e-06	5.582937e-06	8.878245e-09	4.027593e+01	5.815165e+02
2.070000e-06	5.475426e-06	8.805204e-09	3.950034e+01	5.770656e+02
2.080000e-06	5.366022e-06	8.725048e-09	3.871109e+01	5.724451e+02
2.090000e-06	5.254648e-06	8.654573e-09	3.790762e+01	5.676520e+02
2.100000e-06	5.141317e-06	8.589319e-09	3.709004e+01	5.626854e+02
2.110000e-06	5.026003e-06	8.516344e-09	3.625815e+01	5.575461e+02
2.120000e-06	4.908667e-06	8.441524e-09	3.541167e+01	5.522360e+02
2.130000e-06	4.789369e-06	8.350949e-09	3.455104e+01	5.467569e+02
2.140000e-06	4.668267e-06	8.263992e-09	3.367740e+01	5.411092e+02
2.150000e-06	4.545519e-06	8.170867e-09	3.279188e+01	5.352910e+02
2.160000e-06	4.421147e-06	8.085354e-09	3.189465e+01	5.292972e+02
2.170000e-06	4.295155e-06	7.991745e-09	3.098573e+01	5.231194e+02
2.180000e-06	4.167447e-06	7.899780e-09	3.006443e+01	5.167458e+02
2.190000e-06	4.038221e-06	7.799855e-09	2.913218e+01	5.101623e+02
2.200000e-06	3.907603e-06	7.695137e-09	2.818989e+01	5.033536e+02
2.210000e-06	3.775527e-06	7.586649e-09	2.723708e+01	4.963044e+02
2.220000e-06	3.642091e-06	7.479983e-09	2.627445e+01	4.890009e+02
2.230000e-06	3.507316e-06	7.370191e-09	2.530217e+01	4.814321e+02
2.240000e-06	3.371179e-06	7.249638e-09	2.432006e+01	4.735900e+02
2.250000e-06	3.233757e-06	7.125839e-09	2.332869e+01	4.654702e+02
2.260000e-06	3.095206e-06	6.998754e-09	2.232916e+01	4.570711e+02
2.270000e-06	2.955436e-06	6.865590e-09	2.132085e+01	4.483924e+02
2.280000e-06	2.814495e-06	6.722563e-09	2.030408e+01	4.394336e+02
2.290000e-06	2.672545e-06	6.581794e-09	1.928004e+01	4.301924e+02
2.300000e-06	2.529547e-06	6.439108e-09	1.824844e+01	4.206626e+02
2.310000e-06	2.385512e-06	6.294861e-09	1.720935e+01	4.108333e+02
2.320000e-06	2.240596e-06	6.145763e-09	1.616391e+01	4.006880e+02
2.330000e-06	2.094999e-06	5.989227e-09	1.511355e+01	3.902055e+02
2.340000e-06	1.948709e-06	5.822230e-09	1.405821e+01	3.793603e+02
2.350000e-06	1.801704e-06	5.645069e-09	1.299770e+01	3.681255e+02
2.360000e-06	1.654107e-06	5.463449e-09	1.193292e+01	3.564744e+02
2.370000e-06	1.506061e-06	5.277714e-09	1.086489e+01	3.443834e+02
2.380000e-06	1.357557e-06	5.089173e-09	9.793566e+00	3.318337e+02
2.390000e-06	1.208626e-06	4.893893e-09	8.719166e+00	3.188126e+02
2.400000e-06	1.059344e-06	4.687548e-09	7.642227e+00	3.053134e+02
2.410000e-06	9.096928e-07	4.471577e-09	6.562625e+00	2.913340e+02
2.420000e-06	7.597597e-07	4.251487e-09	5.480991e+00	2.768745e+02
2.430000e-06	6.096245e-07	4.028816e-09	4.397899e+00	2.619334e+02
2.440000e-06	4.592951e-07	3.797096e-09	3.313406e+00	2.465037e+02
2.450000e-06	3.087842e-07	3.551887e-09	2.227604e+00	2.305684e+02
2.460000e-06	1.581237e-07	3.295757e-09	1.140722e+00	2.140974e+02
2.470000e-06	7.341321e-09	3.031026e-09	5.296111e-02	1.970459e+02
2.480000e-06	-1.434679e-07	2.757709e-09	-1.034993e+00	1.793546e+02
2.490000e-06	-2.942110e-07	2.475125e-09	-2.122471e+00	1.609521e+02
2.500000e-06	-4.448629e-07	2.181160e-09	-3.209291e+00	1.417605e+02
2.510000e-06	-5.953870e-07	1.874904e-09	-4.295189e+00	1.217024e+02
2.520000e-06	-7.457196e-07	1.555636e-09	-5.379705e+00	1.007103e+02
2.530000e-06	-8.957951e-07	1.225258e-09	-6.462366e+00	7.873623e+01
2.540000e-06	-1.045609e-06	8.828767e-10	-7.543142e+00	5.576139e+01
2.550000e-06	-1.195093e-06	5.212268e-10	-8.621534e+00	3.180449e+01
2.560000e-06	-1.344107e-06	1.404716e-10	-9.696540e+00	6.927579e+00
2.570000e-06	-1.492722e-06	-2.534899e-10	-1.076866e+01	-1.876124e+01
2.580000e-06	-1.640880e-06	-6.565920e-10	-1.183749e+01	-4.510888e+01
2.590000e-06	-1.788417e-06	-1.067461e-09	-1.290184e+01	-7.192229e+01
2.600000e-06	-1.935240e-06	-1.483720e-09	-1.396104e+01	-9.897700e+01
2.610000e-06	-2.081263e-06	-1.902045e-09	-1.501446e+01	-1.260287e+02
2.620000e-06	-2.226566e-06	-2.316225e-09	-1.606269e+01	-1.528267e+02
2.630000e-06	-2.371106e-06	-2.718979e-09	-1.710542e+01	-1.791282e+02
2.640000e-06	-2.514677e-06	-3.108943e-09	-1.814116e+01	-2.047116e+02
2.650000e-06	-2.657136e-06	-3.484980e-09	-1.916888e+01	-2.293887e+02
2.660000e-06	-2.798529e-06	-3.846028e-09	-2.018890e+01	-2.530128e+02
2.670000e-06	-2.938859e-06	-4.188563e-09	-2.120126e+01	-2.754845e+02
2.680000e-06	-3.078029e-06	-4.510031e-09	-2.220525e+01	-2.967523e+02
2.690000e-06	-3.215949e-06	-4.813605e-09	-2.320022e+01	-3.168103e+02
2.700000e-06	-3.352637e-06	-5.101388e-09	-2.418630e+01	-3.356917e+02
2.710000e-06	-3.488041e-06	-5.373464e-09	-2.516312e+01	-3.534604e+02
2.720000e-06	-3.622105e-06	-5.631775e-09	-2.613027e+01	-3.702009e+02
2.730000e-06	-3.754970e-06	-5.878501e-09	-2.708877e+01	-3.860076e+02
2.740000e-06	-3.886541e-06	-6.112217e-09	-2.803794e+01	-4.009753e+02
2.750000e-06	-4.016716e-06	-6.333770e-09	-2.897704e+01	-4.151910e+02
2.760000e-06	-4.145563e-06	-6.546087e-09	-2.990656e+01	-4.287284e+02
2.770000e-06	-4.272910e-06	-6.747943e-09	-3.082525e+01	-4.416446e+02
2.780000e-06	-4.398669e-06	-6.937520e-09	-3.173249e+01	-4.539801e+02
2.790000e-06	-4.522970e-06	-7.113830e-09	-3.262921e+01	-4.657600e+02
2.800000e-06	-4.645688e-06	-7.278379e-09	-3.351452e+01	-4.769980e+02
2.810000e-06	-4.766747e-06	-7.435942e-09	-3.438784e+01	-4.877007e+02
2.820000e-06	-4.886043e-06	-7.588508e-09	-3.524846e+01	-4.978726e+02
2.830000e-06	-5.003401e-06	-7.736323e-09	-3.609509e+01	-5.075196e+02
2.840000e-06	-5.118723e-06	-7.878561e-09	-3.692704e+01	-5.166528e+02
2.850000e-06	-5.231938e-06	-8.013087e-09	-3.774379e+01	-5.252899e+02
2.860000e-06	-5.343138e-06	-8.140009e-09	-3.854600e+01	-5.334556e+02
2.870000e-06	-5.452381e-06	-8.258817e-09	-3.933408e+01	-5.411805e+02
2.880000e-06	-5.559745e-06	-8.370877e-09	-4.010862e+01	-5.484989e+02
2.890000e-06	-5.665207e-06	-8.477399e-09	-4.086944e+01	-5.554463e+02
2.900000e-06	-5.768563e-06	-8.578713e-09	-4.161506e+01	-5.620569e+02
2.910000e-06	-5.869727e-06	-8.674263e-09	-4.234487e+01	-5.683609e+02
2.920000e-06	-5.968742e-06	-8.764764e-09	-4.305917e+01	-5.743832e+02
2.930000e-06	-6.065671e-06	-8.853469e-09	-4.375843e+01	-5.801424e+02
2.940000e-06	-6.160414e-06	-8.939894e-09	-4.444191e+01	-5.856515e+02
