# Temperatura_=_36.9
# Concentracion g/m^3_=_10000.0
# C_Vs_to_Am_M_A/Vsm_=_65563218390.804596
# pendiente_HvsI_1/m_=_3716.3
# ordenada_HvsI_A/m_=_1297.0
# frecuencia_Hz_=_302617.7115988178

Tiempo_(s)	Campo_(V.s)	Magnetizacion_(V.s)	Campo_(kA/m)	Magnetizacion_(A/m)
0.000000e+00	-7.899300e-06	-1.015490e-08	-5.683525e+01	-6.656698e+02
1.000000e-08	-7.897268e-06	-1.015932e-08	-5.682063e+01	-6.654534e+02
2.000000e-08	-7.892442e-06	-1.015713e-08	-5.678591e+01	-6.651275e+02
3.000000e-08	-7.885135e-06	-1.015049e-08	-5.673334e+01	-6.647011e+02
4.000000e-08	-7.875144e-06	-1.014391e-08	-5.666145e+01	-6.641853e+02
5.000000e-08	-7.862247e-06	-1.013473e-08	-5.656866e+01	-6.635924e+02
6.000000e-08	-7.846361e-06	-1.012213e-08	-5.645436e+01	-6.629341e+02
7.000000e-08	-7.827836e-06	-1.010996e-08	-5.632107e+01	-6.622205e+02
8.000000e-08	-7.807205e-06	-1.009405e-08	-5.617263e+01	-6.614590e+02
9.000000e-08	-7.784059e-06	-1.012439e-08	-5.600610e+01	-6.606542e+02
1.000000e-07	-7.757734e-06	-1.015645e-08	-5.581669e+01	-6.598070e+02
1.100000e-07	-7.728187e-06	-1.010657e-08	-5.560410e+01	-6.589154e+02
1.200000e-07	-7.695807e-06	-1.005588e-08	-5.537112e+01	-6.579747e+02
1.300000e-07	-7.660788e-06	-1.003624e-08	-5.511917e+01	-6.569782e+02
1.400000e-07	-7.623308e-06	-1.001052e-08	-5.484950e+01	-6.559178e+02
1.500000e-07	-7.583673e-06	-9.949758e-09	-5.456433e+01	-6.547849e+02
1.600000e-07	-7.541822e-06	-9.934458e-09	-5.426321e+01	-6.535708e+02
1.700000e-07	-7.497387e-06	-9.977447e-09	-5.394350e+01	-6.522669e+02
1.800000e-07	-7.450285e-06	-9.882914e-09	-5.360460e+01	-6.508652e+02
1.900000e-07	-7.400387e-06	-9.881753e-09	-5.324559e+01	-6.493581e+02
2.000000e-07	-7.347444e-06	-9.914771e-09	-5.286466e+01	-6.477387e+02
2.100000e-07	-7.291669e-06	-9.838143e-09	-5.246336e+01	-6.460006e+02
2.200000e-07	-7.233250e-06	-9.826803e-09	-5.204304e+01	-6.441382e+02
2.300000e-07	-7.172231e-06	-9.792369e-09	-5.160401e+01	-6.421468e+02
2.400000e-07	-7.108654e-06	-9.773387e-09	-5.114658e+01	-6.400228e+02
2.500000e-07	-7.042345e-06	-9.714643e-09	-5.066948e+01	-6.377644e+02
2.600000e-07	-6.973363e-06	-9.669295e-09	-5.017316e+01	-6.353715e+02
2.700000e-07	-6.901691e-06	-9.653511e-09	-4.965748e+01	-6.328460e+02
2.800000e-07	-6.827202e-06	-9.592898e-09	-4.912154e+01	-6.301917e+02
2.900000e-07	-6.750004e-06	-9.542665e-09	-4.856610e+01	-6.274143e+02
3.000000e-07	-6.670040e-06	-9.507982e-09	-4.799076e+01	-6.245201e+02
3.100000e-07	-6.587550e-06	-9.491117e-09	-4.739724e+01	-6.215158e+02
3.200000e-07	-6.502928e-06	-9.438148e-09	-4.678839e+01	-6.184072e+02
3.300000e-07	-6.416085e-06	-9.377254e-09	-4.616356e+01	-6.151982e+02
3.400000e-07	-6.326878e-06	-9.344425e-09	-4.552172e+01	-6.118900e+02
3.500000e-07	-6.235307e-06	-9.285053e-09	-4.486287e+01	-6.084803e+02
3.600000e-07	-6.141480e-06	-9.221688e-09	-4.418779e+01	-6.049634e+02
3.700000e-07	-6.045423e-06	-9.165519e-09	-4.349666e+01	-6.013303e+02
3.800000e-07	-5.947100e-06	-9.116506e-09	-4.278922e+01	-5.975695e+02
3.900000e-07	-5.846669e-06	-9.052278e-09	-4.206663e+01	-5.936681e+02
4.000000e-07	-5.744185e-06	-8.984361e-09	-4.132926e+01	-5.896134e+02
4.100000e-07	-5.639681e-06	-8.928005e-09	-4.057735e+01	-5.853940e+02
4.200000e-07	-5.533209e-06	-8.858474e-09	-3.981129e+01	-5.810015e+02
4.300000e-07	-5.424758e-06	-8.783541e-09	-3.903099e+01	-5.764309e+02
4.400000e-07	-5.314407e-06	-8.710475e-09	-3.823701e+01	-5.716810e+02
4.500000e-07	-5.202135e-06	-8.646080e-09	-3.742922e+01	-5.667542e+02
4.600000e-07	-5.087787e-06	-8.570561e-09	-3.660649e+01	-5.616558e+02
4.700000e-07	-4.971412e-06	-8.487898e-09	-3.576918e+01	-5.563921e+02
4.800000e-07	-4.853215e-06	-8.408025e-09	-3.491875e+01	-5.509689e+02
4.900000e-07	-4.733260e-06	-8.321574e-09	-3.405568e+01	-5.453899e+02
5.000000e-07	-4.611555e-06	-8.228391e-09	-3.318001e+01	-5.396551e+02
5.100000e-07	-4.488138e-06	-8.135449e-09	-3.229203e+01	-5.337597e+02
5.200000e-07	-4.363124e-06	-8.044553e-09	-3.139256e+01	-5.276942e+02
5.300000e-07	-4.236514e-06	-7.945935e-09	-3.048161e+01	-5.214441e+02
5.400000e-07	-4.108353e-06	-7.840589e-09	-2.955949e+01	-5.149917e+02
5.500000e-07	-3.978731e-06	-7.734928e-09	-2.862686e+01	-5.083174e+02
5.600000e-07	-3.847544e-06	-7.630480e-09	-2.768298e+01	-5.014019e+02
5.700000e-07	-3.714872e-06	-7.522599e-09	-2.672840e+01	-4.942281e+02
5.800000e-07	-3.580838e-06	-7.408385e-09	-2.576403e+01	-4.867825e+02
5.900000e-07	-3.445464e-06	-7.293034e-09	-2.479002e+01	-4.790567e+02
6.000000e-07	-3.308785e-06	-7.174554e-09	-2.380662e+01	-4.710470e+02
6.100000e-07	-3.170801e-06	-7.049873e-09	-2.281383e+01	-4.627541e+02
6.200000e-07	-3.031459e-06	-6.917982e-09	-2.181127e+01	-4.541814e+02
6.300000e-07	-2.890704e-06	-6.779849e-09	-2.079854e+01	-4.453327e+02
6.400000e-07	-2.748779e-06	-6.635141e-09	-1.977739e+01	-4.362102e+02
6.500000e-07	-2.605813e-06	-6.487387e-09	-1.874875e+01	-4.268116e+02
6.600000e-07	-2.461811e-06	-6.338477e-09	-1.771266e+01	-4.171290e+02
6.700000e-07	-2.316978e-06	-6.184742e-09	-1.667059e+01	-4.071476e+02
6.800000e-07	-2.171348e-06	-6.028201e-09	-1.562279e+01	-3.968455e+02
6.900000e-07	-2.024933e-06	-5.866032e-09	-1.456934e+01	-3.861955e+02
7.000000e-07	-1.877872e-06	-5.698035e-09	-1.351124e+01	-3.751670e+02
7.100000e-07	-1.730203e-06	-5.523311e-09	-1.244877e+01	-3.637289e+02
7.200000e-07	-1.581985e-06	-5.344456e-09	-1.138234e+01	-3.518522e+02
7.300000e-07	-1.433363e-06	-5.159756e-09	-1.031301e+01	-3.395134e+02
7.400000e-07	-1.284364e-06	-4.963403e-09	-9.240962e+00	-3.266957e+02
7.500000e-07	-1.134920e-06	-4.757259e-09	-8.165717e+00	-3.133901e+02
7.600000e-07	-9.850638e-07	-4.545778e-09	-7.087508e+00	-2.995942e+02
7.700000e-07	-8.348411e-07	-4.330802e-09	-6.006660e+00	-2.853100e+02
7.800000e-07	-6.842546e-07	-4.106837e-09	-4.923193e+00	-2.705399e+02
7.900000e-07	-5.334075e-07	-3.876898e-09	-3.837853e+00	-2.552824e+02
8.000000e-07	-3.823874e-07	-3.641446e-09	-2.751267e+00	-2.395274e+02
8.100000e-07	-2.312504e-07	-3.395942e-09	-1.663840e+00	-2.232516e+02
8.200000e-07	-8.005773e-08	-3.137822e-09	-5.760133e-01	-2.064163e+02
8.300000e-07	7.119800e-08	-2.870031e-09	5.122677e-01	-1.889661e+02
8.400000e-07	2.224768e-07	-2.591776e-09	1.600714e+00	-1.708308e+02
8.500000e-07	3.737098e-07	-2.299114e-09	2.688832e+00	-1.519301e+02
8.600000e-07	5.248478e-07	-1.992177e-09	3.776266e+00	-1.321803e+02
8.700000e-07	6.758266e-07	-1.675083e-09	4.862555e+00	-1.115033e+02
8.800000e-07	8.266531e-07	-1.347883e-09	5.947747e+00	-8.983702e+01
8.900000e-07	9.772320e-07	-1.004068e-09	7.031158e+00	-6.714555e+01
9.000000e-07	1.127432e-06	-6.457249e-10	8.111840e+00	-4.342874e+01
9.100000e-07	1.277185e-06	-2.732829e-10	9.189309e+00	-1.872935e+01
9.200000e-07	1.426407e-06	1.139084e-10	1.026296e+01	6.862726e+00
9.300000e-07	1.575144e-06	5.151658e-10	1.133312e+01	3.321004e+01
9.400000e-07	1.723398e-06	9.271596e-10	1.239980e+01	6.013122e+01
9.500000e-07	1.871045e-06	1.345095e-09	1.346212e+01	8.740846e+01
9.600000e-07	2.018062e-06	1.764723e-09	1.451991e+01	1.147984e+02
9.700000e-07	2.164343e-06	2.181759e-09	1.557239e+01	1.420454e+02
9.800000e-07	2.309763e-06	2.592393e-09	1.661868e+01	1.688960e+02
9.900000e-07	2.454317e-06	2.990821e-09	1.765874e+01	1.951130e+02
1.000000e-06	2.597968e-06	3.375555e-09	1.869231e+01	2.204887e+02
1.010000e-06	2.740646e-06	3.742375e-09	1.971887e+01	2.448546e+02
1.020000e-06	2.882216e-06	4.093290e-09	2.073747e+01	2.680885e+02
1.030000e-06	3.022581e-06	4.428142e-09	2.174739e+01	2.901171e+02
1.040000e-06	3.161682e-06	4.745517e-09	2.274822e+01	3.109146e+02
1.050000e-06	3.299488e-06	5.044239e-09	2.373973e+01	3.304979e+02
1.060000e-06	3.435997e-06	5.322850e-09	2.472191e+01	3.489188e+02
1.070000e-06	3.571263e-06	5.584077e-09	2.569514e+01	3.662544e+02
1.080000e-06	3.705255e-06	5.831453e-09	2.665921e+01	3.825964e+02
1.090000e-06	3.837909e-06	6.067421e-09	2.761365e+01	3.980410e+02
1.100000e-06	3.969149e-06	6.291542e-09	2.855792e+01	4.126804e+02
1.110000e-06	4.098932e-06	6.504134e-09	2.949171e+01	4.265956e+02
1.120000e-06	4.227305e-06	6.706151e-09	3.041535e+01	4.398527e+02
1.130000e-06	4.354203e-06	6.899721e-09	3.132838e+01	4.525013e+02
1.140000e-06	4.479627e-06	7.085382e-09	3.223080e+01	4.645750e+02
1.150000e-06	4.603508e-06	7.261601e-09	3.312212e+01	4.760946e+02
1.160000e-06	4.725712e-06	7.425638e-09	3.400137e+01	4.870718e+02
1.170000e-06	4.846281e-06	7.580058e-09	3.486887e+01	4.975139e+02
1.180000e-06	4.965144e-06	7.727276e-09	3.572408e+01	5.074277e+02
1.190000e-06	5.082145e-06	7.868597e-09	3.656590e+01	5.168235e+02
1.200000e-06	5.197209e-06	8.004049e-09	3.739378e+01	5.257171e+02
1.210000e-06	5.310317e-06	8.133183e-09	3.820759e+01	5.341303e+02
1.220000e-06	5.421452e-06	8.255955e-09	3.900720e+01	5.420912e+02
1.230000e-06	5.530644e-06	8.376327e-09	3.979283e+01	5.496319e+02
1.240000e-06	5.637878e-06	8.493939e-09	4.056438e+01	5.567865e+02
1.250000e-06	5.743035e-06	8.602171e-09	4.132098e+01	5.635890e+02
1.260000e-06	5.846064e-06	8.698883e-09	4.206228e+01	5.700702e+02
1.270000e-06	5.946992e-06	8.788493e-09	4.278845e+01	5.762565e+02
1.280000e-06	6.045757e-06	8.874811e-09	4.349906e+01	5.821687e+02
1.290000e-06	6.142201e-06	8.956881e-09	4.419297e+01	5.878220e+02
1.300000e-06	6.236394e-06	9.034982e-09	4.487069e+01	5.932266e+02
1.310000e-06	6.328375e-06	9.110962e-09	4.553249e+01	5.983888e+02
1.320000e-06	6.418054e-06	9.184784e-09	4.617773e+01	6.033133e+02
1.330000e-06	6.505376e-06	9.256845e-09	4.680601e+01	6.080038e+02
1.340000e-06	6.590430e-06	9.326522e-09	4.741797e+01	6.124655e+02
1.350000e-06	6.673213e-06	9.394146e-09	4.801359e+01	6.167048e+02
1.360000e-06	6.753559e-06	9.458069e-09	4.859168e+01	6.207303e+02
1.370000e-06	6.831415e-06	9.515680e-09	4.915185e+01	6.245524e+02
1.380000e-06	6.906652e-06	9.569411e-09	4.969317e+01	6.281817e+02
1.390000e-06	6.979253e-06	9.620470e-09	5.021554e+01	6.316286e+02
1.400000e-06	7.049393e-06	9.668649e-09	5.072020e+01	6.349021e+02
1.410000e-06	7.117078e-06	9.714749e-09	5.120718e+01	6.380080e+02
1.420000e-06	7.182191e-06	9.759526e-09	5.167567e+01	6.409492e+02
1.430000e-06	7.244749e-06	9.802578e-09	5.212578e+01	6.437254e+02
1.440000e-06	7.304951e-06	9.842642e-09	5.255893e+01	6.463336e+02
1.450000e-06	7.362639e-06	9.880314e-09	5.297399e+01	6.487690e+02
1.460000e-06	7.417619e-06	9.914059e-09	5.336957e+01	6.510269e+02
1.470000e-06	7.469769e-06	9.944183e-09	5.374479e+01	6.531035e+02
1.480000e-06	7.518840e-06	9.971759e-09	5.409785e+01	6.549979e+02
1.490000e-06	7.565068e-06	9.997056e-09	5.443046e+01	6.567130e+02
1.500000e-06	7.608713e-06	1.001978e-08	5.474449e+01	6.582553e+02
1.510000e-06	7.649590e-06	1.003942e-08	5.503860e+01	6.596358e+02
1.520000e-06	7.687679e-06	1.005789e-08	5.531264e+01	6.608682e+02
1.530000e-06	7.723127e-06	1.007536e-08	5.556769e+01	6.619682e+02
1.540000e-06	7.755780e-06	1.009245e-08	5.580263e+01	6.629518e+02
1.550000e-06	7.785701e-06	1.010860e-08	5.601791e+01	6.638336e+02
1.560000e-06	7.812988e-06	1.012367e-08	5.621424e+01	6.646252e+02
1.570000e-06	7.837336e-06	1.013716e-08	5.638942e+01	6.653344e+02
1.580000e-06	7.858785e-06	1.014679e-08	5.654375e+01	6.659643e+02
1.590000e-06	7.877603e-06	1.015323e-08	5.667914e+01	6.665137e+02
1.600000e-06	7.893564e-06	1.015805e-08	5.679399e+01	6.669776e+02
1.610000e-06	7.906383e-06	1.016314e-08	5.688621e+01	6.673487e+02
1.620000e-06	7.916042e-06	1.016892e-08	5.695571e+01	6.676185e+02
1.630000e-06	7.922762e-06	1.017389e-08	5.700406e+01	6.677791e+02
1.640000e-06	7.926765e-06	1.017737e-08	5.703286e+01	6.678248e+02
1.650000e-06	7.927965e-06	1.017942e-08	5.704150e+01	6.677529e+02
1.660000e-06	7.926411e-06	1.017534e-08	5.703032e+01	6.675647e+02
1.670000e-06	7.922296e-06	1.016793e-08	5.700071e+01	6.672650e+02
1.680000e-06	7.915473e-06	1.016165e-08	5.695162e+01	6.668623e+02
1.690000e-06	7.905960e-06	1.015424e-08	5.688317e+01	6.663674e+02
1.700000e-06	7.893749e-06	1.014697e-08	5.679531e+01	6.657922e+02
1.710000e-06	7.878718e-06	1.014280e-08	5.668716e+01	6.651489e+02
1.720000e-06	7.861193e-06	1.013834e-08	5.656108e+01	6.644478e+02
1.730000e-06	7.841471e-06	1.011832e-08	5.641917e+01	6.636974e+02
1.740000e-06	7.819189e-06	1.002622e-08	5.625886e+01	6.629028e+02
1.750000e-06	7.793693e-06	1.000805e-08	5.607542e+01	6.620658e+02
1.760000e-06	7.764597e-06	1.004575e-08	5.586607e+01	6.611853e+02
1.770000e-06	7.732202e-06	1.003404e-08	5.563299e+01	6.602571e+02
1.780000e-06	7.697353e-06	1.002371e-08	5.538225e+01	6.592748e+02
1.790000e-06	7.660225e-06	1.007566e-08	5.511511e+01	6.582308e+02
1.800000e-06	7.620862e-06	1.006476e-08	5.483190e+01	6.571165e+02
1.810000e-06	7.579500e-06	9.957710e-09	5.453430e+01	6.559231e+02
1.820000e-06	7.535665e-06	1.002200e-08	5.421891e+01	6.546420e+02
1.830000e-06	7.489187e-06	9.968935e-09	5.388450e+01	6.532651e+02
1.840000e-06	7.440082e-06	9.942866e-09	5.353119e+01	6.517846e+02
1.850000e-06	7.387965e-06	9.953343e-09	5.315621e+01	6.501935e+02
1.860000e-06	7.332906e-06	9.854203e-09	5.276007e+01	6.484853e+02
1.870000e-06	7.275157e-06	9.899770e-09	5.234456e+01	6.466540e+02
1.880000e-06	7.214896e-06	9.810814e-09	5.191098e+01	6.446948e+02
1.890000e-06	7.151943e-06	9.801918e-09	5.145804e+01	6.426039e+02
1.900000e-06	7.086104e-06	9.815496e-09	5.098433e+01	6.403788e+02
1.910000e-06	7.017572e-06	9.700269e-09	5.049125e+01	6.380190e+02
1.920000e-06	6.946274e-06	9.706983e-09	4.997825e+01	6.355259e+02
1.930000e-06	6.872359e-06	9.658245e-09	4.944644e+01	6.329030e+02
1.940000e-06	6.795733e-06	9.643078e-09	4.889512e+01	6.301554e+02
1.950000e-06	6.716313e-06	9.566938e-09	4.832369e+01	6.272893e+02
1.960000e-06	6.634479e-06	9.509503e-09	4.773490e+01	6.243116e+02
1.970000e-06	6.550249e-06	9.496581e-09	4.712887e+01	6.212282e+02
1.980000e-06	6.463547e-06	9.397817e-09	4.650505e+01	6.180437e+02
1.990000e-06	6.374426e-06	9.384830e-09	4.586383e+01	6.147600e+02
2.000000e-06	6.283155e-06	9.337586e-09	4.520713e+01	6.113757e+02
2.010000e-06	6.189690e-06	9.288375e-09	4.453465e+01	6.078859e+02
2.020000e-06	6.093894e-06	9.207464e-09	4.384540e+01	6.042824e+02
2.030000e-06	5.995955e-06	9.151832e-09	4.314074e+01	6.005543e+02
2.040000e-06	5.895950e-06	9.112059e-09	4.242121e+01	5.966889e+02
2.050000e-06	5.793820e-06	9.040182e-09	4.168638e+01	5.926732e+02
2.060000e-06	5.689539e-06	8.979611e-09	4.093608e+01	5.884956e+02
2.070000e-06	5.583343e-06	8.910838e-09	4.017200e+01	5.841466e+02
2.080000e-06	5.475324e-06	8.850228e-09	3.939481e+01	5.796204e+02
2.090000e-06	5.365346e-06	8.757550e-09	3.860352e+01	5.749148e+02
2.100000e-06	5.253344e-06	8.690732e-09	3.779767e+01	5.700315e+02
2.110000e-06	5.139438e-06	8.618458e-09	3.697812e+01	5.649750e+02
2.120000e-06	5.023622e-06	8.538101e-09	3.614483e+01	5.597516e+02
2.130000e-06	4.905740e-06	8.450080e-09	3.529667e+01	5.543674e+02
2.140000e-06	4.785905e-06	8.373745e-09	3.443446e+01	5.488268e+02
2.150000e-06	4.664333e-06	8.296481e-09	3.355975e+01	5.431308e+02
2.160000e-06	4.541138e-06	8.202537e-09	3.267336e+01	5.372759e+02
2.170000e-06	4.416311e-06	8.109579e-09	3.177524e+01	5.312537e+02
2.180000e-06	4.289796e-06	8.015196e-09	3.086497e+01	5.250509e+02
2.190000e-06	4.161572e-06	7.923062e-09	2.994240e+01	5.186505e+02
2.200000e-06	4.031906e-06	7.821855e-09	2.900945e+01	5.120331e+02
2.210000e-06	3.900804e-06	7.722003e-09	2.806618e+01	5.051793e+02
2.220000e-06	3.768264e-06	7.609400e-09	2.711256e+01	4.980710e+02
2.230000e-06	3.634341e-06	7.490683e-09	2.614899e+01	4.906940e+02
2.240000e-06	3.499015e-06	7.368893e-09	2.517532e+01	4.830384e+02
2.250000e-06	3.362414e-06	7.253185e-09	2.419248e+01	4.750994e+02
2.260000e-06	3.224546e-06	7.133715e-09	2.320052e+01	4.668766e+02
2.270000e-06	3.085421e-06	7.010932e-09	2.219952e+01	4.583731e+02
2.280000e-06	2.945079e-06	6.882191e-09	2.118976e+01	4.495927e+02
2.290000e-06	2.803535e-06	6.743560e-09	2.017136e+01	4.405382e+02
2.300000e-06	2.660852e-06	6.599767e-09	1.914476e+01	4.312088e+02
2.310000e-06	2.517222e-06	6.452595e-09	1.811135e+01	4.215979e+02
2.320000e-06	2.372691e-06	6.303727e-09	1.707145e+01	4.116926e+02
2.330000e-06	2.227362e-06	6.146712e-09	1.602581e+01	4.014726e+02
2.340000e-06	2.081367e-06	5.984445e-09	1.497538e+01	3.909120e+02
2.350000e-06	1.934650e-06	5.817390e-09	1.391975e+01	3.799807e+02
2.360000e-06	1.787240e-06	5.644194e-09	1.285914e+01	3.686474e+02
2.370000e-06	1.639261e-06	5.462385e-09	1.179444e+01	3.568824e+02
2.380000e-06	1.490827e-06	5.272213e-09	1.072646e+01	3.446606e+02
2.390000e-06	1.341978e-06	5.079820e-09	9.655495e+00	3.319634e+02
2.400000e-06	1.192672e-06	4.882562e-09	8.581244e+00	3.187798e+02
2.410000e-06	1.042929e-06	4.676288e-09	7.503845e+00	3.051061e+02
2.420000e-06	8.928326e-07	4.461233e-09	6.423907e+00	2.909432e+02
2.430000e-06	7.424474e-07	4.236136e-09	5.341889e+00	2.762941e+02
2.440000e-06	5.918142e-07	4.002974e-09	4.258087e+00	2.611586e+02
2.450000e-06	4.409698e-07	3.763659e-09	3.172766e+00	2.455292e+02
2.460000e-06	2.899641e-07	3.518425e-09	2.086284e+00	2.293862e+02
2.470000e-06	1.388282e-07	3.262484e-09	9.988650e-01	2.126949e+02
2.480000e-06	-1.239864e-08	2.996482e-09	-8.920791e-02	1.954041e+02
2.490000e-06	-1.636695e-07	2.720780e-09	-1.177598e+00	1.774469e+02
2.500000e-06	-3.148939e-07	2.433309e-09	-2.265653e+00	1.587451e+02
2.510000e-06	-4.659857e-07	2.130965e-09	-3.352754e+00	1.392149e+02
2.520000e-06	-6.169431e-07	1.816523e-09	-4.438889e+00	1.187759e+02
2.530000e-06	-7.677157e-07	1.492889e-09	-5.523694e+00	9.736108e+01
2.540000e-06	-9.182594e-07	1.156250e-09	-6.606852e+00	7.492706e+01
2.550000e-06	-1.068471e-06	8.053136e-10	-7.687618e+00	5.146395e+01
2.560000e-06	-1.218274e-06	4.378185e-10	-8.765451e+00	2.700326e+01
2.570000e-06	-1.367635e-06	5.339180e-11	-9.840097e+00	1.622904e+00
2.580000e-06	-1.516512e-06	-3.453950e-10	-1.091126e+01	-2.455139e+01
2.590000e-06	-1.664913e-06	-7.567174e-10	-1.197901e+01	-5.134865e+01
2.600000e-06	-1.812771e-06	-1.178332e-09	-1.304284e+01	-7.855930e+01
2.610000e-06	-1.959893e-06	-1.605874e-09	-1.410138e+01	-1.059452e+02
2.620000e-06	-2.106215e-06	-2.032495e-09	-1.515416e+01	-1.332524e+02
2.630000e-06	-2.251785e-06	-2.450309e-09	-1.620153e+01	-1.602256e+02
2.640000e-06	-2.396502e-06	-2.852217e-09	-1.724277e+01	-1.866222e+02
2.650000e-06	-2.540240e-06	-3.238375e-09	-1.827696e+01	-2.122261e+02
2.660000e-06	-2.682975e-06	-3.610181e-09	-1.930394e+01	-2.368582e+02
2.670000e-06	-2.824608e-06	-3.965628e-09	-2.032298e+01	-2.603843e+02
2.680000e-06	-2.965071e-06	-4.302601e-09	-2.133361e+01	-2.827188e+02
2.690000e-06	-3.104397e-06	-4.621452e-09	-2.233605e+01	-3.038245e+02
2.700000e-06	-3.242490e-06	-4.926426e-09	-2.332963e+01	-3.237080e+02
2.710000e-06	-3.379348e-06	-5.216302e-09	-2.431432e+01	-3.424136e+02
2.720000e-06	-3.514937e-06	-5.489637e-09	-2.528988e+01	-3.600127e+02
2.730000e-06	-3.649219e-06	-5.746046e-09	-2.625603e+01	-3.765945e+02
2.740000e-06	-3.782270e-06	-5.985697e-09	-2.721333e+01	-3.922549e+02
2.750000e-06	-3.913985e-06	-6.212346e-09	-2.816102e+01	-4.070878e+02
2.760000e-06	-4.044246e-06	-6.429578e-09	-2.909825e+01	-4.211776e+02
2.770000e-06	-4.173126e-06	-6.638355e-09	-3.002553e+01	-4.345944e+02
2.780000e-06	-4.300595e-06	-6.837076e-09	-3.094267e+01	-4.473918e+02
2.790000e-06	-4.426580e-06	-7.025689e-09	-3.184912e+01	-4.596072e+02
2.800000e-06	-4.551077e-06	-7.201186e-09	-3.274488e+01	-4.712644e+02
2.810000e-06	-4.673928e-06	-7.366362e-09	-3.362879e+01	-4.823768e+02
2.820000e-06	-4.795065e-06	-7.524951e-09	-3.450037e+01	-4.929524e+02
2.830000e-06	-4.914408e-06	-7.675915e-09	-3.535903e+01	-5.029979e+02
2.840000e-06	-5.031817e-06	-7.821558e-09	-3.620379e+01	-5.125224e+02
2.850000e-06	-5.147232e-06	-7.959519e-09	-3.703420e+01	-5.215401e+02
2.860000e-06	-5.260498e-06	-8.088887e-09	-3.784914e+01	-5.300714e+02
2.870000e-06	-5.371674e-06	-8.211189e-09	-3.864905e+01	-5.381429e+02
2.880000e-06	-5.480932e-06	-8.328074e-09	-3.943516e+01	-5.457858e+02
2.890000e-06	-5.588324e-06	-8.440819e-09	-4.020784e+01	-5.530342e+02
2.900000e-06	-5.693830e-06	-8.549058e-09	-4.096696e+01	-5.599220e+02
2.910000e-06	-5.797205e-06	-8.651810e-09	-4.171074e+01	-5.664813e+02
2.920000e-06	-5.898365e-06	-8.748020e-09	-4.243858e+01	-5.727395e+02
2.930000e-06	-5.997413e-06	-8.838745e-09	-4.315122e+01	-5.787190e+02
2.940000e-06	-6.094390e-06	-8.924910e-09	-4.384897e+01	-5.844363e+02
