# Temperatura_=_58.34
# Concentracion g/m^3_=_10000.0
# C_Vs_to_Am_M_A/Vsm_=_65563218390.804596
# pendiente_HvsI_1/m_=_3716.3
# ordenada_HvsI_A/m_=_1297.0
# frecuencia_Hz_=_302617.6684946555

Tiempo_(s)	Campo_(V.s)	Magnetizacion_(V.s)	Campo_(kA/m)	Magnetizacion_(A/m)
0.000000e+00	-7.908366e-06	-1.092741e-08	-5.681647e+01	-7.159222e+02
1.000000e-08	-7.903678e-06	-1.092628e-08	-5.678279e+01	-7.155208e+02
2.000000e-08	-7.896419e-06	-1.092060e-08	-5.673063e+01	-7.150094e+02
3.000000e-08	-7.886396e-06	-1.091234e-08	-5.665862e+01	-7.144045e+02
4.000000e-08	-7.873518e-06	-1.090144e-08	-5.656611e+01	-7.137222e+02
5.000000e-08	-7.857691e-06	-1.088783e-08	-5.645240e+01	-7.129758e+02
6.000000e-08	-7.839256e-06	-1.087522e-08	-5.631996e+01	-7.121743e+02
7.000000e-08	-7.818647e-06	-1.085761e-08	-5.617189e+01	-7.113219e+02
8.000000e-08	-7.795511e-06	-1.086492e-08	-5.600567e+01	-7.104176e+02
9.000000e-08	-7.769200e-06	-1.090033e-08	-5.581664e+01	-7.094558e+02
1.000000e-07	-7.739693e-06	-1.087078e-08	-5.560466e+01	-7.084272e+02
1.100000e-07	-7.707437e-06	-1.081514e-08	-5.537292e+01	-7.073206e+02
1.200000e-07	-7.672504e-06	-1.078348e-08	-5.512195e+01	-7.061240e+02
1.300000e-07	-7.635046e-06	-1.075302e-08	-5.485284e+01	-7.048260e+02
1.400000e-07	-7.595381e-06	-1.069759e-08	-5.456787e+01	-7.034172e+02
1.500000e-07	-7.553479e-06	-1.064193e-08	-5.426683e+01	-7.018901e+02
1.600000e-07	-7.509052e-06	-1.070640e-08	-5.394765e+01	-7.002398e+02
1.700000e-07	-7.461914e-06	-1.065906e-08	-5.360900e+01	-6.984629e+02
1.800000e-07	-7.411974e-06	-1.058023e-08	-5.325021e+01	-6.965577e+02
1.900000e-07	-7.359090e-06	-1.061563e-08	-5.287027e+01	-6.945228e+02
2.000000e-07	-7.303349e-06	-1.052331e-08	-5.246981e+01	-6.923567e+02
2.100000e-07	-7.244899e-06	-1.048203e-08	-5.204989e+01	-6.900573e+02
2.200000e-07	-7.183811e-06	-1.048975e-08	-5.161101e+01	-6.876220e+02
2.300000e-07	-7.120150e-06	-1.045492e-08	-5.115365e+01	-6.850478e+02
2.400000e-07	-7.053806e-06	-1.039559e-08	-5.067700e+01	-6.823317e+02
2.500000e-07	-6.984792e-06	-1.032960e-08	-5.018118e+01	-6.794718e+02
2.600000e-07	-6.913113e-06	-1.031105e-08	-4.966622e+01	-6.764675e+02
2.700000e-07	-6.838675e-06	-1.025713e-08	-4.913143e+01	-6.733204e+02
2.800000e-07	-6.761514e-06	-1.022050e-08	-4.857708e+01	-6.700342e+02
2.900000e-07	-6.681593e-06	-1.017853e-08	-4.800290e+01	-6.666143e+02
3.000000e-07	-6.599096e-06	-1.012054e-08	-4.741021e+01	-6.630674e+02
3.100000e-07	-6.514343e-06	-1.006787e-08	-4.680132e+01	-6.594001e+02
3.200000e-07	-6.427356e-06	-9.986119e-09	-4.617637e+01	-6.556180e+02
3.300000e-07	-6.338075e-06	-9.930305e-09	-4.553495e+01	-6.517243e+02
3.400000e-07	-6.246509e-06	-9.869067e-09	-4.487710e+01	-6.477186e+02
3.500000e-07	-6.152673e-06	-9.805823e-09	-4.420295e+01	-6.435968e+02
3.600000e-07	-6.056588e-06	-9.744884e-09	-4.351264e+01	-6.393509e+02
3.700000e-07	-5.958224e-06	-9.686455e-09	-4.280596e+01	-6.349696e+02
3.800000e-07	-5.857670e-06	-9.620894e-09	-4.208355e+01	-6.304395e+02
3.900000e-07	-5.755083e-06	-9.537730e-09	-4.134653e+01	-6.257469e+02
4.000000e-07	-5.650479e-06	-9.461289e-09	-4.059501e+01	-6.208791e+02
4.100000e-07	-5.543831e-06	-9.377143e-09	-3.982882e+01	-6.158262e+02
4.200000e-07	-5.435198e-06	-9.307301e-09	-3.904836e+01	-6.105822e+02
4.300000e-07	-5.324702e-06	-9.237967e-09	-3.825452e+01	-6.051454e+02
4.400000e-07	-5.212255e-06	-9.158088e-09	-3.744666e+01	-5.995184e+02
4.500000e-07	-5.097735e-06	-9.061850e-09	-3.662391e+01	-5.937068e+02
4.600000e-07	-4.981245e-06	-8.962545e-09	-3.578701e+01	-5.877181e+02
4.700000e-07	-4.862968e-06	-8.864983e-09	-3.493726e+01	-5.815592e+02
4.800000e-07	-4.742858e-06	-8.768140e-09	-3.407435e+01	-5.752351e+02
4.900000e-07	-4.620994e-06	-8.677711e-09	-3.319883e+01	-5.687464e+02
5.000000e-07	-4.497505e-06	-8.578675e-09	-3.231165e+01	-5.620888e+02
5.100000e-07	-4.372344e-06	-8.469469e-09	-3.141244e+01	-5.552524e+02
5.200000e-07	-4.245585e-06	-8.353338e-09	-3.050176e+01	-5.482223e+02
5.300000e-07	-4.117292e-06	-8.243219e-09	-2.958006e+01	-5.409799e+02
5.400000e-07	-3.987487e-06	-8.129527e-09	-2.864750e+01	-5.335051e+02
5.500000e-07	-3.856214e-06	-8.009575e-09	-2.770439e+01	-5.257784e+02
5.600000e-07	-3.723449e-06	-7.886722e-09	-2.675056e+01	-5.177829e+02
5.700000e-07	-3.589235e-06	-7.761638e-09	-2.578632e+01	-5.095066e+02
5.800000e-07	-3.453631e-06	-7.631262e-09	-2.481210e+01	-5.009429e+02
5.900000e-07	-3.316679e-06	-7.492854e-09	-2.382818e+01	-4.920906e+02
6.000000e-07	-3.178492e-06	-7.353561e-09	-2.283540e+01	-4.829529e+02
6.100000e-07	-3.039040e-06	-7.210357e-09	-2.183353e+01	-4.735355e+02
6.200000e-07	-2.898196e-06	-7.064109e-09	-2.082165e+01	-4.638437e+02
6.300000e-07	-2.756063e-06	-6.918150e-09	-1.980052e+01	-4.538798e+02
6.400000e-07	-2.612893e-06	-6.769473e-09	-1.877194e+01	-4.436404e+02
6.500000e-07	-2.468810e-06	-6.605880e-09	-1.773679e+01	-4.331145e+02
6.600000e-07	-2.323895e-06	-6.428705e-09	-1.669568e+01	-4.222834e+02
6.700000e-07	-2.178126e-06	-6.249705e-09	-1.564842e+01	-4.111206e+02
6.800000e-07	-2.031517e-06	-6.070074e-09	-1.459513e+01	-3.995940e+02
6.900000e-07	-1.884233e-06	-5.889006e-09	-1.353699e+01	-3.876688e+02
7.000000e-07	-1.736444e-06	-5.702067e-09	-1.247522e+01	-3.753112e+02
7.100000e-07	-1.588165e-06	-5.509995e-09	-1.140993e+01	-3.624916e+02
7.200000e-07	-1.439346e-06	-5.309117e-09	-1.034076e+01	-3.491876e+02
7.300000e-07	-1.290051e-06	-5.099553e-09	-9.268175e+00	-3.353858e+02
7.400000e-07	-1.140340e-06	-4.883967e-09	-8.192598e+00	-3.210812e+02
7.500000e-07	-9.902681e-07	-4.660517e-09	-7.114432e+00	-3.062757e+02
7.600000e-07	-8.399017e-07	-4.428818e-09	-6.034148e+00	-2.909741e+02
7.700000e-07	-6.892143e-07	-4.189074e-09	-4.951556e+00	-2.751789e+02
7.800000e-07	-5.382703e-07	-3.941349e-09	-3.867122e+00	-2.588844e+02
7.900000e-07	-3.871500e-07	-3.683735e-09	-2.781421e+00	-2.420713e+02
8.000000e-07	-2.358619e-07	-3.417465e-09	-1.694515e+00	-2.247014e+02
8.100000e-07	-8.442978e-08	-3.140606e-09	-6.065730e-01	-2.067162e+02
8.200000e-07	6.707045e-08	-2.854051e-09	4.818575e-01	-1.880365e+02
8.300000e-07	2.185491e-07	-2.553885e-09	1.570133e+00	-1.685667e+02
8.400000e-07	3.699801e-07	-2.237637e-09	2.658067e+00	-1.482017e+02
8.500000e-07	5.213170e-07	-1.907076e-09	3.745324e+00	-1.268365e+02
8.600000e-07	6.725120e-07	-1.565197e-09	4.831561e+00	-1.043792e+02
8.700000e-07	8.235066e-07	-1.209191e-09	5.916359e+00	-8.076282e+01
8.800000e-07	9.742388e-07	-8.334474e-10	6.999272e+00	-5.595872e+01
8.900000e-07	1.124712e-06	-4.417959e-10	8.080322e+00	-2.998643e+01
9.000000e-07	1.274861e-06	-3.656142e-11	9.159046e+00	-2.921033e+00
9.100000e-07	1.424504e-06	3.841934e-10	1.023413e+01	2.510411e+01
9.200000e-07	1.573511e-06	8.251480e-10	1.130465e+01	5.389954e+01
9.300000e-07	1.721890e-06	1.279770e-09	1.237066e+01	8.322689e+01
9.400000e-07	1.869695e-06	1.739550e-09	1.343254e+01	1.128107e+02
9.500000e-07	2.016874e-06	2.197801e-09	1.448993e+01	1.423537e+02
9.600000e-07	2.163372e-06	2.646283e-09	1.554242e+01	1.715542e+02
9.700000e-07	2.309081e-06	3.081209e-09	1.658925e+01	2.001244e+02
9.800000e-07	2.453895e-06	3.499298e-09	1.762964e+01	2.278066e+02
9.900000e-07	2.597780e-06	3.898235e-09	1.866336e+01	2.543877e+02
1.000000e-06	2.740640e-06	4.274904e-09	1.968971e+01	2.797087e+02
1.010000e-06	2.882426e-06	4.633139e-09	2.070836e+01	3.036700e+02
1.020000e-06	3.023044e-06	4.972839e-09	2.171860e+01	3.262314e+02
1.030000e-06	3.162402e-06	5.293951e-09	2.271980e+01	3.474071e+02
1.040000e-06	3.300549e-06	5.596902e-09	2.371230e+01	3.672568e+02
1.050000e-06	3.437454e-06	5.882429e-09	2.469587e+01	3.858740e+02
1.060000e-06	3.572972e-06	6.151402e-09	2.566948e+01	4.033728e+02
1.070000e-06	3.707150e-06	6.403849e-09	2.663346e+01	4.198752e+02
1.080000e-06	3.840039e-06	6.641466e-09	2.758818e+01	4.354987e+02
1.090000e-06	3.971513e-06	6.865817e-09	2.853274e+01	4.503478e+02
1.100000e-06	4.101598e-06	7.081568e-09	2.946732e+01	4.645074e+02
1.110000e-06	4.230344e-06	7.288043e-09	3.039227e+01	4.780407e+02
1.120000e-06	4.357604e-06	7.485172e-09	3.130655e+01	4.909893e+02
1.130000e-06	4.483307e-06	7.672104e-09	3.220964e+01	5.033768e+02
1.140000e-06	4.607426e-06	7.848807e-09	3.310136e+01	5.152139e+02
1.150000e-06	4.729930e-06	8.015332e-09	3.398147e+01	5.265041e+02
1.160000e-06	4.850783e-06	8.174035e-09	3.484972e+01	5.372496e+02
1.170000e-06	4.969837e-06	8.327956e-09	3.570504e+01	5.474561e+02
1.180000e-06	5.087046e-06	8.476069e-09	3.654711e+01	5.571362e+02
1.190000e-06	5.202352e-06	8.617154e-09	3.737552e+01	5.663105e+02
1.200000e-06	5.315685e-06	8.752481e-09	3.818973e+01	5.750077e+02
1.210000e-06	5.427015e-06	8.881559e-09	3.898957e+01	5.832622e+02
1.220000e-06	5.536391e-06	9.006880e-09	3.977537e+01	5.911114e+02
1.230000e-06	5.643833e-06	9.127153e-09	4.054727e+01	5.985927e+02
1.240000e-06	5.749278e-06	9.237628e-09	4.130482e+01	6.057394e+02
1.250000e-06	5.852627e-06	9.340015e-09	4.204731e+01	6.125794e+02
1.260000e-06	5.953802e-06	9.436278e-09	4.277420e+01	6.191332e+02
1.270000e-06	6.052767e-06	9.528893e-09	4.348520e+01	6.254142e+02
1.280000e-06	6.149405e-06	9.617829e-09	4.417948e+01	6.314297e+02
1.290000e-06	6.243742e-06	9.701964e-09	4.485722e+01	6.371827e+02
1.300000e-06	6.335848e-06	9.782572e-09	4.551895e+01	6.426747e+02
1.310000e-06	6.425711e-06	9.862029e-09	4.616455e+01	6.479076e+02
1.320000e-06	6.513236e-06	9.940258e-09	4.679336e+01	6.528862e+02
1.330000e-06	6.598444e-06	1.001560e-08	4.740553e+01	6.576191e+02
1.340000e-06	6.681412e-06	1.008620e-08	4.800160e+01	6.621190e+02
1.350000e-06	6.761991e-06	1.015018e-08	4.858050e+01	6.664017e+02
1.360000e-06	6.840036e-06	1.020884e-08	4.914121e+01	6.704851e+02
1.370000e-06	6.915533e-06	1.026772e-08	4.968360e+01	6.743863e+02
1.380000e-06	6.988406e-06	1.032721e-08	5.020715e+01	6.781200e+02
1.390000e-06	7.058740e-06	1.038329e-08	5.071245e+01	6.816963e+02
1.400000e-06	7.126634e-06	1.043552e-08	5.120023e+01	6.851198e+02
1.410000e-06	7.191935e-06	1.048546e-08	5.166938e+01	6.883886e+02
1.420000e-06	7.254702e-06	1.053237e-08	5.212031e+01	6.914956e+02
1.430000e-06	7.315027e-06	1.057476e-08	5.255371e+01	6.944297e+02
1.440000e-06	7.372737e-06	1.061328e-08	5.296832e+01	6.971780e+02
1.450000e-06	7.427770e-06	1.065115e-08	5.336370e+01	6.997286e+02
1.460000e-06	7.480014e-06	1.068646e-08	5.373903e+01	7.020725e+02
1.470000e-06	7.529219e-06	1.071721e-08	5.409254e+01	7.042064e+02
1.480000e-06	7.575536e-06	1.074678e-08	5.442530e+01	7.061330e+02
1.490000e-06	7.619258e-06	1.077454e-08	5.473941e+01	7.078619e+02
1.500000e-06	7.660269e-06	1.079931e-08	5.503405e+01	7.094087e+02
1.510000e-06	7.698502e-06	1.082001e-08	5.530873e+01	7.107928e+02
1.520000e-06	7.734080e-06	1.083785e-08	5.556433e+01	7.120358e+02
1.530000e-06	7.766890e-06	1.085646e-08	5.580005e+01	7.131582e+02
1.540000e-06	7.796917e-06	1.087556e-08	5.601577e+01	7.141777e+02
1.550000e-06	7.824215e-06	1.089229e-08	5.621190e+01	7.151065e+02
1.560000e-06	7.848593e-06	1.090465e-08	5.638704e+01	7.159505e+02
1.570000e-06	7.870106e-06	1.091419e-08	5.654159e+01	7.167089e+02
1.580000e-06	7.888951e-06	1.092337e-08	5.667698e+01	7.173752e+02
1.590000e-06	7.904935e-06	1.093246e-08	5.679181e+01	7.179383e+02
1.600000e-06	7.917840e-06	1.094030e-08	5.688453e+01	7.183854e+02
1.610000e-06	7.927585e-06	1.094542e-08	5.695454e+01	7.187036e+02
1.620000e-06	7.934364e-06	1.094908e-08	5.700324e+01	7.188830e+02
1.630000e-06	7.938437e-06	1.095165e-08	5.703250e+01	7.189178e+02
1.640000e-06	7.939689e-06	1.095346e-08	5.704150e+01	7.188080e+02
1.650000e-06	7.938168e-06	1.095194e-08	5.703058e+01	7.185592e+02
1.660000e-06	7.934104e-06	1.094472e-08	5.700137e+01	7.181824e+02
1.670000e-06	7.927396e-06	1.093838e-08	5.695318e+01	7.176920e+02
1.680000e-06	7.918032e-06	1.093064e-08	5.688591e+01	7.171047e+02
1.690000e-06	7.905944e-06	1.092182e-08	5.679906e+01	7.164367e+02
1.700000e-06	7.891006e-06	1.091521e-08	5.669174e+01	7.157020e+02
1.710000e-06	7.873565e-06	1.090597e-08	5.656644e+01	7.149107e+02
1.720000e-06	7.853932e-06	1.088692e-08	5.642539e+01	7.140680e+02
1.730000e-06	7.831731e-06	1.080835e-08	5.626589e+01	7.131741e+02
1.740000e-06	7.806275e-06	1.076344e-08	5.608301e+01	7.122242e+02
1.750000e-06	7.777213e-06	1.079115e-08	5.587421e+01	7.112097e+02
1.760000e-06	7.744843e-06	1.079243e-08	5.564166e+01	7.101198e+02
1.770000e-06	7.709951e-06	1.077873e-08	5.539098e+01	7.089423e+02
1.780000e-06	7.672778e-06	1.080580e-08	5.512392e+01	7.076659e+02
1.790000e-06	7.633396e-06	1.083343e-08	5.484098e+01	7.062804e+02
1.800000e-06	7.592034e-06	1.070913e-08	5.454382e+01	7.047781e+02
1.810000e-06	7.548234e-06	1.071150e-08	5.422915e+01	7.031534e+02
1.820000e-06	7.501755e-06	1.072129e-08	5.389523e+01	7.014027e+02
1.830000e-06	7.452592e-06	1.064752e-08	5.354203e+01	6.995241e+02
1.840000e-06	7.400421e-06	1.069354e-08	5.316721e+01	6.975160e+02
1.850000e-06	7.345371e-06	1.061765e-08	5.277171e+01	6.953770e+02
1.860000e-06	7.287667e-06	1.059312e-08	5.235714e+01	6.931053e+02
1.870000e-06	7.227351e-06	1.052028e-08	5.192381e+01	6.906983e+02
1.880000e-06	7.164357e-06	1.046236e-08	5.147124e+01	6.881530e+02
1.890000e-06	7.098596e-06	1.049517e-08	5.099879e+01	6.854664e+02
1.900000e-06	7.030119e-06	1.039480e-08	5.050683e+01	6.826364e+02
1.910000e-06	6.958833e-06	1.038781e-08	4.999469e+01	6.796619e+02
1.920000e-06	6.884886e-06	1.032453e-08	4.946343e+01	6.765441e+02
1.930000e-06	6.808242e-06	1.025961e-08	4.891279e+01	6.732861e+02
1.940000e-06	6.728814e-06	1.020814e-08	4.834215e+01	6.698933e+02
1.950000e-06	6.646939e-06	1.013565e-08	4.775393e+01	6.663719e+02
1.960000e-06	6.562637e-06	1.013683e-08	4.714828e+01	6.627288e+02
1.970000e-06	6.475849e-06	1.005227e-08	4.652476e+01	6.589699e+02
1.980000e-06	6.386666e-06	1.000811e-08	4.588404e+01	6.550989e+02
1.990000e-06	6.295290e-06	9.942920e-09	4.522756e+01	6.511163e+02
2.000000e-06	6.201718e-06	9.864687e-09	4.455531e+01	6.470189e+02
2.010000e-06	6.105858e-06	9.791374e-09	4.386661e+01	6.427993e+02
2.020000e-06	6.007788e-06	9.724597e-09	4.316204e+01	6.384470e+02
2.030000e-06	5.907551e-06	9.679511e-09	4.244191e+01	6.339489e+02
2.040000e-06	5.805257e-06	9.601723e-09	4.170699e+01	6.292911e+02
2.050000e-06	5.700888e-06	9.537080e-09	4.095717e+01	6.244607e+02
2.060000e-06	5.594593e-06	9.449752e-09	4.019351e+01	6.194470e+02
2.070000e-06	5.486428e-06	9.359649e-09	3.941642e+01	6.142432e+02
2.080000e-06	5.376325e-06	9.260120e-09	3.862540e+01	6.088465e+02
2.090000e-06	5.264214e-06	9.183375e-09	3.781995e+01	6.032588e+02
2.100000e-06	5.150078e-06	9.108968e-09	3.699996e+01	5.974851e+02
2.110000e-06	5.034031e-06	9.028719e-09	3.616624e+01	5.915326e+02
2.120000e-06	4.916017e-06	8.942515e-09	3.531838e+01	5.854086e+02
2.130000e-06	4.796069e-06	8.841599e-09	3.445663e+01	5.791186e+02
2.140000e-06	4.674375e-06	8.736571e-09	3.358234e+01	5.726643e+02
2.150000e-06	4.550997e-06	8.626056e-09	3.269596e+01	5.660424e+02
2.160000e-06	4.425903e-06	8.527389e-09	3.179723e+01	5.592443e+02
2.170000e-06	4.299238e-06	8.426284e-09	3.088723e+01	5.522560e+02
2.180000e-06	4.170937e-06	8.323635e-09	2.996547e+01	5.450597e+02
2.190000e-06	4.041101e-06	8.210866e-09	2.903268e+01	5.376354e+02
2.200000e-06	3.909864e-06	8.091153e-09	2.808983e+01	5.299631e+02
2.210000e-06	3.777151e-06	7.962932e-09	2.713637e+01	5.220253e+02
2.220000e-06	3.643006e-06	7.838812e-09	2.617263e+01	5.138089e+02
2.230000e-06	3.507498e-06	7.717417e-09	2.519909e+01	5.053059e+02
2.240000e-06	3.370650e-06	7.588961e-09	2.421593e+01	4.965142e+02
2.250000e-06	3.232484e-06	7.451187e-09	2.322329e+01	4.874362e+02
2.260000e-06	3.093093e-06	7.308668e-09	2.222186e+01	4.780771e+02
2.270000e-06	2.952524e-06	7.159277e-09	2.121197e+01	4.684427e+02
2.280000e-06	2.810774e-06	7.001162e-09	2.019358e+01	4.585360e+02
2.290000e-06	2.667941e-06	6.846260e-09	1.916742e+01	4.483552e+02
2.300000e-06	2.524150e-06	6.691716e-09	1.813438e+01	4.378910e+02
2.310000e-06	2.379473e-06	6.533203e-09	1.709497e+01	4.271262e+02
2.320000e-06	2.233996e-06	6.366972e-09	1.604981e+01	4.160359e+02
2.330000e-06	2.087796e-06	6.193369e-09	1.499946e+01	4.045890e+02
2.340000e-06	1.940894e-06	6.009992e-09	1.394406e+01	3.927510e+02
2.350000e-06	1.793276e-06	5.815424e-09	1.288352e+01	3.804877e+02
2.360000e-06	1.645042e-06	5.616684e-09	1.181856e+01	3.677682e+02
2.370000e-06	1.496314e-06	5.416469e-09	1.075004e+01	3.545684e+02
2.380000e-06	1.347078e-06	5.213703e-09	9.677879e+00	3.408728e+02
2.390000e-06	1.197428e-06	5.002488e-09	8.602738e+00	3.266749e+02
2.400000e-06	1.047456e-06	4.779580e-09	7.525289e+00	3.119752e+02
2.410000e-06	8.971671e-07	4.547011e-09	6.445562e+00	2.967785e+02
2.420000e-06	7.465971e-07	4.308263e-09	5.363814e+00	2.810881e+02
2.430000e-06	5.957822e-07	4.065453e-09	4.280308e+00	2.649006e+02
2.440000e-06	4.448007e-07	3.813097e-09	3.195604e+00	2.482000e+02
2.450000e-06	2.936985e-07	3.548072e-09	2.110032e+00	2.309526e+02
2.460000e-06	1.424708e-07	3.270318e-09	1.023560e+00	2.131041e+02
2.470000e-06	-8.880505e-09	2.980696e-09	-6.380065e-02	1.945798e+02
2.480000e-06	-1.603044e-07	2.682243e-09	-1.151682e+00	1.752869e+02
2.490000e-06	-3.116634e-07	2.374381e-09	-2.239099e+00	1.551215e+02
2.500000e-06	-4.628976e-07	2.053728e-09	-3.325618e+00	1.339780e+02
2.510000e-06	-6.139956e-07	1.716640e-09	-4.411159e+00	1.117603e+02
2.520000e-06	-7.649020e-07	1.361395e-09	-5.495323e+00	8.839509e+01
2.530000e-06	-9.156025e-07	9.912434e-10	-6.578008e+00	6.384456e+01
2.540000e-06	-1.066042e-06	6.087610e-10	-7.658818e+00	3.811715e+01
2.550000e-06	-1.216172e-06	2.077535e-10	-8.737408e+00	1.127566e+01
2.560000e-06	-1.365891e-06	-2.158150e-10	-9.813037e+00	-1.655904e+01
2.570000e-06	-1.515092e-06	-6.566884e-10	-1.088495e+01	-4.520904e+01
2.580000e-06	-1.663759e-06	-1.105058e-09	-1.195303e+01	-7.444564e+01
2.590000e-06	-1.811846e-06	-1.557941e-09	-1.301693e+01	-1.040001e+02
2.600000e-06	-1.959236e-06	-2.014728e-09	-1.407584e+01	-1.335785e+02
2.610000e-06	-2.105833e-06	-2.470642e-09	-1.512904e+01	-1.628785e+02
2.620000e-06	-2.251627e-06	-2.915514e-09	-1.617647e+01	-1.916077e+02
2.630000e-06	-2.396550e-06	-3.340866e-09	-1.721765e+01	-2.195010e+02
2.640000e-06	-2.540517e-06	-3.746869e-09	-1.825196e+01	-2.463344e+02
2.650000e-06	-2.683495e-06	-4.134037e-09	-1.927917e+01	-2.719370e+02
2.660000e-06	-2.825427e-06	-4.502485e-09	-2.029885e+01	-2.961961e+02
2.670000e-06	-2.966277e-06	-4.849551e-09	-2.131077e+01	-3.190592e+02
2.680000e-06	-3.105924e-06	-5.175200e-09	-2.231404e+01	-3.405293e+02
2.690000e-06	-3.244347e-06	-5.480774e-09	-2.330852e+01	-3.606572e+02
2.700000e-06	-3.381550e-06	-5.768564e-09	-2.429424e+01	-3.795305e+02
2.710000e-06	-3.517391e-06	-6.040846e-09	-2.527017e+01	-3.972599e+02
2.720000e-06	-3.651896e-06	-6.300106e-09	-2.623650e+01	-4.139667e+02
2.730000e-06	-3.785127e-06	-6.547219e-09	-2.719367e+01	-4.297703e+02
2.740000e-06	-3.917000e-06	-6.780931e-09	-2.814110e+01	-4.447785e+02
2.750000e-06	-4.047475e-06	-7.004063e-09	-2.907848e+01	-4.590809e+02
2.760000e-06	-4.176600e-06	-7.218193e-09	-3.000615e+01	-4.727453e+02
2.770000e-06	-4.304300e-06	-7.422019e-09	-3.092359e+01	-4.858177e+02
2.780000e-06	-4.430542e-06	-7.613065e-09	-3.183056e+01	-4.983253e+02
2.790000e-06	-4.555237e-06	-7.789082e-09	-3.272641e+01	-5.102810e+02
2.800000e-06	-4.678225e-06	-7.956321e-09	-3.361000e+01	-5.216894e+02
2.810000e-06	-4.799559e-06	-8.119503e-09	-3.448171e+01	-5.325524e+02
2.820000e-06	-4.919173e-06	-8.275361e-09	-3.534106e+01	-5.428747e+02
2.830000e-06	-5.036890e-06	-8.423630e-09	-3.618678e+01	-5.526672e+02
2.840000e-06	-5.152582e-06	-8.565723e-09	-3.701795e+01	-5.619488e+02
2.850000e-06	-5.266169e-06	-8.701934e-09	-3.783400e+01	-5.707465e+02
2.860000e-06	-5.377685e-06	-8.832833e-09	-3.863517e+01	-5.790939e+02
2.870000e-06	-5.487157e-06	-8.956219e-09	-3.942165e+01	-5.870279e+02
2.880000e-06	-5.594688e-06	-9.072391e-09	-4.019419e+01	-5.945861e+02
2.890000e-06	-5.700309e-06	-9.184258e-09	-4.095301e+01	-6.018030e+02
2.900000e-06	-5.803825e-06	-9.290622e-09	-4.169670e+01	-6.087078e+02
2.910000e-06	-5.905171e-06	-9.390301e-09	-4.242481e+01	-6.153227e+02
2.920000e-06	-6.004368e-06	-9.484868e-09	-4.313747e+01	-6.216625e+02
2.930000e-06	-6.101454e-06	-9.577150e-09	-4.383498e+01	-6.277356e+02
2.940000e-06	-6.196401e-06	-9.667514e-09	-4.451711e+01	-6.335458e+02
