# Temperatura_=_39.53
# Concentracion g/m^3_=_10000.0
# C_Vs_to_Am_M_A/Vsm_=_65563218390.804596
# pendiente_HvsI_1/m_=_3716.3
# ordenada_HvsI_A/m_=_1297.0
# frecuencia_Hz_=_302622.4747362374

Tiempo_(s)	Campo_(V.s)	Magnetizacion_(V.s)	Campo_(kA/m)	Magnetizacion_(A/m)
0.000000e+00	-7.923802e-06	-1.023160e-08	-5.681507e+01	-6.693840e+02
1.000000e-08	-7.919166e-06	-1.022784e-08	-5.678183e+01	-6.690310e+02
2.000000e-08	-7.911978e-06	-1.021866e-08	-5.673029e+01	-6.685732e+02
3.000000e-08	-7.902075e-06	-1.020951e-08	-5.665928e+01	-6.680267e+02
4.000000e-08	-7.889268e-06	-1.020097e-08	-5.656746e+01	-6.674090e+02
5.000000e-08	-7.873534e-06	-1.019170e-08	-5.645464e+01	-6.667372e+02
6.000000e-08	-7.855164e-06	-1.018463e-08	-5.632293e+01	-6.660259e+02
7.000000e-08	-7.834529e-06	-1.018391e-08	-5.617497e+01	-6.652855e+02
8.000000e-08	-7.811387e-06	-1.019001e-08	-5.600904e+01	-6.645213e+02
9.000000e-08	-7.785175e-06	-1.020060e-08	-5.582110e+01	-6.637335e+02
1.000000e-07	-7.755776e-06	-1.018202e-08	-5.561030e+01	-6.629166e+02
1.100000e-07	-7.723501e-06	-1.014043e-08	-5.537888e+01	-6.620609e+02
1.200000e-07	-7.688492e-06	-1.010460e-08	-5.512786e+01	-6.611533e+02
1.300000e-07	-7.651006e-06	-1.007036e-08	-5.485908e+01	-6.601792e+02
1.400000e-07	-7.611378e-06	-1.004045e-08	-5.457493e+01	-6.591231e+02
1.500000e-07	-7.569527e-06	-1.001146e-08	-5.427485e+01	-6.579709e+02
1.600000e-07	-7.525099e-06	-1.002767e-08	-5.395630e+01	-6.567101e+02
1.700000e-07	-7.477907e-06	-1.003830e-08	-5.361793e+01	-6.553309e+02
1.800000e-07	-7.427949e-06	-9.969012e-09	-5.325972e+01	-6.538260e+02
1.900000e-07	-7.375040e-06	-9.951578e-09	-5.288035e+01	-6.521909e+02
2.000000e-07	-7.319253e-06	-9.893166e-09	-5.248035e+01	-6.504235e+02
2.100000e-07	-7.260764e-06	-9.825406e-09	-5.206097e+01	-6.485231e+02
2.200000e-07	-7.199646e-06	-9.825122e-09	-5.162275e+01	-6.464907e+02
2.300000e-07	-7.135956e-06	-9.800029e-09	-5.116608e+01	-6.443279e+02
2.400000e-07	-7.069489e-06	-9.790701e-09	-5.068950e+01	-6.420369e+02
2.500000e-07	-7.000275e-06	-9.751848e-09	-5.019322e+01	-6.396202e+02
2.600000e-07	-6.928397e-06	-9.715339e-09	-4.967784e+01	-6.370804e+02
2.700000e-07	-6.853741e-06	-9.677262e-09	-4.914255e+01	-6.344204e+02
2.800000e-07	-6.776354e-06	-9.639106e-09	-4.858766e+01	-6.316430e+02
2.900000e-07	-6.696237e-06	-9.603310e-09	-4.801321e+01	-6.287508e+02
3.000000e-07	-6.613597e-06	-9.552135e-09	-4.742067e+01	-6.257463e+02
3.100000e-07	-6.528740e-06	-9.505899e-09	-4.681223e+01	-6.226309e+02
3.200000e-07	-6.441599e-06	-9.436714e-09	-4.618741e+01	-6.194050e+02
3.300000e-07	-6.352123e-06	-9.376479e-09	-4.554585e+01	-6.160675e+02
3.400000e-07	-6.260353e-06	-9.329825e-09	-4.488785e+01	-6.126152e+02
3.500000e-07	-6.166368e-06	-9.279489e-09	-4.421395e+01	-6.090433e+02
3.600000e-07	-6.070180e-06	-9.228497e-09	-4.352427e+01	-6.053448e+02
3.700000e-07	-5.971693e-06	-9.167935e-09	-4.281810e+01	-6.015117e+02
3.800000e-07	-5.871008e-06	-9.107798e-09	-4.209617e+01	-5.975350e+02
3.900000e-07	-5.768259e-06	-9.048090e-09	-4.135945e+01	-5.934062e+02
4.000000e-07	-5.663495e-06	-8.982389e-09	-4.060827e+01	-5.891175e+02
4.100000e-07	-5.556748e-06	-8.906196e-09	-3.984287e+01	-5.846633e+02
4.200000e-07	-5.448043e-06	-8.836226e-09	-3.906344e+01	-5.800402e+02
4.300000e-07	-5.337415e-06	-8.773586e-09	-3.827021e+01	-5.752473e+02
4.400000e-07	-5.224826e-06	-8.702558e-09	-3.746293e+01	-5.702860e+02
4.500000e-07	-5.110143e-06	-8.621779e-09	-3.664063e+01	-5.651595e+02
4.600000e-07	-4.993407e-06	-8.540006e-09	-3.580362e+01	-5.598711e+02
4.700000e-07	-4.874810e-06	-8.453916e-09	-3.495326e+01	-5.544236e+02
4.800000e-07	-4.754456e-06	-8.363862e-09	-3.409029e+01	-5.488175e+02
4.900000e-07	-4.632406e-06	-8.275882e-09	-3.321518e+01	-5.430504e+02
5.000000e-07	-4.508672e-06	-8.189242e-09	-3.232798e+01	-5.371157e+02
5.100000e-07	-4.383302e-06	-8.095696e-09	-3.142906e+01	-5.310027e+02
5.200000e-07	-4.256301e-06	-7.993133e-09	-3.051844e+01	-5.246973e+02
5.300000e-07	-4.127766e-06	-7.892238e-09	-2.959682e+01	-5.181827e+02
5.400000e-07	-3.997753e-06	-7.791144e-09	-2.866460e+01	-5.114407e+02
5.500000e-07	-3.866179e-06	-7.686320e-09	-2.772119e+01	-5.044540e+02
5.600000e-07	-3.733193e-06	-7.573729e-09	-2.676766e+01	-4.972073e+02
5.700000e-07	-3.598867e-06	-7.454280e-09	-2.580452e+01	-4.896888e+02
5.800000e-07	-3.463074e-06	-7.329624e-09	-2.483085e+01	-4.818914e+02
5.900000e-07	-3.325852e-06	-7.204553e-09	-2.384695e+01	-4.738120e+02
6.000000e-07	-3.187319e-06	-7.080248e-09	-2.285364e+01	-4.654513e+02
6.100000e-07	-3.047471e-06	-6.952234e-09	-2.185091e+01	-4.568123e+02
6.200000e-07	-2.906285e-06	-6.819145e-09	-2.083858e+01	-4.478980e+02
6.300000e-07	-2.763942e-06	-6.680251e-09	-1.981796e+01	-4.387093e+02
6.400000e-07	-2.620549e-06	-6.537823e-09	-1.878980e+01	-4.292433e+02
6.500000e-07	-2.476141e-06	-6.389062e-09	-1.775437e+01	-4.194910e+02
6.600000e-07	-2.330886e-06	-6.233815e-09	-1.671287e+01	-4.094370e+02
6.700000e-07	-2.184835e-06	-6.070621e-09	-1.566566e+01	-3.990594e+02
6.800000e-07	-2.038009e-06	-5.899330e-09	-1.461289e+01	-3.883314e+02
6.900000e-07	-1.890492e-06	-5.724259e-09	-1.355517e+01	-3.772229e+02
7.000000e-07	-1.742423e-06	-5.546879e-09	-1.249348e+01	-3.657036e+02
7.100000e-07	-1.593871e-06	-5.366513e-09	-1.142834e+01	-3.537455e+02
7.200000e-07	-1.444839e-06	-5.178839e-09	-1.035975e+01	-3.413258e+02
7.300000e-07	-1.295342e-06	-4.985043e-09	-9.287835e+00	-3.284283e+02
7.400000e-07	-1.145389e-06	-4.784766e-09	-8.212646e+00	-3.150441e+02
7.500000e-07	-9.950314e-07	-4.577048e-09	-7.134552e+00	-3.011701e+02
7.600000e-07	-8.443560e-07	-4.361625e-09	-6.054183e+00	-2.868070e+02
7.700000e-07	-6.933622e-07	-4.136642e-09	-4.971531e+00	-2.719555e+02
7.800000e-07	-5.420712e-07	-3.901202e-09	-3.886747e+00	-2.566110e+02
7.900000e-07	-3.906010e-07	-3.657708e-09	-2.800679e+00	-2.407601e+02
8.000000e-07	-2.389726e-07	-3.407542e-09	-1.713476e+00	-2.243753e+02
8.100000e-07	-8.718660e-08	-3.148143e-09	-6.251434e-01	-2.074132e+02
8.200000e-07	6.468380e-08	-2.878624e-09	4.637944e-01	-1.898135e+02
8.300000e-07	2.165084e-07	-2.596405e-09	1.552404e+00	-1.715012e+02
8.400000e-07	3.682384e-07	-2.300520e-09	2.640335e+00	-1.523913e+02
8.500000e-07	5.198643e-07	-1.991032e-09	3.727520e+00	-1.323961e+02
8.600000e-07	6.713862e-07	-1.672086e-09	4.813959e+00	-1.114348e+02
8.700000e-07	8.227433e-07	-1.340516e-09	5.899216e+00	-8.944411e+01
8.800000e-07	9.738357e-07	-9.906894e-10	6.982576e+00	-6.638872e+01
8.900000e-07	1.124615e-06	-6.240459e-10	8.063693e+00	-4.227132e+01
9.000000e-07	1.274978e-06	-2.438320e-10	9.141816e+00	-1.713990e+01
9.100000e-07	1.424817e-06	1.480098e-10	1.021619e+01	8.908097e+00
9.200000e-07	1.574052e-06	5.551287e-10	1.128623e+01	3.572548e+01
9.300000e-07	1.722704e-06	9.751274e-10	1.235209e+01	6.311939e+01
9.400000e-07	1.870800e-06	1.403139e-09	1.341397e+01	9.085937e+01
9.500000e-07	2.018291e-06	1.832203e-09	1.447150e+01	1.186890e+02
9.600000e-07	2.165088e-06	2.255758e-09	1.552407e+01	1.463402e+02
9.700000e-07	2.311021e-06	2.671243e-09	1.657043e+01	1.735481e+02
9.800000e-07	2.456038e-06	3.073118e-09	1.761023e+01	2.000667e+02
9.900000e-07	2.600202e-06	3.459930e-09	1.864391e+01	2.256823e+02
1.000000e-06	2.743372e-06	3.827771e-09	1.967047e+01	2.502238e+02
1.010000e-06	2.885404e-06	4.175796e-09	2.068886e+01	2.735698e+02
1.020000e-06	3.026273e-06	4.505884e-09	2.169891e+01	2.956515e+02
1.030000e-06	3.165933e-06	4.819619e-09	2.270030e+01	3.164505e+02
1.040000e-06	3.304340e-06	5.117816e-09	2.369271e+01	3.359934e+02
1.050000e-06	3.441440e-06	5.398694e-09	2.467574e+01	3.543432e+02
1.060000e-06	3.577223e-06	5.663303e-09	2.564933e+01	3.715884e+02
1.070000e-06	3.711718e-06	5.912231e-09	2.661368e+01	3.878314e+02
1.080000e-06	3.844867e-06	6.146402e-09	2.756838e+01	4.031778e+02
1.090000e-06	3.976654e-06	6.368768e-09	2.851332e+01	4.177266e+02
1.100000e-06	4.107058e-06	6.578913e-09	2.944834e+01	4.315633e+02
1.110000e-06	4.236016e-06	6.776466e-09	3.037299e+01	4.447556e+02
1.120000e-06	4.363470e-06	6.964219e-09	3.128686e+01	4.573520e+02
1.130000e-06	4.489400e-06	7.144864e-09	3.218980e+01	4.693831e+02
1.140000e-06	4.613831e-06	7.319934e-09	3.308199e+01	4.808654e+02
1.150000e-06	4.736694e-06	7.485888e-09	3.396294e+01	4.918060e+02
1.160000e-06	4.857857e-06	7.642264e-09	3.483170e+01	5.022075e+02
1.170000e-06	4.977168e-06	7.789432e-09	3.568718e+01	5.120736e+02
1.180000e-06	5.094608e-06	7.929421e-09	3.652925e+01	5.214125e+02
1.190000e-06	5.210187e-06	8.063444e-09	3.735797e+01	5.302399e+02
1.200000e-06	5.323778e-06	8.191434e-09	3.817244e+01	5.385796e+02
1.210000e-06	5.435317e-06	8.313444e-09	3.897219e+01	5.464625e+02
1.220000e-06	5.544935e-06	8.430336e-09	3.975818e+01	5.539250e+02
1.230000e-06	5.652710e-06	8.543546e-09	4.053093e+01	5.610058e+02
1.240000e-06	5.758455e-06	8.650274e-09	4.128915e+01	5.677430e+02
1.250000e-06	5.861986e-06	8.749410e-09	4.203149e+01	5.741707e+02
1.260000e-06	5.963335e-06	8.841321e-09	4.275818e+01	5.803175e+02
1.270000e-06	6.062509e-06	8.926291e-09	4.346927e+01	5.862044e+02
1.280000e-06	6.159413e-06	9.005152e-09	4.416409e+01	5.918455e+02
1.290000e-06	6.254010e-06	9.081495e-09	4.484236e+01	5.972484e+02
1.300000e-06	6.346366e-06	9.158377e-09	4.550457e+01	6.024161e+02
1.310000e-06	6.436488e-06	9.234880e-09	4.615077e+01	6.073491e+02
1.320000e-06	6.524276e-06	9.308968e-09	4.678022e+01	6.120476e+02
1.330000e-06	6.609762e-06	9.379373e-09	4.739317e+01	6.165134e+02
1.340000e-06	6.692968e-06	9.446665e-09	4.798977e+01	6.207509e+02
1.350000e-06	6.773724e-06	9.509613e-09	4.856881e+01	6.247680e+02
1.360000e-06	6.851937e-06	9.567496e-09	4.912961e+01	6.285755e+02
1.370000e-06	6.927590e-06	9.621571e-09	4.967206e+01	6.321859e+02
1.380000e-06	7.000634e-06	9.672411e-09	5.019579e+01	6.356121e+02
1.390000e-06	7.071149e-06	9.719857e-09	5.070140e+01	6.388656e+02
1.400000e-06	7.139211e-06	9.766037e-09	5.118942e+01	6.419554e+02
1.410000e-06	7.204702e-06	9.812767e-09	5.165900e+01	6.448865e+02
1.420000e-06	7.267629e-06	9.857932e-09	5.211020e+01	6.476599e+02
1.430000e-06	7.328122e-06	9.898549e-09	5.254394e+01	6.502729e+02
1.440000e-06	7.386092e-06	9.933929e-09	5.295960e+01	6.527202e+02
1.450000e-06	7.441364e-06	9.966024e-09	5.335591e+01	6.549954e+02
1.460000e-06	7.493771e-06	9.996947e-09	5.373167e+01	6.570929e+02
1.470000e-06	7.543113e-06	1.002525e-08	5.408546e+01	6.590096e+02
1.480000e-06	7.589515e-06	1.005077e-08	5.441817e+01	6.607462e+02
1.490000e-06	7.633318e-06	1.007417e-08	5.473225e+01	6.623082e+02
1.500000e-06	7.674450e-06	1.009577e-08	5.502717e+01	6.637057e+02
1.510000e-06	7.712787e-06	1.011585e-08	5.530206e+01	6.649528e+02
1.520000e-06	7.748501e-06	1.013352e-08	5.555813e+01	6.660663e+02
1.530000e-06	7.781487e-06	1.015081e-08	5.579465e+01	6.670634e+02
1.540000e-06	7.811654e-06	1.016628e-08	5.601095e+01	6.679605e+02
1.550000e-06	7.839099e-06	1.017988e-08	5.620774e+01	6.687704e+02
1.560000e-06	7.863592e-06	1.019226e-08	5.638336e+01	6.695015e+02
1.570000e-06	7.885198e-06	1.020193e-08	5.653828e+01	6.701569e+02
1.580000e-06	7.904141e-06	1.021102e-08	5.667410e+01	6.707340e+02
1.590000e-06	7.920188e-06	1.021847e-08	5.678916e+01	6.712258e+02
1.600000e-06	7.933194e-06	1.022349e-08	5.688242e+01	6.716223e+02
1.610000e-06	7.943108e-06	1.022785e-08	5.695350e+01	6.719117e+02
1.620000e-06	7.950022e-06	1.023248e-08	5.700307e+01	6.720836e+02
1.630000e-06	7.954126e-06	1.023609e-08	5.703250e+01	6.721301e+02
1.640000e-06	7.955381e-06	1.023503e-08	5.704150e+01	6.720476e+02
1.650000e-06	7.953900e-06	1.022923e-08	5.703088e+01	6.718380e+02
1.660000e-06	7.949856e-06	1.022158e-08	5.700188e+01	6.715083e+02
1.670000e-06	7.943150e-06	1.021572e-08	5.695380e+01	6.710707e+02
1.680000e-06	7.933761e-06	1.021134e-08	5.688648e+01	6.705408e+02
1.690000e-06	7.921625e-06	1.020624e-08	5.679946e+01	6.699360e+02
1.700000e-06	7.906681e-06	1.019966e-08	5.669231e+01	6.692735e+02
1.710000e-06	7.889226e-06	1.018752e-08	5.656715e+01	6.685687e+02
1.720000e-06	7.869600e-06	1.015632e-08	5.642643e+01	6.678329e+02
1.730000e-06	7.847426e-06	1.011146e-08	5.626744e+01	6.670727e+02
1.740000e-06	7.821980e-06	1.008067e-08	5.608499e+01	6.662893e+02
1.750000e-06	7.792962e-06	1.008836e-08	5.587692e+01	6.654784e+02
1.760000e-06	7.760687e-06	1.009215e-08	5.564551e+01	6.646310e+02
1.770000e-06	7.725889e-06	1.009161e-08	5.539600e+01	6.637349e+02
1.780000e-06	7.688784e-06	1.009577e-08	5.512995e+01	6.627753e+02
1.790000e-06	7.649412e-06	1.010559e-08	5.484765e+01	6.617371e+02
1.800000e-06	7.607976e-06	1.007443e-08	5.455054e+01	6.606057e+02
1.810000e-06	7.564112e-06	1.002809e-08	5.423603e+01	6.593682e+02
1.820000e-06	7.517594e-06	1.005023e-08	5.390249e+01	6.580141e+02
1.830000e-06	7.468407e-06	1.002200e-08	5.354981e+01	6.565357e+02
1.840000e-06	7.416213e-06	1.002689e-08	5.317557e+01	6.549278e+02
1.850000e-06	7.361074e-06	1.001961e-08	5.278021e+01	6.531879e+02
1.860000e-06	7.303246e-06	9.968526e-09	5.236558e+01	6.513151e+02
1.870000e-06	7.242859e-06	9.934105e-09	5.193259e+01	6.493099e+02
1.880000e-06	7.179765e-06	9.856541e-09	5.148019e+01	6.471739e+02
1.890000e-06	7.113828e-06	9.832098e-09	5.100741e+01	6.449093e+02
1.900000e-06	7.045148e-06	9.798992e-09	5.051497e+01	6.425183e+02
1.910000e-06	6.973675e-06	9.767769e-09	5.000249e+01	6.400037e+02
1.920000e-06	6.899539e-06	9.735742e-09	4.947093e+01	6.373683e+02
1.930000e-06	6.822695e-06	9.669156e-09	4.891994e+01	6.346148e+02
1.940000e-06	6.743167e-06	9.628413e-09	4.834971e+01	6.317461e+02
1.950000e-06	6.661212e-06	9.577749e-09	4.776207e+01	6.287645e+02
1.960000e-06	6.576778e-06	9.550899e-09	4.715667e+01	6.256719e+02
1.970000e-06	6.489860e-06	9.509551e-09	4.653345e+01	6.224688e+02
1.980000e-06	6.400591e-06	9.455923e-09	4.589338e+01	6.191544e+02
1.990000e-06	6.309153e-06	9.408022e-09	4.523775e+01	6.157262e+02
2.000000e-06	6.215511e-06	9.332744e-09	4.456632e+01	6.121795e+02
2.010000e-06	6.119543e-06	9.281027e-09	4.387821e+01	6.085079e+02
2.020000e-06	6.021341e-06	9.229416e-09	4.317409e+01	6.047034e+02
2.030000e-06	5.921022e-06	9.173023e-09	4.245478e+01	6.007573e+02
2.040000e-06	5.818566e-06	9.109638e-09	4.172015e+01	5.966608e+02
2.050000e-06	5.714004e-06	9.047515e-09	4.097042e+01	5.924060e+02
2.060000e-06	5.607541e-06	8.983328e-09	4.020707e+01	5.879867e+02
2.070000e-06	5.499207e-06	8.901211e-09	3.943029e+01	5.833990e+02
2.080000e-06	5.388929e-06	8.820733e-09	3.863958e+01	5.786415e+02
2.090000e-06	5.276651e-06	8.741827e-09	3.783453e+01	5.737151e+02
2.100000e-06	5.162352e-06	8.666976e-09	3.701498e+01	5.686228e+02
2.110000e-06	5.046100e-06	8.595014e-09	3.618144e+01	5.633678e+02
2.120000e-06	4.927879e-06	8.525155e-09	3.533377e+01	5.579533e+02
2.130000e-06	4.807723e-06	8.445613e-09	3.447223e+01	5.523804e+02
2.140000e-06	4.685864e-06	8.353664e-09	3.359848e+01	5.466473e+02
2.150000e-06	4.562347e-06	8.256949e-09	3.271284e+01	5.407483e+02
2.160000e-06	4.437105e-06	8.164677e-09	3.181484e+01	5.346737e+02
2.170000e-06	4.310198e-06	8.072903e-09	3.090489e+01	5.284099e+02
2.180000e-06	4.181676e-06	7.975933e-09	2.998336e+01	5.219407e+02
2.190000e-06	4.051691e-06	7.872215e-09	2.905135e+01	5.152480e+02
2.200000e-06	3.920210e-06	7.760308e-09	2.810861e+01	5.083142e+02
2.210000e-06	3.787265e-06	7.649415e-09	2.715537e+01	5.011234e+02
2.220000e-06	3.652911e-06	7.542914e-09	2.619202e+01	4.936630e+02
2.230000e-06	3.517134e-06	7.436502e-09	2.521847e+01	4.859248e+02
2.240000e-06	3.380075e-06	7.320453e-09	2.423574e+01	4.779049e+02
2.250000e-06	3.241728e-06	7.193473e-09	2.324377e+01	4.696034e+02
2.260000e-06	3.102069e-06	7.059839e-09	2.224239e+01	4.610227e+02
2.270000e-06	2.961214e-06	6.920501e-09	2.123243e+01	4.521663e+02
2.280000e-06	2.819188e-06	6.776063e-09	2.021408e+01	4.430356e+02
2.290000e-06	2.676058e-06	6.629920e-09	1.918782e+01	4.336286e+02
2.300000e-06	2.531978e-06	6.480828e-09	1.815473e+01	4.239378e+02
2.310000e-06	2.387054e-06	6.331677e-09	1.711560e+01	4.139491e+02
2.320000e-06	2.241430e-06	6.181829e-09	1.607145e+01	4.036421e+02
2.330000e-06	2.095068e-06	6.026554e-09	1.502201e+01	3.929907e+02
2.340000e-06	1.947871e-06	5.861644e-09	1.396658e+01	3.819654e+02
2.350000e-06	1.799988e-06	5.685147e-09	1.290624e+01	3.705356e+02
2.360000e-06	1.651598e-06	5.499951e-09	1.184225e+01	3.586727e+02
2.370000e-06	1.502714e-06	5.307514e-09	1.077473e+01	3.463526e+02
2.380000e-06	1.353336e-06	5.113522e-09	9.703659e+00	3.335576e+02
2.390000e-06	1.203497e-06	4.912688e-09	8.629291e+00	3.202771e+02
2.400000e-06	1.053188e-06	4.701364e-09	7.551542e+00	3.065071e+02
2.410000e-06	9.024463e-07	4.480752e-09	6.470700e+00	2.922478e+02
2.420000e-06	7.514146e-07	4.255676e-09	5.387777e+00	2.775001e+02
2.430000e-06	6.001864e-07	4.030179e-09	4.303443e+00	2.622611e+02
2.440000e-06	4.488114e-07	3.796831e-09	3.218058e+00	2.465196e+02
2.450000e-06	2.973211e-07	3.548820e-09	2.131845e+00	2.302513e+02
2.460000e-06	1.457290e-07	3.286422e-09	1.044903e+00	2.134165e+02
2.470000e-06	-5.962826e-09	3.013680e-09	-4.275452e-02	1.959584e+02
2.480000e-06	-1.577188e-07	2.733211e-09	-1.130872e+00	1.778048e+02
2.490000e-06	-3.094712e-07	2.442892e-09	-2.218964e+00	1.588722e+02
2.500000e-06	-4.611190e-07	2.140169e-09	-3.306305e+00	1.390730e+02
2.510000e-06	-6.126138e-07	1.823795e-09	-4.392550e+00	1.183239e+02
2.520000e-06	-7.639437e-07	1.493168e-09	-5.477612e+00	9.655693e+01
2.530000e-06	-9.150647e-07	1.150432e-09	-6.561177e+00	7.372994e+01
2.540000e-06	-1.065899e-06	7.949619e-10	-7.642684e+00	4.983677e+01
2.550000e-06	-1.216371e-06	4.223315e-10	-8.721598e+00	2.491521e+01
2.560000e-06	-1.366437e-06	2.832672e-11	-9.797599e+00	-9.480464e-01
2.570000e-06	-1.515928e-06	-3.826541e-10	-1.086948e+01	-2.761628e+01
2.580000e-06	-1.664762e-06	-8.032213e-10	-1.193664e+01	-5.490586e+01
2.590000e-06	-1.813008e-06	-1.229474e-09	-1.299959e+01	-8.259352e+01
2.600000e-06	-1.960637e-06	-1.658344e-09	-1.405812e+01	-1.104273e+02
2.610000e-06	-2.107546e-06	-2.088402e-09	-1.511148e+01	-1.381403e+02
2.620000e-06	-2.253575e-06	-2.509842e-09	-1.615854e+01	-1.654657e+02
2.630000e-06	-2.398707e-06	-2.915444e-09	-1.719915e+01	-1.921523e+02
2.640000e-06	-2.542976e-06	-3.306916e-09	-1.823359e+01	-2.179783e+02
2.650000e-06	-2.686335e-06	-3.683477e-09	-1.926150e+01	-2.427628e+02
2.660000e-06	-2.828658e-06	-4.044567e-09	-2.028198e+01	-2.663736e+02
2.670000e-06	-2.969774e-06	-4.386856e-09	-2.129381e+01	-2.887303e+02
2.680000e-06	-3.109670e-06	-4.708115e-09	-2.229689e+01	-3.098043e+02
2.690000e-06	-3.248334e-06	-5.010509e-09	-2.329113e+01	-3.296131e+02
2.700000e-06	-3.385705e-06	-5.293096e-09	-2.427611e+01	-3.482127e+02
2.710000e-06	-3.521815e-06	-5.558210e-09	-2.525204e+01	-3.656872e+02
2.720000e-06	-3.656699e-06	-5.809864e-09	-2.621918e+01	-3.821370e+02
2.730000e-06	-3.790248e-06	-6.051447e-09	-2.717675e+01	-3.976678e+02
2.740000e-06	-3.922412e-06	-6.282134e-09	-2.812439e+01	-4.123807e+02
2.750000e-06	-4.053151e-06	-6.500503e-09	-2.906182e+01	-4.263646e+02
2.760000e-06	-4.182492e-06	-6.709319e-09	-2.998921e+01	-4.396912e+02
2.770000e-06	-4.310441e-06	-6.908769e-09	-3.090663e+01	-4.524130e+02
2.780000e-06	-4.436884e-06	-7.097079e-09	-3.181325e+01	-4.645644e+02
2.790000e-06	-4.561765e-06	-7.271299e-09	-3.270867e+01	-4.761645e+02
2.800000e-06	-4.685005e-06	-7.434299e-09	-3.359232e+01	-4.872218e+02
2.810000e-06	-4.806594e-06	-7.589839e-09	-3.446414e+01	-4.977395e+02
2.820000e-06	-4.926452e-06	-7.738080e-09	-3.532354e+01	-5.077208e+02
2.830000e-06	-5.044431e-06	-7.881091e-09	-3.616947e+01	-5.171725e+02
2.840000e-06	-5.160384e-06	-8.019346e-09	-3.700087e+01	-5.261088e+02
2.850000e-06	-5.274189e-06	-8.149622e-09	-3.781688e+01	-5.345515e+02
2.860000e-06	-5.385907e-06	-8.273142e-09	-3.861791e+01	-5.425303e+02
2.870000e-06	-5.495611e-06	-8.392243e-09	-3.940451e+01	-5.500806e+02
2.880000e-06	-5.603380e-06	-8.505722e-09	-4.017724e+01	-5.572409e+02
2.890000e-06	-5.709276e-06	-8.612221e-09	-4.093653e+01	-5.640496e+02
2.900000e-06	-5.813198e-06	-8.711919e-09	-4.168167e+01	-5.705420e+02
2.910000e-06	-5.914876e-06	-8.806347e-09	-4.241071e+01	-5.767478e+02
2.920000e-06	-6.014293e-06	-8.896896e-09	-4.312355e+01	-5.826900e+02
2.930000e-06	-6.111640e-06	-8.984164e-09	-4.382155e+01	-5.883839e+02
2.940000e-06	-6.206823e-06	-9.066997e-09	-4.450403e+01	-5.938384e+02
