# Temperatura_=_62.62
# Concentracion g/m^3_=_10000.0
# C_Vs_to_Am_M_A/Vsm_=_65563218390.804596
# pendiente_HvsI_1/m_=_3716.3
# ordenada_HvsI_A/m_=_1297.0
# frecuencia_Hz_=_302618.86032143823

Tiempo_(s)	Campo_(V.s)	Magnetizacion_(V.s)	Campo_(kA/m)	Magnetizacion_(A/m)
0.000000e+00	-7.876838e-06	-1.103445e-08	-5.683321e+01	-7.231329e+02
1.000000e-08	-7.874595e-06	-1.103755e-08	-5.681702e+01	-7.228056e+02
2.000000e-08	-7.869655e-06	-1.103170e-08	-5.678138e+01	-7.223442e+02
3.000000e-08	-7.862281e-06	-1.102321e-08	-5.672818e+01	-7.217627e+02
4.000000e-08	-7.852139e-06	-1.101534e-08	-5.665500e+01	-7.210776e+02
5.000000e-08	-7.839065e-06	-1.100485e-08	-5.656067e+01	-7.203062e+02
6.000000e-08	-7.823055e-06	-1.098980e-08	-5.644515e+01	-7.194646e+02
7.000000e-08	-7.804472e-06	-1.097359e-08	-5.631107e+01	-7.185659e+02
8.000000e-08	-7.783757e-06	-1.094876e-08	-5.616161e+01	-7.176197e+02
9.000000e-08	-7.760472e-06	-1.099261e-08	-5.599360e+01	-7.166309e+02
1.000000e-07	-7.734027e-06	-1.102740e-08	-5.580279e+01	-7.155997e+02
1.100000e-07	-7.704422e-06	-1.096045e-08	-5.558919e+01	-7.145223e+02
1.200000e-07	-7.672026e-06	-1.090543e-08	-5.535544e+01	-7.133912e+02
1.300000e-07	-7.636984e-06	-1.088290e-08	-5.510261e+01	-7.121963e+02
1.400000e-07	-7.599487e-06	-1.084736e-08	-5.483206e+01	-7.109259e+02
1.500000e-07	-7.559851e-06	-1.076633e-08	-5.454607e+01	-7.095676e+02
1.600000e-07	-7.517984e-06	-1.077080e-08	-5.424400e+01	-7.081087e+02
1.700000e-07	-7.473489e-06	-1.083856e-08	-5.392295e+01	-7.065369e+02
1.800000e-07	-7.426357e-06	-1.070449e-08	-5.358288e+01	-7.048408e+02
1.900000e-07	-7.376518e-06	-1.070996e-08	-5.322329e+01	-7.030094e+02
2.000000e-07	-7.323645e-06	-1.071762e-08	-5.284179e+01	-7.010333e+02
2.100000e-07	-7.267930e-06	-1.059636e-08	-5.243980e+01	-6.989038e+02
2.200000e-07	-7.209575e-06	-1.059547e-08	-5.201875e+01	-6.966141e+02
2.300000e-07	-7.148639e-06	-1.055939e-08	-5.157908e+01	-6.941590e+02
2.400000e-07	-7.085132e-06	-1.055548e-08	-5.112086e+01	-6.915357e+02
2.500000e-07	-7.018857e-06	-1.047645e-08	-5.064268e+01	-6.887442e+02
2.600000e-07	-6.949898e-06	-1.042944e-08	-5.014512e+01	-6.857872e+02
2.700000e-07	-6.878317e-06	-1.041454e-08	-4.962865e+01	-6.826702e+02
2.800000e-07	-6.804000e-06	-1.034265e-08	-4.909243e+01	-6.794016e+02
2.900000e-07	-6.726940e-06	-1.028492e-08	-4.853643e+01	-6.759912e+02
3.000000e-07	-6.647040e-06	-1.023896e-08	-4.795993e+01	-6.724497e+02
3.100000e-07	-6.564588e-06	-1.021772e-08	-4.736502e+01	-6.687872e+02
3.200000e-07	-6.480018e-06	-1.013691e-08	-4.675483e+01	-6.650121e+02
3.300000e-07	-6.393221e-06	-1.006003e-08	-4.612857e+01	-6.611294e+02
3.400000e-07	-6.304110e-06	-1.001948e-08	-4.548561e+01	-6.571399e+02
3.500000e-07	-6.212676e-06	-9.948745e-09	-4.482590e+01	-6.530402e+02
3.600000e-07	-6.118984e-06	-9.879411e-09	-4.414989e+01	-6.488221e+02
3.700000e-07	-6.023100e-06	-9.818868e-09	-4.345806e+01	-6.444737e+02
3.800000e-07	-5.924963e-06	-9.764251e-09	-4.274998e+01	-6.399808e+02
3.900000e-07	-5.824699e-06	-9.684547e-09	-4.202655e+01	-6.353285e+02
4.000000e-07	-5.722441e-06	-9.598642e-09	-4.128874e+01	-6.305029e+02
4.100000e-07	-5.618187e-06	-9.525128e-09	-4.053652e+01	-6.254929e+02
4.200000e-07	-5.511878e-06	-9.444775e-09	-3.976947e+01	-6.202916e+02
4.300000e-07	-5.403543e-06	-9.363241e-09	-3.898781e+01	-6.148967e+02
4.400000e-07	-5.293336e-06	-9.284036e-09	-3.819264e+01	-6.093109e+02
4.500000e-07	-5.181248e-06	-9.207950e-09	-3.738390e+01	-6.035402e+02
4.600000e-07	-5.067159e-06	-9.116223e-09	-3.656073e+01	-5.975934e+02
4.700000e-07	-4.951017e-06	-9.016728e-09	-3.572273e+01	-5.914792e+02
4.800000e-07	-4.832968e-06	-8.921575e-09	-3.487099e+01	-5.852045e+02
4.900000e-07	-4.713175e-06	-8.822748e-09	-3.400665e+01	-5.787721e+02
5.000000e-07	-4.591694e-06	-8.721084e-09	-3.313013e+01	-5.721795e+02
5.100000e-07	-4.468535e-06	-8.618197e-09	-3.224151e+01	-5.654184e+02
5.200000e-07	-4.343735e-06	-8.510712e-09	-3.134105e+01	-5.584744e+02
5.300000e-07	-4.217355e-06	-8.397160e-09	-3.042919e+01	-5.513286e+02
5.400000e-07	-4.089490e-06	-8.280430e-09	-2.950662e+01	-5.439592e+02
5.500000e-07	-3.960177e-06	-8.161727e-09	-2.857359e+01	-5.363443e+02
5.600000e-07	-3.829268e-06	-8.040289e-09	-2.762906e+01	-5.284644e+02
5.700000e-07	-3.696844e-06	-7.918113e-09	-2.667358e+01	-5.203040e+02
5.800000e-07	-3.563082e-06	-7.789693e-09	-2.570846e+01	-5.118541e+02
5.900000e-07	-3.427976e-06	-7.655867e-09	-2.473364e+01	-5.031117e+02
6.000000e-07	-3.291541e-06	-7.516801e-09	-2.374923e+01	-4.940798e+02
6.100000e-07	-3.153843e-06	-7.377489e-09	-2.275571e+01	-4.847656e+02
6.200000e-07	-3.014891e-06	-7.234512e-09	-2.175314e+01	-4.751778e+02
6.300000e-07	-2.874561e-06	-7.084408e-09	-2.074062e+01	-4.653235e+02
6.400000e-07	-2.732970e-06	-6.931347e-09	-1.971901e+01	-4.552055e+02
6.500000e-07	-2.590291e-06	-6.774596e-09	-1.868955e+01	-4.448194e+02
6.600000e-07	-2.446617e-06	-6.609546e-09	-1.765291e+01	-4.341520e+02
6.700000e-07	-2.302141e-06	-6.433797e-09	-1.661048e+01	-4.231816e+02
6.800000e-07	-2.156784e-06	-6.256979e-09	-1.556170e+01	-4.118782e+02
6.900000e-07	-2.010588e-06	-6.075257e-09	-1.450686e+01	-4.002069e+02
7.000000e-07	-1.863798e-06	-5.890611e-09	-1.344774e+01	-3.881307e+02
7.100000e-07	-1.716535e-06	-5.700054e-09	-1.238520e+01	-3.756145e+02
7.200000e-07	-1.568766e-06	-5.505892e-09	-1.131901e+01	-3.626285e+02
7.300000e-07	-1.420490e-06	-5.307042e-09	-1.024916e+01	-3.491516e+02
7.400000e-07	-1.271742e-06	-5.093945e-09	-9.175912e+00	-3.351717e+02
7.500000e-07	-1.122607e-06	-4.873000e-09	-8.099866e+00	-3.206861e+02
7.600000e-07	-9.731901e-07	-4.644330e-09	-7.021792e+00	-3.056982e+02
7.700000e-07	-8.234979e-07	-4.410277e-09	-5.941728e+00	-2.902136e+02
7.800000e-07	-6.735396e-07	-4.166542e-09	-4.859744e+00	-2.742341e+02
7.900000e-07	-5.233200e-07	-3.914849e-09	-3.775875e+00	-2.577521e+02
8.000000e-07	-3.728587e-07	-3.658158e-09	-2.690262e+00	-2.407444e+02
8.100000e-07	-2.222440e-07	-3.391165e-09	-1.603542e+00	-2.231680e+02
8.200000e-07	-7.150287e-08	-3.110300e-09	-5.159098e-01	-2.049587e+02
8.300000e-07	7.936293e-08	-2.817607e-09	5.726219e-01	-1.860316e+02
8.400000e-07	2.301908e-07	-2.514421e-09	1.660880e+00	-1.662863e+02
8.500000e-07	3.808906e-07	-2.195532e-09	2.748214e+00	-1.456145e+02
8.600000e-07	5.314970e-07	-1.861676e-09	3.834874e+00	-1.239105e+02
8.700000e-07	6.819621e-07	-1.514983e-09	4.920514e+00	-1.010843e+02
8.800000e-07	8.321856e-07	-1.152279e-09	6.004412e+00	-7.707421e+01
8.900000e-07	9.821435e-07	-7.701401e-10	7.086392e+00	-5.185947e+01
9.000000e-07	1.131810e-06	-3.726173e-10	8.166269e+00	-2.547008e+01
9.100000e-07	1.281089e-06	3.793290e-11	9.243354e+00	2.006786e+00
9.200000e-07	1.429948e-06	4.643667e-10	1.031741e+01	3.042498e+01
9.300000e-07	1.578352e-06	9.099157e-10	1.138818e+01	5.958265e+01
9.400000e-07	1.726161e-06	1.368458e-09	1.245465e+01	8.923046e+01
9.500000e-07	1.873315e-06	1.831842e-09	1.351640e+01	1.190843e+02
9.600000e-07	2.019919e-06	2.294561e-09	1.457418e+01	1.488413e+02
9.700000e-07	2.165828e-06	2.747780e-09	1.562695e+01	1.781975e+02
9.800000e-07	2.310828e-06	3.186488e-09	1.667316e+01	2.068662e+02
9.900000e-07	2.454943e-06	3.604608e-09	1.771298e+01	2.345940e+02
1.000000e-06	2.598117e-06	4.002538e-09	1.874601e+01	2.611746e+02
1.010000e-06	2.740300e-06	4.378630e-09	1.977190e+01	2.864577e+02
1.020000e-06	2.881434e-06	4.735981e-09	2.079021e+01	3.103535e+02
1.030000e-06	3.021331e-06	5.074540e-09	2.179960e+01	3.328313e+02
1.040000e-06	3.159936e-06	5.392942e-09	2.279967e+01	3.539145e+02
1.050000e-06	3.297284e-06	5.694215e-09	2.379066e+01	3.736707e+02
1.060000e-06	3.433322e-06	5.978848e-09	2.477221e+01	3.921997e+02
1.070000e-06	3.568043e-06	6.246731e-09	2.574426e+01	4.096203e+02
1.080000e-06	3.701591e-06	6.498702e-09	2.670784e+01	4.260569e+02
1.090000e-06	3.833900e-06	6.736760e-09	2.766248e+01	4.416285e+02
1.100000e-06	3.964772e-06	6.961946e-09	2.860674e+01	4.564394e+02
1.110000e-06	4.094212e-06	7.175888e-09	2.954069e+01	4.705737e+02
1.120000e-06	4.222156e-06	7.379893e-09	3.046383e+01	4.840932e+02
1.130000e-06	4.348625e-06	7.575291e-09	3.137634e+01	4.970378e+02
1.140000e-06	4.473693e-06	7.762344e-09	3.227873e+01	5.094297e+02
1.150000e-06	4.597222e-06	7.942100e-09	3.317002e+01	5.212781e+02
1.160000e-06	4.719135e-06	8.112455e-09	3.404965e+01	5.325850e+02
1.170000e-06	4.839343e-06	8.273644e-09	3.491698e+01	5.433518e+02
1.180000e-06	4.957764e-06	8.426104e-09	3.577141e+01	5.535830e+02
1.190000e-06	5.074365e-06	8.572628e-09	3.661272e+01	5.632902e+02
1.200000e-06	5.189016e-06	8.713431e-09	3.743995e+01	5.724932e+02
1.210000e-06	5.301614e-06	8.848037e-09	3.825237e+01	5.812195e+02
1.220000e-06	5.412268e-06	8.975861e-09	3.905076e+01	5.895027e+02
1.230000e-06	5.521090e-06	9.101223e-09	3.983594e+01	5.973792e+02
1.240000e-06	5.627960e-06	9.223606e-09	4.060704e+01	6.048857e+02
1.250000e-06	5.732725e-06	9.336816e-09	4.136294e+01	6.120552e+02
1.260000e-06	5.835380e-06	9.440454e-09	4.210362e+01	6.189156e+02
1.270000e-06	5.935950e-06	9.537071e-09	4.282925e+01	6.254880e+02
1.280000e-06	6.034300e-06	9.628817e-09	4.353887e+01	6.317863e+02
1.290000e-06	6.130332e-06	9.716086e-09	4.423176e+01	6.378191e+02
1.300000e-06	6.224162e-06	9.799046e-09	4.490877e+01	6.435904e+02
1.310000e-06	6.315815e-06	9.878553e-09	4.557007e+01	6.491029e+02
1.320000e-06	6.405121e-06	9.956769e-09	4.621443e+01	6.543596e+02
1.330000e-06	6.492106e-06	1.003387e-08	4.684205e+01	6.593658e+02
1.340000e-06	6.576920e-06	1.010939e-08	4.745400e+01	6.641301e+02
1.350000e-06	6.659435e-06	1.018168e-08	4.804937e+01	6.686651e+02
1.360000e-06	6.739416e-06	1.024958e-08	4.862644e+01	6.729857e+02
1.370000e-06	6.816874e-06	1.031225e-08	4.918533e+01	6.771087e+02
1.380000e-06	6.891774e-06	1.037033e-08	4.972574e+01	6.810501e+02
1.390000e-06	6.964031e-06	1.042679e-08	5.024710e+01	6.848231e+02
1.400000e-06	7.033842e-06	1.048115e-08	5.075080e+01	6.884370e+02
1.410000e-06	7.101249e-06	1.053421e-08	5.123716e+01	6.918952e+02
1.420000e-06	7.166066e-06	1.058565e-08	5.170482e+01	6.951956e+02
1.430000e-06	7.228356e-06	1.063308e-08	5.215426e+01	6.983307e+02
1.440000e-06	7.288242e-06	1.067550e-08	5.258635e+01	7.012896e+02
1.450000e-06	7.345526e-06	1.071503e-08	5.299967e+01	7.040597e+02
1.460000e-06	7.400196e-06	1.075373e-08	5.339413e+01	7.066292e+02
1.470000e-06	7.452009e-06	1.079030e-08	5.376797e+01	7.089895e+02
1.480000e-06	7.500677e-06	1.082328e-08	5.411912e+01	7.111371e+02
1.490000e-06	7.546582e-06	1.085282e-08	5.445034e+01	7.130746e+02
1.500000e-06	7.589866e-06	1.087867e-08	5.476264e+01	7.148110e+02
1.510000e-06	7.630352e-06	1.090254e-08	5.505476e+01	7.163611e+02
1.520000e-06	7.668155e-06	1.092460e-08	5.532751e+01	7.177440e+02
1.530000e-06	7.703355e-06	1.094407e-08	5.558149e+01	7.189806e+02
1.540000e-06	7.735798e-06	1.096256e-08	5.581557e+01	7.200915e+02
1.550000e-06	7.765529e-06	1.097910e-08	5.603009e+01	7.210942e+02
1.560000e-06	7.792492e-06	1.099404e-08	5.622464e+01	7.220016e+02
1.570000e-06	7.816537e-06	1.100818e-08	5.639812e+01	7.228206e+02
1.580000e-06	7.837838e-06	1.102014e-08	5.655181e+01	7.235517e+02
1.590000e-06	7.856438e-06	1.102869e-08	5.668602e+01	7.241893e+02
1.600000e-06	7.872092e-06	1.103536e-08	5.679896e+01	7.247234e+02
1.610000e-06	7.884699e-06	1.104162e-08	5.688993e+01	7.251416e+02
1.620000e-06	7.894213e-06	1.104750e-08	5.695857e+01	7.254310e+02
1.630000e-06	7.900802e-06	1.105147e-08	5.700612e+01	7.255805e+02
1.640000e-06	7.904675e-06	1.105221e-08	5.703406e+01	7.255829e+02
1.650000e-06	7.905706e-06	1.105242e-08	5.704150e+01	7.254361e+02
1.660000e-06	7.903984e-06	1.104438e-08	5.702907e+01	7.251434e+02
1.670000e-06	7.899666e-06	1.103680e-08	5.699792e+01	7.247137e+02
1.680000e-06	7.892664e-06	1.103281e-08	5.694740e+01	7.241600e+02
1.690000e-06	7.883030e-06	1.102507e-08	5.687788e+01	7.234985e+02
1.700000e-06	7.870647e-06	1.101505e-08	5.678854e+01	7.227465e+02
1.710000e-06	7.855497e-06	1.100970e-08	5.667923e+01	7.219204e+02
1.720000e-06	7.837888e-06	1.100733e-08	5.655218e+01	7.210342e+02
1.730000e-06	7.818100e-06	1.098340e-08	5.640940e+01	7.200986e+02
1.740000e-06	7.795816e-06	1.086134e-08	5.624862e+01	7.191196e+02
1.750000e-06	7.770260e-06	1.084616e-08	5.606422e+01	7.180985e+02
1.760000e-06	7.741041e-06	1.088920e-08	5.585340e+01	7.170326e+02
1.770000e-06	7.708571e-06	1.086944e-08	5.561912e+01	7.159150e+02
1.780000e-06	7.673718e-06	1.085735e-08	5.536765e+01	7.147365e+02
1.790000e-06	7.636556e-06	1.093475e-08	5.509951e+01	7.134854e+02
1.800000e-06	7.597156e-06	1.089589e-08	5.481523e+01	7.121496e+02
1.810000e-06	7.555776e-06	1.075577e-08	5.451668e+01	7.107164e+02
1.820000e-06	7.511969e-06	1.086982e-08	5.420060e+01	7.091733e+02
1.830000e-06	7.465539e-06	1.077926e-08	5.386559e+01	7.075086e+02
1.840000e-06	7.416396e-06	1.078365e-08	5.351101e+01	7.057114e+02
1.850000e-06	7.364183e-06	1.081113e-08	5.313428e+01	7.037716e+02
1.860000e-06	7.309106e-06	1.069670e-08	5.273689e+01	7.016805e+02
1.870000e-06	7.251388e-06	1.074723e-08	5.232044e+01	6.994307e+02
1.880000e-06	7.191124e-06	1.058956e-08	5.188562e+01	6.970166e+02
1.890000e-06	7.128186e-06	1.060240e-08	5.143151e+01	6.944349e+02
1.900000e-06	7.062408e-06	1.060024e-08	5.095691e+01	6.916846e+02
1.910000e-06	6.993920e-06	1.047154e-08	5.046275e+01	6.887679e+02
1.920000e-06	6.922649e-06	1.050389e-08	4.994852e+01	6.856896e+02
1.930000e-06	6.848798e-06	1.041955e-08	4.941567e+01	6.824573e+02
1.940000e-06	6.772286e-06	1.039210e-08	4.886361e+01	6.790807e+02
1.950000e-06	6.693000e-06	1.028529e-08	4.829154e+01	6.755703e+02
1.960000e-06	6.611243e-06	1.023992e-08	4.770165e+01	6.719365e+02
1.970000e-06	6.527099e-06	1.022723e-08	4.709453e+01	6.681883e+02
1.980000e-06	6.440532e-06	1.011421e-08	4.646993e+01	6.643315e+02
1.990000e-06	6.351533e-06	1.010549e-08	4.582778e+01	6.603683e+02
2.000000e-06	6.260377e-06	1.003324e-08	4.517007e+01	6.562960e+02
2.010000e-06	6.167078e-06	9.973731e-09	4.449690e+01	6.521078e+02
2.020000e-06	6.071402e-06	9.870910e-09	4.380657e+01	6.477926e+02
2.030000e-06	5.973556e-06	9.812789e-09	4.310059e+01	6.433366e+02
2.040000e-06	5.873722e-06	9.760469e-09	4.238026e+01	6.387248e+02
2.050000e-06	5.771768e-06	9.676047e-09	4.164464e+01	6.339430e+02
2.060000e-06	5.667632e-06	9.606822e-09	4.089328e+01	6.289793e+02
2.070000e-06	5.561578e-06	9.519249e-09	4.012807e+01	6.238256e+02
2.080000e-06	5.453719e-06	9.440910e-09	3.934984e+01	6.184784e+02
2.090000e-06	5.343949e-06	9.332851e-09	3.855783e+01	6.129391e+02
2.100000e-06	5.232177e-06	9.263512e-09	3.775137e+01	6.072133e+02
2.110000e-06	5.118487e-06	9.181263e-09	3.693107e+01	6.013090e+02
2.120000e-06	5.002894e-06	9.096216e-09	3.609704e+01	5.952352e+02
2.130000e-06	4.885281e-06	8.995345e-09	3.524843e+01	5.889995e+02
2.140000e-06	4.765735e-06	8.896685e-09	3.438588e+01	5.826058e+02
2.150000e-06	4.644407e-06	8.793574e-09	3.351047e+01	5.760532e+02
2.160000e-06	4.521420e-06	8.685088e-09	3.262309e+01	5.693347e+02
2.170000e-06	4.396794e-06	8.583749e-09	3.172389e+01	5.624374e+02
2.180000e-06	4.270510e-06	8.479624e-09	3.081272e+01	5.553433e+02
2.190000e-06	4.142546e-06	8.377036e-09	2.988942e+01	5.480312e+02
2.200000e-06	4.013127e-06	8.260151e-09	2.895564e+01	5.404790e+02
2.210000e-06	3.882346e-06	8.141014e-09	2.801203e+01	5.326663e+02
2.220000e-06	3.750175e-06	8.009867e-09	2.705838e+01	5.245765e+02
2.230000e-06	3.616589e-06	7.882266e-09	2.609453e+01	5.161988e+02
2.240000e-06	3.481569e-06	7.749593e-09	2.512033e+01	5.075287e+02
2.250000e-06	3.345219e-06	7.616549e-09	2.413653e+01	4.985680e+02
2.260000e-06	3.207657e-06	7.479739e-09	2.314399e+01	4.893229e+02
2.270000e-06	3.068903e-06	7.341465e-09	2.214285e+01	4.798021e+02
2.280000e-06	2.928914e-06	7.193540e-09	2.113279e+01	4.700133e+02
2.290000e-06	2.787761e-06	7.035321e-09	2.011434e+01	4.599607e+02
2.300000e-06	2.645514e-06	6.876123e-09	1.908799e+01	4.496417e+02
2.310000e-06	2.502271e-06	6.715675e-09	1.805447e+01	4.390458e+02
2.320000e-06	2.358050e-06	6.553388e-09	1.701388e+01	4.281529e+02
2.330000e-06	2.213019e-06	6.382172e-09	1.596744e+01	4.169352e+02
2.340000e-06	2.067375e-06	6.204608e-09	1.491659e+01	4.053587e+02
2.350000e-06	1.921039e-06	6.019322e-09	1.386074e+01	3.933865e+02
2.360000e-06	1.774038e-06	5.826447e-09	1.280010e+01	3.809826e+02
2.370000e-06	1.626518e-06	5.627571e-09	1.173571e+01	3.681158e+02
2.380000e-06	1.478516e-06	5.424392e-09	1.066783e+01	3.547624e+02
2.390000e-06	1.330026e-06	5.217621e-09	9.596448e+00	3.409082e+02
2.400000e-06	1.181013e-06	5.001881e-09	8.521280e+00	3.265483e+02
2.410000e-06	1.031544e-06	4.776393e-09	7.442829e+00	3.116847e+02
2.420000e-06	8.817216e-07	4.542937e-09	6.361825e+00	2.963232e+02
2.430000e-06	7.316287e-07	4.301108e-09	5.278870e+00	2.804670e+02
2.440000e-06	5.813617e-07	4.052146e-09	4.194659e+00	2.641115e+02
2.450000e-06	4.309647e-07	3.795649e-09	3.109510e+00	2.472377e+02
2.460000e-06	2.804338e-07	3.530872e-09	2.023395e+00	2.298080e+02
2.470000e-06	1.297609e-07	3.253059e-09	9.362548e-01	2.117634e+02
2.480000e-06	-2.096001e-08	2.961819e-09	-1.512313e-01	1.930241e+02
2.490000e-06	-1.716518e-07	2.659173e-09	-1.238507e+00	1.734927e+02
2.500000e-06	-3.222933e-07	2.343614e-09	-2.325421e+00	1.530620e+02
2.510000e-06	-4.728825e-07	2.013105e-09	-3.411957e+00	1.316247e+02
2.520000e-06	-6.233889e-07	1.667837e-09	-4.497895e+00	1.090855e+02
2.530000e-06	-7.737496e-07	1.310286e-09	-5.582782e+00	8.537443e+01
2.540000e-06	-9.239102e-07	9.394598e-10	-6.666226e+00	6.045949e+01
2.550000e-06	-1.073816e-06	5.526986e-10	-7.747829e+00	3.435722e+01
2.560000e-06	-1.223363e-06	1.441550e-10	-8.826845e+00	7.140146e+00
2.570000e-06	-1.372406e-06	-2.866453e-10	-9.902229e+00	-2.106024e+01
2.580000e-06	-1.520852e-06	-7.337965e-10	-1.097330e+01	-5.005541e+01
2.590000e-06	-1.668704e-06	-1.191485e-09	-1.204008e+01	-7.960688e+01
2.600000e-06	-1.815982e-06	-1.653302e-09	-1.310273e+01	-1.094378e+02
2.610000e-06	-1.962588e-06	-2.115797e-09	-1.416052e+01	-1.392485e+02
2.620000e-06	-2.108431e-06	-2.573001e-09	-1.521281e+01	-1.687334e+02
2.630000e-06	-2.253574e-06	-3.016880e-09	-1.626006e+01	-1.975999e+02
2.640000e-06	-2.397890e-06	-3.441690e-09	-1.730133e+01	-2.255850e+02
2.650000e-06	-2.541138e-06	-3.846931e-09	-1.833490e+01	-2.524695e+02
2.660000e-06	-2.683372e-06	-4.233060e-09	-1.936115e+01	-2.780885e+02
2.670000e-06	-2.824573e-06	-4.600103e-09	-2.037995e+01	-3.023369e+02
2.680000e-06	-2.964578e-06	-4.947554e-09	-2.139012e+01	-3.251696e+02
2.690000e-06	-3.103377e-06	-5.274291e-09	-2.239158e+01	-3.465973e+02
2.700000e-06	-3.241055e-06	-5.582016e-09	-2.338496e+01	-3.666776e+02
2.710000e-06	-3.377551e-06	-5.873127e-09	-2.436981e+01	-3.855035e+02
2.720000e-06	-3.512731e-06	-6.148140e-09	-2.534517e+01	-4.031902e+02
2.730000e-06	-3.646615e-06	-6.406444e-09	-2.631117e+01	-4.198619e+02
2.740000e-06	-3.779154e-06	-6.649511e-09	-2.726747e+01	-4.356400e+02
2.750000e-06	-3.910299e-06	-6.880629e-09	-2.821371e+01	-4.506330e+02
2.760000e-06	-4.040177e-06	-7.103483e-09	-2.915081e+01	-4.649304e+02
2.770000e-06	-4.168768e-06	-7.317007e-09	-3.007863e+01	-4.785997e+02
2.780000e-06	-4.295836e-06	-7.520095e-09	-3.099545e+01	-4.916860e+02
2.790000e-06	-4.421367e-06	-7.712105e-09	-3.190119e+01	-5.042155e+02
2.800000e-06	-4.545377e-06	-7.891314e-09	-3.279595e+01	-5.162000e+02
2.810000e-06	-4.667800e-06	-8.060263e-09	-3.367926e+01	-5.276430e+02
2.820000e-06	-4.788610e-06	-8.221726e-09	-3.455093e+01	-5.385452e+02
2.830000e-06	-4.907587e-06	-8.377076e-09	-3.540938e+01	-5.489102e+02
2.840000e-06	-5.024539e-06	-8.527300e-09	-3.625321e+01	-5.587476e+02
2.850000e-06	-5.139426e-06	-8.671621e-09	-3.708214e+01	-5.680750e+02
2.860000e-06	-5.252221e-06	-8.808472e-09	-3.789599e+01	-5.769182e+02
2.870000e-06	-5.362935e-06	-8.937899e-09	-3.869482e+01	-5.853094e+02
2.880000e-06	-5.471738e-06	-9.060412e-09	-3.947985e+01	-5.932848e+02
2.890000e-06	-5.578771e-06	-9.178433e-09	-4.025212e+01	-6.008811e+02
2.900000e-06	-5.683879e-06	-9.291427e-09	-4.101050e+01	-6.081327e+02
2.910000e-06	-5.786830e-06	-9.398747e-09	-4.175332e+01	-6.150689e+02
2.920000e-06	-5.887547e-06	-9.500022e-09	-4.248001e+01	-6.217123e+02
2.930000e-06	-5.986126e-06	-9.595858e-09	-4.319128e+01	-6.280788e+02
2.940000e-06	-6.082615e-06	-9.687629e-09	-4.388747e+01	-6.341781e+02
