# Temperatura_=_61.58
# Concentracion g/m^3_=_10000.0
# C_Vs_to_Am_M_A/Vsm_=_65563218390.804596
# pendiente_HvsI_1/m_=_3716.3
# ordenada_HvsI_A/m_=_1297.0
# frecuencia_Hz_=_302617.5356306449

Tiempo_(s)	Campo_(V.s)	Magnetizacion_(V.s)	Campo_(kA/m)	Magnetizacion_(A/m)
0.000000e+00	-7.860381e-06	-1.097823e-08	-5.683405e+01	-7.198665e+02
1.000000e-08	-7.858119e-06	-1.098413e-08	-5.681770e+01	-7.195135e+02
2.000000e-08	-7.853221e-06	-1.097925e-08	-5.678229e+01	-7.190286e+02
3.000000e-08	-7.845833e-06	-1.096900e-08	-5.672886e+01	-7.184314e+02
4.000000e-08	-7.835707e-06	-1.095802e-08	-5.665565e+01	-7.177432e+02
5.000000e-08	-7.822662e-06	-1.094545e-08	-5.656133e+01	-7.169843e+02
6.000000e-08	-7.806709e-06	-1.093112e-08	-5.644598e+01	-7.161717e+02
7.000000e-08	-7.788215e-06	-1.091516e-08	-5.631227e+01	-7.153168e+02
8.000000e-08	-7.767499e-06	-1.089115e-08	-5.616248e+01	-7.144246e+02
9.000000e-08	-7.744182e-06	-1.093056e-08	-5.599389e+01	-7.134930e+02
1.000000e-07	-7.717740e-06	-1.096604e-08	-5.580270e+01	-7.125139e+02
1.100000e-07	-7.688116e-06	-1.090738e-08	-5.558851e+01	-7.114741e+02
1.200000e-07	-7.655691e-06	-1.085324e-08	-5.535405e+01	-7.103574e+02
1.300000e-07	-7.620644e-06	-1.082729e-08	-5.510065e+01	-7.091470e+02
1.400000e-07	-7.583139e-06	-1.078800e-08	-5.482947e+01	-7.078267e+02
1.500000e-07	-7.543530e-06	-1.070425e-08	-5.454308e+01	-7.063833e+02
1.600000e-07	-7.501752e-06	-1.071745e-08	-5.424101e+01	-7.048071e+02
1.700000e-07	-7.457352e-06	-1.079431e-08	-5.391998e+01	-7.030924e+02
1.800000e-07	-7.410277e-06	-1.066954e-08	-5.357961e+01	-7.012372e+02
1.900000e-07	-7.360434e-06	-1.067025e-08	-5.321922e+01	-6.992424e+02
2.000000e-07	-7.307582e-06	-1.065655e-08	-5.283707e+01	-6.971108e+02
2.100000e-07	-7.251939e-06	-1.052919e-08	-5.243475e+01	-6.948459e+02
2.200000e-07	-7.193604e-06	-1.052815e-08	-5.201296e+01	-6.924508e+02
2.300000e-07	-7.132637e-06	-1.049342e-08	-5.157214e+01	-6.899276e+02
2.400000e-07	-7.069153e-06	-1.049025e-08	-5.111312e+01	-6.872772e+02
2.500000e-07	-7.002960e-06	-1.042688e-08	-5.063452e+01	-6.844992e+02
2.600000e-07	-6.934108e-06	-1.038826e-08	-5.013669e+01	-6.815925e+02
2.700000e-07	-6.862625e-06	-1.036634e-08	-4.961984e+01	-6.785557e+02
2.800000e-07	-6.788361e-06	-1.030033e-08	-4.908287e+01	-6.753880e+02
2.900000e-07	-6.711368e-06	-1.024562e-08	-4.852618e+01	-6.720895e+02
3.000000e-07	-6.631619e-06	-1.019360e-08	-4.794956e+01	-6.686612e+02
3.100000e-07	-6.549326e-06	-1.017052e-08	-4.735454e+01	-6.651051e+02
3.200000e-07	-6.464872e-06	-1.009614e-08	-4.674391e+01	-6.614235e+02
3.300000e-07	-6.378210e-06	-1.001805e-08	-4.611730e+01	-6.576182e+02
3.400000e-07	-6.289261e-06	-9.971678e-09	-4.547416e+01	-6.536898e+02
3.500000e-07	-6.198032e-06	-9.899662e-09	-4.481453e+01	-6.496367e+02
3.600000e-07	-6.104548e-06	-9.827121e-09	-4.413860e+01	-6.454547e+02
3.700000e-07	-6.008838e-06	-9.768092e-09	-4.344658e+01	-6.411372e+02
3.800000e-07	-5.910831e-06	-9.718642e-09	-4.273794e+01	-6.366750e+02
3.900000e-07	-5.810657e-06	-9.644474e-09	-4.201364e+01	-6.320574e+02
4.000000e-07	-5.708531e-06	-9.562164e-09	-4.127522e+01	-6.272738e+02
4.100000e-07	-5.604429e-06	-9.488388e-09	-4.052252e+01	-6.223142e+02
4.200000e-07	-5.498281e-06	-9.407222e-09	-3.975502e+01	-6.171709e+02
4.300000e-07	-5.390141e-06	-9.326451e-09	-3.897312e+01	-6.118393e+02
4.400000e-07	-5.280110e-06	-9.250618e-09	-3.817755e+01	-6.063185e+02
4.500000e-07	-5.168219e-06	-9.175358e-09	-3.736853e+01	-6.006105e+02
4.600000e-07	-5.054294e-06	-9.080038e-09	-3.654480e+01	-5.947203e+02
4.700000e-07	-4.938316e-06	-8.975333e-09	-3.570622e+01	-5.886536e+02
4.800000e-07	-4.820544e-06	-8.877932e-09	-3.485468e+01	-5.824158e+02
4.900000e-07	-4.701001e-06	-8.780668e-09	-3.399034e+01	-5.760101e+02
5.000000e-07	-4.579765e-06	-8.683185e-09	-3.311374e+01	-5.694359e+02
5.100000e-07	-4.456854e-06	-8.583722e-09	-3.222504e+01	-5.626881e+02
5.200000e-07	-4.332246e-06	-8.476076e-09	-3.132407e+01	-5.557566e+02
5.300000e-07	-4.206109e-06	-8.361497e-09	-3.041204e+01	-5.486272e+02
5.400000e-07	-4.078433e-06	-8.245287e-09	-2.948889e+01	-5.412822e+02
5.500000e-07	-3.949328e-06	-8.129067e-09	-2.855540e+01	-5.337031e+02
5.600000e-07	-3.818729e-06	-8.008146e-09	-2.761111e+01	-5.258719e+02
5.700000e-07	-3.686571e-06	-7.884039e-09	-2.665555e+01	-5.177734e+02
5.800000e-07	-3.553075e-06	-7.755405e-09	-2.569031e+01	-5.093969e+02
5.900000e-07	-3.418230e-06	-7.622421e-09	-2.471532e+01	-5.007364e+02
6.000000e-07	-3.282054e-06	-7.482478e-09	-2.373072e+01	-4.917912e+02
6.100000e-07	-3.144667e-06	-7.341877e-09	-2.273734e+01	-4.825642e+02
6.200000e-07	-3.006013e-06	-7.200131e-09	-2.173482e+01	-4.730600e+02
6.300000e-07	-2.865986e-06	-7.052762e-09	-2.072236e+01	-4.632828e+02
6.400000e-07	-2.724699e-06	-6.903407e-09	-1.970079e+01	-4.532332e+02
6.500000e-07	-2.582442e-06	-6.750460e-09	-1.867220e+01	-4.429062e+02
6.600000e-07	-2.439261e-06	-6.588406e-09	-1.763694e+01	-4.322898e+02
6.700000e-07	-2.295070e-06	-6.414225e-09	-1.659438e+01	-4.213638e+02
6.800000e-07	-2.150000e-06	-6.236231e-09	-1.554546e+01	-4.101013e+02
6.900000e-07	-2.004175e-06	-6.054683e-09	-1.449108e+01	-3.984702e+02
7.000000e-07	-1.857714e-06	-5.869402e-09	-1.343210e+01	-3.864364e+02
7.100000e-07	-1.710693e-06	-5.678660e-09	-1.236907e+01	-3.739669e+02
7.200000e-07	-1.563115e-06	-5.484183e-09	-1.130201e+01	-3.610333e+02
7.300000e-07	-1.415104e-06	-5.283017e-09	-1.023183e+01	-3.476145e+02
7.400000e-07	-1.266717e-06	-5.070123e-09	-9.158931e+00	-3.336981e+02
7.500000e-07	-1.117915e-06	-4.851753e-09	-8.083024e+00	-3.192799e+02
7.600000e-07	-9.687374e-07	-4.628556e-09	-7.004403e+00	-3.043619e+02
7.700000e-07	-8.192808e-07	-4.398057e-09	-5.923765e+00	-2.889481e+02
7.800000e-07	-6.695728e-07	-4.155847e-09	-4.841310e+00	-2.730400e+02
7.900000e-07	-5.196803e-07	-3.906300e-09	-3.757520e+00	-2.566297e+02
8.000000e-07	-3.696002e-07	-3.650041e-09	-2.672374e+00	-2.396954e+02
8.100000e-07	-2.193420e-07	-3.382255e-09	-1.585940e+00	-2.221966e+02
8.200000e-07	-6.898806e-08	-3.101250e-09	-4.988144e-01	-2.040718e+02
8.300000e-07	8.141406e-08	-2.810101e-09	5.886599e-01	-1.852399e+02
8.400000e-07	2.318240e-07	-2.508238e-09	1.676191e+00	-1.656038e+02
8.500000e-07	3.821609e-07	-2.188862e-09	2.763194e+00	-1.450580e+02
8.600000e-07	5.323968e-07	-1.855487e-09	3.849466e+00	-1.234988e+02
8.700000e-07	6.824872e-07	-1.511494e-09	4.934686e+00	-1.008364e+02
8.800000e-07	8.323970e-07	-1.153433e-09	6.018601e+00	-7.700803e+01
8.900000e-07	9.821055e-07	-7.773031e-10	7.101060e+00	-5.199008e+01
9.000000e-07	1.131483e-06	-3.839564e-10	8.181126e+00	-2.580840e+01
9.100000e-07	1.280465e-06	2.473058e-11	9.258333e+00	1.455022e+00
9.200000e-07	1.429044e-06	4.497514e-10	1.033263e+01	2.965976e+01
9.300000e-07	1.577142e-06	8.932719e-10	1.140344e+01	5.860967e+01
9.400000e-07	1.724691e-06	1.350286e-09	1.247029e+01	8.806063e+01
9.500000e-07	1.871629e-06	1.811816e-09	1.353271e+01	1.177328e+02
9.600000e-07	2.017924e-06	2.271061e-09	1.459049e+01	1.473264e+02
9.700000e-07	2.163533e-06	2.720419e-09	1.564331e+01	1.765392e+02
9.800000e-07	2.308244e-06	3.155016e-09	1.668964e+01	2.050850e+02
9.900000e-07	2.452017e-06	3.571980e-09	1.772917e+01	2.327099e+02
1.000000e-06	2.594871e-06	3.969906e-09	1.876207e+01	2.592060e+02
1.010000e-06	2.736701e-06	4.346116e-09	1.978756e+01	2.844212e+02
1.020000e-06	2.877476e-06	4.702728e-09	2.080543e+01	3.082634e+02
1.030000e-06	3.017066e-06	5.039826e-09	2.181473e+01	3.306999e+02
1.040000e-06	3.155399e-06	5.358866e-09	2.281494e+01	3.517522e+02
1.050000e-06	3.292462e-06	5.660745e-09	2.380597e+01	3.714861e+02
1.060000e-06	3.428204e-06	5.945654e-09	2.478745e+01	3.899998e+02
1.070000e-06	3.562660e-06	6.214318e-09	2.575962e+01	4.074106e+02
1.080000e-06	3.695892e-06	6.466798e-09	2.672295e+01	4.238415e+02
1.090000e-06	3.827902e-06	6.705477e-09	2.767744e+01	4.394094e+02
1.100000e-06	3.958520e-06	6.930632e-09	2.862187e+01	4.542170e+02
1.110000e-06	4.087680e-06	7.143891e-09	2.955575e+01	4.683459e+02
1.120000e-06	4.215381e-06	7.347917e-09	3.047908e+01	4.818558e+02
1.130000e-06	4.341604e-06	7.543383e-09	3.139173e+01	4.947847e+02
1.140000e-06	4.466404e-06	7.731233e-09	3.229409e+01	5.071529e+02
1.150000e-06	4.589638e-06	7.910825e-09	3.318512e+01	5.189686e+02
1.160000e-06	4.711180e-06	8.079937e-09	3.406393e+01	5.302341e+02
1.170000e-06	4.831060e-06	8.239796e-09	3.493072e+01	5.409513e+02
1.180000e-06	4.949272e-06	8.391632e-09	3.578544e+01	5.511269e+02
1.190000e-06	5.065694e-06	8.537289e-09	3.662722e+01	5.607752e+02
1.200000e-06	5.180073e-06	8.676711e-09	3.745423e+01	5.699192e+02
1.210000e-06	5.292320e-06	8.811138e-09	3.826583e+01	5.785898e+02
1.220000e-06	5.402606e-06	8.940390e-09	3.906325e+01	5.868238e+02
1.230000e-06	5.511116e-06	9.065972e-09	3.984783e+01	5.946600e+02
1.240000e-06	5.617720e-06	9.186675e-09	4.061862e+01	6.021364e+02
1.250000e-06	5.722230e-06	9.298040e-09	4.137427e+01	6.092861e+02
1.260000e-06	5.824650e-06	9.400120e-09	4.211481e+01	6.161356e+02
1.270000e-06	5.924977e-06	9.495241e-09	4.284023e+01	6.227036e+02
1.280000e-06	6.023067e-06	9.585829e-09	4.354946e+01	6.290010e+02
1.290000e-06	6.118822e-06	9.673017e-09	4.424181e+01	6.350325e+02
1.300000e-06	6.212387e-06	9.757593e-09	4.491832e+01	6.407987e+02
1.310000e-06	6.303804e-06	9.838305e-09	4.557931e+01	6.462994e+02
1.320000e-06	6.392876e-06	9.916996e-09	4.622334e+01	6.515358e+02
1.330000e-06	6.479587e-06	9.995284e-09	4.685030e+01	6.565126e+02
1.340000e-06	6.564117e-06	1.007079e-08	4.746149e+01	6.612395e+02
1.350000e-06	6.646378e-06	1.014152e-08	4.805627e+01	6.657308e+02
1.360000e-06	6.726183e-06	1.020611e-08	4.863330e+01	6.700047e+02
1.370000e-06	6.803537e-06	1.026693e-08	4.919261e+01	6.740812e+02
1.380000e-06	6.878302e-06	1.032628e-08	4.973319e+01	6.779795e+02
1.390000e-06	6.950415e-06	1.038365e-08	5.025460e+01	6.817158e+02
1.400000e-06	7.020084e-06	1.043828e-08	5.075833e+01	6.853008e+02
1.410000e-06	7.087314e-06	1.049060e-08	5.124444e+01	6.887386e+02
1.420000e-06	7.151929e-06	1.054129e-08	5.171164e+01	6.920261e+02
1.430000e-06	7.213988e-06	1.058980e-08	5.216035e+01	6.951541e+02
1.440000e-06	7.273699e-06	1.063494e-08	5.259209e+01	6.981088e+02
1.450000e-06	7.330898e-06	1.067582e-08	5.300566e+01	7.008747e+02
1.460000e-06	7.385467e-06	1.071235e-08	5.340022e+01	7.034373e+02
1.470000e-06	7.437122e-06	1.074614e-08	5.377370e+01	7.057861e+02
1.480000e-06	7.485685e-06	1.077671e-08	5.412484e+01	7.079166e+02
1.490000e-06	7.531503e-06	1.080548e-08	5.445612e+01	7.098317e+02
1.500000e-06	7.574670e-06	1.083234e-08	5.476824e+01	7.115424e+02
1.510000e-06	7.615099e-06	1.085696e-08	5.506056e+01	7.130659e+02
1.520000e-06	7.652843e-06	1.087937e-08	5.533347e+01	7.144246e+02
1.530000e-06	7.687898e-06	1.089837e-08	5.558693e+01	7.156425e+02
1.540000e-06	7.720172e-06	1.091751e-08	5.582029e+01	7.167428e+02
1.550000e-06	7.749769e-06	1.093532e-08	5.603429e+01	7.177448e+02
1.560000e-06	7.776687e-06	1.095080e-08	5.622891e+01	7.186613e+02
1.570000e-06	7.800642e-06	1.096428e-08	5.640212e+01	7.194980e+02
1.580000e-06	7.821790e-06	1.097462e-08	5.655502e+01	7.202524e+02
1.590000e-06	7.840280e-06	1.098385e-08	5.668872e+01	7.209153e+02
1.600000e-06	7.855853e-06	1.099203e-08	5.680132e+01	7.214726e+02
1.610000e-06	7.868404e-06	1.099863e-08	5.689207e+01	7.219077e+02
1.620000e-06	7.877837e-06	1.100388e-08	5.696027e+01	7.222048e+02
1.630000e-06	7.884323e-06	1.100834e-08	5.700717e+01	7.223514e+02
1.640000e-06	7.888117e-06	1.101125e-08	5.703460e+01	7.223405e+02
1.650000e-06	7.889071e-06	1.101247e-08	5.704150e+01	7.221722e+02
1.660000e-06	7.887257e-06	1.100416e-08	5.702838e+01	7.218539e+02
1.670000e-06	7.882971e-06	1.099579e-08	5.699739e+01	7.213996e+02
1.680000e-06	7.876067e-06	1.098997e-08	5.694748e+01	7.208277e+02
1.690000e-06	7.866473e-06	1.098034e-08	5.687810e+01	7.201595e+02
1.700000e-06	7.854182e-06	1.097082e-08	5.678923e+01	7.194158e+02
1.710000e-06	7.839076e-06	1.096667e-08	5.668001e+01	7.186146e+02
1.720000e-06	7.821469e-06	1.096577e-08	5.655271e+01	7.177688e+02
1.730000e-06	7.801683e-06	1.094305e-08	5.640964e+01	7.168851e+02
1.740000e-06	7.779309e-06	1.083126e-08	5.624787e+01	7.159632e+02
1.750000e-06	7.753651e-06	1.081238e-08	5.606235e+01	7.149963e+02
1.760000e-06	7.724356e-06	1.085035e-08	5.585053e+01	7.139723e+02
1.770000e-06	7.691869e-06	1.083127e-08	5.561564e+01	7.128757e+02
1.780000e-06	7.657047e-06	1.081845e-08	5.536386e+01	7.116895e+02
1.790000e-06	7.619988e-06	1.089722e-08	5.509591e+01	7.103973e+02
1.800000e-06	7.580700e-06	1.085284e-08	5.481184e+01	7.089851e+02
1.810000e-06	7.539383e-06	1.071412e-08	5.451310e+01	7.074420e+02
1.820000e-06	7.495648e-06	1.080827e-08	5.419687e+01	7.057615e+02
1.830000e-06	7.449270e-06	1.071803e-08	5.386154e+01	7.039407e+02
1.840000e-06	7.400174e-06	1.072873e-08	5.350655e+01	7.019799e+02
1.850000e-06	7.348140e-06	1.075400e-08	5.313033e+01	6.998814e+02
1.860000e-06	7.293270e-06	1.065145e-08	5.273359e+01	6.976487e+02
1.870000e-06	7.235662e-06	1.068331e-08	5.231706e+01	6.952852e+02
1.880000e-06	7.175514e-06	1.051936e-08	5.188216e+01	6.927931e+02
1.890000e-06	7.112696e-06	1.051512e-08	5.142796e+01	6.901738e+02
1.900000e-06	7.047053e-06	1.050289e-08	5.095333e+01	6.874270e+02
1.910000e-06	6.978778e-06	1.039561e-08	5.045968e+01	6.845519e+02
1.920000e-06	6.907700e-06	1.042929e-08	4.994575e+01	6.815470e+02
1.930000e-06	6.833961e-06	1.035145e-08	4.941259e+01	6.784113e+02
1.940000e-06	6.757580e-06	1.031956e-08	4.886031e+01	6.751447e+02
1.950000e-06	6.678385e-06	1.021954e-08	4.828770e+01	6.717479e+02
1.960000e-06	6.596690e-06	1.017652e-08	4.769701e+01	6.682228e+02
1.970000e-06	6.512660e-06	1.016244e-08	4.708944e+01	6.645717e+02
1.980000e-06	6.426214e-06	1.005793e-08	4.646439e+01	6.607964e+02
1.990000e-06	6.337311e-06	1.004387e-08	4.582158e+01	6.568981e+02
2.000000e-06	6.246218e-06	9.973991e-09	4.516294e+01	6.528757e+02
2.010000e-06	6.153047e-06	9.908540e-09	4.448927e+01	6.487258e+02
2.020000e-06	6.057585e-06	9.810085e-09	4.379904e+01	6.444422e+02
2.030000e-06	5.959908e-06	9.752576e-09	4.309279e+01	6.400163e+02
2.040000e-06	5.860166e-06	9.699975e-09	4.237161e+01	6.354379e+02
2.050000e-06	5.758340e-06	9.620328e-09	4.163536e+01	6.306961e+02
2.060000e-06	5.654389e-06	9.558056e-09	4.088375e+01	6.257805e+02
2.070000e-06	5.548514e-06	9.475858e-09	4.011823e+01	6.206829e+02
2.080000e-06	5.440821e-06	9.389315e-09	3.933956e+01	6.153979e+02
2.090000e-06	5.331205e-06	9.276892e-09	3.854699e+01	6.099236e+02
2.100000e-06	5.219615e-06	9.204067e-09	3.774015e+01	6.042613e+02
2.110000e-06	5.106069e-06	9.124607e-09	3.691916e+01	5.984153e+02
2.120000e-06	4.990571e-06	9.041638e-09	3.608405e+01	5.923915e+02
2.130000e-06	4.873133e-06	8.948854e-09	3.523492e+01	5.861953e+02
2.140000e-06	4.753772e-06	8.855800e-09	3.437189e+01	5.798307e+02
2.150000e-06	4.632628e-06	8.752246e-09	3.349597e+01	5.732982e+02
2.160000e-06	4.509842e-06	8.640602e-09	3.260817e+01	5.665938e+02
2.170000e-06	4.385371e-06	8.537857e-09	3.170819e+01	5.597087e+02
2.180000e-06	4.259333e-06	8.433572e-09	3.079687e+01	5.526295e+02
2.190000e-06	4.131639e-06	8.329108e-09	2.987359e+01	5.453395e+02
2.200000e-06	4.002467e-06	8.212942e-09	2.893962e+01	5.378199e+02
2.210000e-06	3.871959e-06	8.092878e-09	2.799599e+01	5.300525e+02
2.220000e-06	3.739999e-06	7.962787e-09	2.704186e+01	5.220213e+02
2.230000e-06	3.606629e-06	7.840800e-09	2.607753e+01	5.137143e+02
2.240000e-06	3.471896e-06	7.718773e-09	2.510335e+01	5.051243e+02
2.250000e-06	3.335794e-06	7.590988e-09	2.411928e+01	4.962494e+02
2.260000e-06	3.198447e-06	7.452593e-09	2.312620e+01	4.870917e+02
2.270000e-06	3.059961e-06	7.310741e-09	2.212488e+01	4.776556e+02
2.280000e-06	2.920260e-06	7.159436e-09	2.111478e+01	4.679457e+02
2.290000e-06	2.779403e-06	6.997447e-09	2.009633e+01	4.579636e+02
2.300000e-06	2.637490e-06	6.835868e-09	1.907023e+01	4.477061e+02
2.310000e-06	2.494554e-06	6.676709e-09	1.803674e+01	4.371629e+02
2.320000e-06	2.350624e-06	6.516697e-09	1.699606e+01	4.263158e+02
2.330000e-06	2.205841e-06	6.350070e-09	1.594922e+01	4.151395e+02
2.340000e-06	2.060421e-06	6.179686e-09	1.489776e+01	4.036030e+02
2.350000e-06	1.914400e-06	5.998328e-09	1.384197e+01	3.916724e+02
2.360000e-06	1.767740e-06	5.803618e-09	1.278155e+01	3.793139e+02
2.370000e-06	1.620474e-06	5.601947e-09	1.171675e+01	3.664979e+02
2.380000e-06	1.472719e-06	5.398538e-09	1.064841e+01	3.532012e+02
2.390000e-06	1.324538e-06	5.192653e-09	9.577001e+00	3.394092e+02
2.400000e-06	1.175867e-06	4.977880e-09	8.502043e+00	3.251157e+02
2.410000e-06	1.026731e-06	4.751350e-09	7.423725e+00	3.103214e+02
2.420000e-06	8.772685e-07	4.515712e-09	6.343042e+00	2.950306e+02
2.430000e-06	7.275874e-07	4.273643e-09	5.260781e+00	2.792455e+02
2.440000e-06	5.777161e-07	4.028646e-09	4.177145e+00	2.629615e+02
2.450000e-06	4.276855e-07	3.776585e-09	3.092357e+00	2.461605e+02
2.460000e-06	2.775081e-07	3.512536e-09	2.006507e+00	2.288069e+02
2.470000e-06	1.271690e-07	3.234921e-09	9.194883e-01	2.108448e+02
2.480000e-06	-2.329464e-08	2.945017e-09	-1.684306e-01	1.921975e+02
2.490000e-06	-1.737671e-07	2.645776e-09	-1.256413e+00	1.727715e+02
2.500000e-06	-3.241372e-07	2.332907e-09	-2.343657e+00	1.524623e+02
2.510000e-06	-4.744124e-07	2.004594e-09	-3.430213e+00	1.311649e+02
2.520000e-06	-6.245964e-07	1.662505e-09	-4.516110e+00	1.087847e+02
2.530000e-06	-7.746182e-07	1.306531e-09	-5.600834e+00	8.525102e+01
2.540000e-06	-9.244411e-07	9.373437e-10	-6.684121e+00	6.052937e+01
2.550000e-06	-1.074020e-06	5.530964e-10	-7.765644e+00	3.463247e+01
2.560000e-06	-1.223261e-06	1.490276e-10	-8.844720e+00	7.627848e+00
2.570000e-06	-1.371952e-06	-2.780936e-10	-9.919823e+00	-2.035861e+01
2.580000e-06	-1.520011e-06	-7.225452e-10	-1.099036e+01	-4.914416e+01
2.590000e-06	-1.667556e-06	-1.175747e-09	-1.205718e+01	-7.849568e+01
2.600000e-06	-1.814576e-06	-1.633107e-09	-1.312020e+01	-1.081409e+02
2.610000e-06	-1.960927e-06	-2.092449e-09	-1.417838e+01	-1.377834e+02
2.620000e-06	-2.106535e-06	-2.548235e-09	-1.523119e+01	-1.671200e+02
2.630000e-06	-2.251403e-06	-2.991832e-09	-1.627865e+01	-1.958586e+02
2.640000e-06	-2.395428e-06	-3.416186e-09	-1.732001e+01	-2.237359e+02
2.650000e-06	-2.538431e-06	-3.819900e-09	-1.835399e+01	-2.505315e+02
2.660000e-06	-2.680395e-06	-4.204734e-09	-1.938045e+01	-2.760787e+02
2.670000e-06	-2.821207e-06	-4.571346e-09	-2.039858e+01	-3.002702e+02
2.680000e-06	-2.960817e-06	-4.916761e-09	-2.140803e+01	-3.230589e+02
2.690000e-06	-3.099274e-06	-5.240510e-09	-2.240913e+01	-3.444533e+02
2.700000e-06	-3.236577e-06	-5.546584e-09	-2.340189e+01	-3.645094e+02
2.710000e-06	-3.372714e-06	-5.836785e-09	-2.438622e+01	-3.833184e+02
2.720000e-06	-3.507580e-06	-6.112032e-09	-2.536137e+01	-4.009942e+02
2.730000e-06	-3.641149e-06	-6.370912e-09	-2.632713e+01	-4.176594e+02
2.740000e-06	-3.773371e-06	-6.614207e-09	-2.728316e+01	-4.334335e+02
2.750000e-06	-3.904239e-06	-6.845151e-09	-2.822939e+01	-4.484233e+02
2.760000e-06	-4.033803e-06	-7.067477e-09	-2.916619e+01	-4.627162e+02
2.770000e-06	-4.162047e-06	-7.280884e-09	-3.009345e+01	-4.763773e+02
2.780000e-06	-4.288847e-06	-7.482495e-09	-3.101027e+01	-4.894496e+02
2.790000e-06	-4.414113e-06	-7.672785e-09	-3.191600e+01	-5.019576e+02
2.800000e-06	-4.537839e-06	-7.851392e-09	-3.281060e+01	-5.139119e+02
2.810000e-06	-4.659999e-06	-8.019648e-09	-3.369387e+01	-5.253155e+02
2.820000e-06	-4.780463e-06	-8.180954e-09	-3.456488e+01	-5.361702e+02
2.830000e-06	-4.899061e-06	-8.336432e-09	-3.542239e+01	-5.464809e+02
2.840000e-06	-5.015677e-06	-8.485815e-09	-3.626558e+01	-5.562600e+02
2.850000e-06	-5.130294e-06	-8.627610e-09	-3.709431e+01	-5.655281e+02
2.860000e-06	-5.242800e-06	-8.761719e-09	-3.790778e+01	-5.743146e+02
2.870000e-06	-5.353227e-06	-8.890422e-09	-3.870621e+01	-5.826548e+02
2.880000e-06	-5.461808e-06	-9.013886e-09	-3.949131e+01	-5.905876e+02
2.890000e-06	-5.568607e-06	-9.132090e-09	-4.026351e+01	-5.981513e+02
2.900000e-06	-5.673488e-06	-9.245274e-09	-4.102185e+01	-6.053807e+02
2.910000e-06	-5.776204e-06	-9.353983e-09	-4.176453e+01	-6.123039e+02
2.920000e-06	-5.876700e-06	-9.458085e-09	-4.249116e+01	-6.189418e+02
2.930000e-06	-5.975129e-06	-9.554451e-09	-4.320285e+01	-6.253069e+02
2.940000e-06	-6.071512e-06	-9.642988e-09	-4.389974e+01	-6.314054e+02
