# Temperatura_=_47.7
# Concentracion g/m^3_=_10000.0
# C_Vs_to_Am_M_A/Vsm_=_65563218390.804596
# pendiente_HvsI_1/m_=_3716.3
# ordenada_HvsI_A/m_=_1297.0
# frecuencia_Hz_=_302622.4585093424

Tiempo_(s)	Campo_(V.s)	Magnetizacion_(V.s)	Campo_(kA/m)	Magnetizacion_(A/m)
0.000000e+00	-7.939791e-06	-1.048038e-08	-5.682965e+01	-6.875590e+02
1.000000e-08	-7.937374e-06	-1.048970e-08	-5.681235e+01	-6.872948e+02
2.000000e-08	-7.932309e-06	-1.048777e-08	-5.677610e+01	-6.869096e+02
3.000000e-08	-7.924688e-06	-1.048029e-08	-5.672155e+01	-6.864156e+02
4.000000e-08	-7.914308e-06	-1.047097e-08	-5.664725e+01	-6.858278e+02
5.000000e-08	-7.901001e-06	-1.045774e-08	-5.655201e+01	-6.851623e+02
6.000000e-08	-7.884738e-06	-1.044096e-08	-5.643560e+01	-6.844343e+02
7.000000e-08	-7.865919e-06	-1.042494e-08	-5.630091e+01	-6.836570e+02
8.000000e-08	-7.844893e-06	-1.041013e-08	-5.615041e+01	-6.828398e+02
9.000000e-08	-7.821207e-06	-1.047223e-08	-5.598088e+01	-6.819878e+02
1.000000e-07	-7.794347e-06	-1.049266e-08	-5.578862e+01	-6.811015e+02
1.100000e-07	-7.764400e-06	-1.042084e-08	-5.557428e+01	-6.801771e+02
1.200000e-07	-7.731634e-06	-1.037815e-08	-5.533975e+01	-6.792071e+02
1.300000e-07	-7.696130e-06	-1.035734e-08	-5.508563e+01	-6.781811e+02
1.400000e-07	-7.658175e-06	-1.032080e-08	-5.481396e+01	-6.770870e+02
1.500000e-07	-7.618016e-06	-1.024054e-08	-5.452652e+01	-6.759120e+02
1.600000e-07	-7.575574e-06	-1.026218e-08	-5.422274e+01	-6.746432e+02
1.700000e-07	-7.530513e-06	-1.032077e-08	-5.390022e+01	-6.732687e+02
1.800000e-07	-7.482719e-06	-1.020575e-08	-5.355813e+01	-6.717776e+02
1.900000e-07	-7.432149e-06	-1.023454e-08	-5.319616e+01	-6.701604e+02
2.000000e-07	-7.378607e-06	-1.021705e-08	-5.281294e+01	-6.684096e+02
2.100000e-07	-7.322260e-06	-1.009091e-08	-5.240963e+01	-6.665189e+02
2.200000e-07	-7.263246e-06	-1.008453e-08	-5.198723e+01	-6.644840e+02
2.300000e-07	-7.201632e-06	-1.005586e-08	-5.154622e+01	-6.623022e+02
2.400000e-07	-7.137421e-06	-1.007127e-08	-5.108663e+01	-6.599728e+02
2.500000e-07	-7.070450e-06	-1.000520e-08	-5.060728e+01	-6.574969e+02
2.600000e-07	-7.000757e-06	-9.968850e-09	-5.010844e+01	-6.548777e+02
2.700000e-07	-6.928343e-06	-9.943127e-09	-4.959014e+01	-6.521202e+02
2.800000e-07	-6.853162e-06	-9.887656e-09	-4.905202e+01	-6.492309e+02
2.900000e-07	-6.775233e-06	-9.842429e-09	-4.849424e+01	-6.462170e+02
3.000000e-07	-6.694563e-06	-9.800498e-09	-4.791684e+01	-6.430863e+02
3.100000e-07	-6.611434e-06	-9.789310e-09	-4.732183e+01	-6.398457e+02
3.200000e-07	-6.526108e-06	-9.703987e-09	-4.671111e+01	-6.365001e+02
3.300000e-07	-6.438508e-06	-9.633689e-09	-4.608411e+01	-6.330522e+02
3.400000e-07	-6.348552e-06	-9.602830e-09	-4.544024e+01	-6.295012e+02
3.500000e-07	-6.256250e-06	-9.542574e-09	-4.477958e+01	-6.258429e+02
3.600000e-07	-6.161695e-06	-9.465741e-09	-4.410280e+01	-6.220693e+02
3.700000e-07	-6.064927e-06	-9.409418e-09	-4.341017e+01	-6.181700e+02
3.800000e-07	-5.965897e-06	-9.370883e-09	-4.270136e+01	-6.141325e+02
3.900000e-07	-5.864695e-06	-9.299274e-09	-4.197699e+01	-6.099438e+02
4.000000e-07	-5.761395e-06	-9.224956e-09	-4.123762e+01	-6.055920e+02
4.100000e-07	-5.656092e-06	-9.158383e-09	-4.048390e+01	-6.010673e+02
4.200000e-07	-5.548835e-06	-9.086815e-09	-3.971621e+01	-5.963635e+02
4.300000e-07	-5.439610e-06	-9.005639e-09	-3.893442e+01	-5.914781e+02
4.400000e-07	-5.328469e-06	-8.937168e-09	-3.813892e+01	-5.864123e+02
4.500000e-07	-5.215334e-06	-8.879306e-09	-3.732914e+01	-5.811706e+02
4.600000e-07	-5.100136e-06	-8.798907e-09	-3.650460e+01	-5.757592e+02
4.700000e-07	-4.982972e-06	-8.699198e-09	-3.566600e+01	-5.701845e+02
4.800000e-07	-4.863930e-06	-8.604738e-09	-3.481395e+01	-5.644514e+02
4.900000e-07	-4.743091e-06	-8.516779e-09	-3.394903e+01	-5.585614e+02
5.000000e-07	-4.620542e-06	-8.424633e-09	-3.307188e+01	-5.525113e+02
5.100000e-07	-4.496307e-06	-8.332331e-09	-3.218265e+01	-5.462932e+02
5.200000e-07	-4.370476e-06	-8.234100e-09	-3.128201e+01	-5.398939e+02
5.300000e-07	-4.242978e-06	-8.128874e-09	-3.036943e+01	-5.332964e+02
5.400000e-07	-4.113930e-06	-8.018991e-09	-2.944576e+01	-5.264813e+02
5.500000e-07	-3.983506e-06	-7.913395e-09	-2.851224e+01	-5.194289e+02
5.600000e-07	-3.851479e-06	-7.802845e-09	-2.756725e+01	-5.121211e+02
5.700000e-07	-3.717961e-06	-7.684948e-09	-2.661159e+01	-5.045438e+02
5.800000e-07	-3.583100e-06	-7.563250e-09	-2.564631e+01	-4.966877e+02
5.900000e-07	-3.446822e-06	-7.439153e-09	-2.467089e+01	-4.885490e+02
6.000000e-07	-3.309193e-06	-7.309553e-09	-2.368580e+01	-4.801290e+02
6.100000e-07	-3.170283e-06	-7.176048e-09	-2.269154e+01	-4.714324e+02
6.200000e-07	-3.030013e-06	-7.041345e-09	-2.168755e+01	-4.624654e+02
6.300000e-07	-2.888332e-06	-6.902831e-09	-2.067346e+01	-4.532326e+02
6.400000e-07	-2.745507e-06	-6.761733e-09	-1.965117e+01	-4.437349e+02
6.500000e-07	-2.601678e-06	-6.616853e-09	-1.862171e+01	-4.339668e+02
6.600000e-07	-2.456866e-06	-6.464465e-09	-1.758520e+01	-4.239150e+02
6.700000e-07	-2.311196e-06	-6.299491e-09	-1.654256e+01	-4.135582e+02
6.800000e-07	-2.164705e-06	-6.130895e-09	-1.549404e+01	-4.028679e+02
6.900000e-07	-2.017521e-06	-5.959574e-09	-1.444056e+01	-3.918107e+02
7.000000e-07	-1.869710e-06	-5.783185e-09	-1.338259e+01	-3.803512e+02
7.100000e-07	-1.721269e-06	-5.600671e-09	-1.232011e+01	-3.684554e+02
7.200000e-07	-1.572324e-06	-5.413350e-09	-1.125403e+01	-3.560941e+02
7.300000e-07	-1.422956e-06	-5.220095e-09	-1.018491e+01	-3.432456e+02
7.400000e-07	-1.273211e-06	-5.015797e-09	-9.113104e+00	-3.298970e+02
7.500000e-07	-1.123019e-06	-4.806510e-09	-8.038094e+00	-3.160438e+02
7.600000e-07	-9.723828e-07	-4.593430e-09	-6.959903e+00	-3.016882e+02
7.700000e-07	-8.214051e-07	-4.371981e-09	-5.879269e+00	-2.868349e+02
7.800000e-07	-6.700894e-07	-4.136310e-09	-4.796216e+00	-2.714866e+02
7.900000e-07	-5.185070e-07	-3.891971e-09	-3.711253e+00	-2.556380e+02
8.000000e-07	-3.666994e-07	-3.643291e-09	-2.624678e+00	-2.392706e+02
8.100000e-07	-2.147359e-07	-3.385513e-09	-1.536988e+00	-2.223486e+02
8.200000e-07	-6.269622e-08	-3.115121e-09	-4.487529e-01	-2.048167e+02
8.300000e-07	8.946382e-08	-2.835211e-09	6.403441e-01	-1.866007e+02
8.400000e-07	2.416445e-07	-2.545022e-09	1.729588e+00	-1.676112e+02
8.500000e-07	3.937306e-07	-2.237482e-09	2.818156e+00	-1.477500e+02
8.600000e-07	5.457522e-07	-1.915035e-09	3.906263e+00	-1.269199e+02
8.700000e-07	6.976543e-07	-1.581649e-09	4.993513e+00	-1.050360e+02
8.800000e-07	8.492924e-07	-1.235034e-09	6.078875e+00	-8.203740e+01
8.900000e-07	1.000582e-06	-8.695085e-10	7.161739e+00	-5.789926e+01
9.000000e-07	1.151487e-06	-4.874282e-10	8.241852e+00	-3.264231e+01
9.100000e-07	1.301902e-06	-9.334522e-11	9.318464e+00	-6.339550e+00
9.200000e-07	1.451795e-06	3.158217e-10	1.039133e+01	2.088113e+01
9.300000e-07	1.601249e-06	7.429560e-10	1.146106e+01	4.883897e+01
9.400000e-07	1.750175e-06	1.182375e-09	1.252701e+01	7.730698e+01
9.500000e-07	1.898434e-06	1.627006e-09	1.358818e+01	1.060229e+02
9.600000e-07	2.046027e-06	2.071121e-09	1.464459e+01	1.347036e+02
9.700000e-07	2.192877e-06	2.506900e-09	1.569568e+01	1.630610e+02
9.800000e-07	2.338886e-06	2.931260e-09	1.674075e+01	1.908194e+02
9.900000e-07	2.484061e-06	3.338965e-09	1.777985e+01	2.177310e+02
1.000000e-06	2.628402e-06	3.728401e-09	1.881298e+01	2.435894e+02
1.010000e-06	2.771731e-06	4.097207e-09	1.983888e+01	2.682388e+02
1.020000e-06	2.913933e-06	4.445752e-09	2.085670e+01	2.915798e+02
1.030000e-06	3.054997e-06	4.775970e-09	2.186637e+01	3.135689e+02
1.040000e-06	3.194760e-06	5.088068e-09	2.286674e+01	3.342149e+02
1.050000e-06	3.333194e-06	5.382729e-09	2.385759e+01	3.535709e+02
1.060000e-06	3.470379e-06	5.660071e-09	2.483950e+01	3.717230e+02
1.070000e-06	3.606251e-06	5.922660e-09	2.581201e+01	3.887784e+02
1.080000e-06	3.740743e-06	6.171512e-09	2.677465e+01	4.048529e+02
1.090000e-06	3.873920e-06	6.407285e-09	2.772787e+01	4.200596e+02
1.100000e-06	4.005734e-06	6.628764e-09	2.867134e+01	4.344998e+02
1.110000e-06	4.136090e-06	6.836409e-09	2.960438e+01	4.482570e+02
1.120000e-06	4.265010e-06	7.033248e-09	3.052713e+01	4.613939e+02
1.130000e-06	4.392382e-06	7.220957e-09	3.143881e+01	4.739524e+02
1.140000e-06	4.518257e-06	7.401086e-09	3.233977e+01	4.859566e+02
1.150000e-06	4.642653e-06	7.574362e-09	3.323014e+01	4.974170e+02
1.160000e-06	4.765368e-06	7.738564e-09	3.410848e+01	5.083365e+02
1.170000e-06	4.886385e-06	7.894136e-09	3.497467e+01	5.187161e+02
1.180000e-06	5.005603e-06	8.042667e-09	3.582798e+01	5.285594e+02
1.190000e-06	5.123000e-06	8.185313e-09	3.666826e+01	5.378765e+02
1.200000e-06	5.238473e-06	8.320528e-09	3.749477e+01	5.466858e+02
1.210000e-06	5.351869e-06	8.449174e-09	3.830640e+01	5.550141e+02
1.220000e-06	5.463277e-06	8.570855e-09	3.910382e+01	5.628951e+02
1.230000e-06	5.572773e-06	8.689354e-09	3.988754e+01	5.703668e+02
1.240000e-06	5.680333e-06	8.803730e-09	4.065741e+01	5.774683e+02
1.250000e-06	5.785860e-06	8.909813e-09	4.141273e+01	5.842367e+02
1.260000e-06	5.889209e-06	9.008564e-09	4.215246e+01	5.907041e+02
1.270000e-06	5.990376e-06	9.100092e-09	4.287657e+01	5.968960e+02
1.280000e-06	6.089387e-06	9.187426e-09	4.358525e+01	6.028306e+02
1.290000e-06	6.186066e-06	9.270165e-09	4.427723e+01	6.085193e+02
1.300000e-06	6.280416e-06	9.348906e-09	4.495255e+01	6.139676e+02
1.310000e-06	6.372542e-06	9.424605e-09	4.561195e+01	6.191779e+02
1.320000e-06	6.462423e-06	9.498910e-09	4.625528e+01	6.241508e+02
1.330000e-06	6.549957e-06	9.572853e-09	4.688181e+01	6.288882e+02
1.340000e-06	6.635187e-06	9.644817e-09	4.749185e+01	6.333937e+02
1.350000e-06	6.718111e-06	9.713362e-09	4.808538e+01	6.376746e+02
1.360000e-06	6.798546e-06	9.776047e-09	4.866111e+01	6.417408e+02
1.370000e-06	6.876447e-06	9.833411e-09	4.921869e+01	6.456047e+02
1.380000e-06	6.951775e-06	9.888322e-09	4.975785e+01	6.492792e+02
1.390000e-06	7.024447e-06	9.941460e-09	5.027801e+01	6.527768e+02
1.400000e-06	7.094630e-06	9.992370e-09	5.078035e+01	6.561072e+02
1.410000e-06	7.162404e-06	1.004138e-08	5.126544e+01	6.592764e+02
1.420000e-06	7.227617e-06	1.008837e-08	5.173221e+01	6.622860e+02
1.430000e-06	7.290222e-06	1.013196e-08	5.218031e+01	6.651336e+02
1.440000e-06	7.350368e-06	1.017131e-08	5.261081e+01	6.678131e+02
1.450000e-06	7.407992e-06	1.020861e-08	5.302326e+01	6.703168e+02
1.460000e-06	7.462915e-06	1.024388e-08	5.341637e+01	6.726369e+02
1.470000e-06	7.514926e-06	1.027634e-08	5.378865e+01	6.747674e+02
1.480000e-06	7.563861e-06	1.030541e-08	5.413891e+01	6.767060e+02
1.490000e-06	7.609985e-06	1.033249e-08	5.446904e+01	6.784555e+02
1.500000e-06	7.653455e-06	1.035752e-08	5.478018e+01	6.800236e+02
1.510000e-06	7.694157e-06	1.037873e-08	5.507151e+01	6.814230e+02
1.520000e-06	7.732133e-06	1.039740e-08	5.534333e+01	6.826703e+02
1.530000e-06	7.767441e-06	1.041522e-08	5.559604e+01	6.837842e+02
1.540000e-06	7.799988e-06	1.043430e-08	5.582900e+01	6.847833e+02
1.550000e-06	7.829817e-06	1.045203e-08	5.604251e+01	6.856840e+02
1.560000e-06	7.856856e-06	1.046665e-08	5.623604e+01	6.864990e+02
1.570000e-06	7.880926e-06	1.047809e-08	5.640832e+01	6.872358e+02
1.580000e-06	7.902196e-06	1.048773e-08	5.656057e+01	6.878961e+02
1.590000e-06	7.920747e-06	1.049636e-08	5.669334e+01	6.884761e+02
1.600000e-06	7.936343e-06	1.050295e-08	5.680497e+01	6.889677e+02
1.610000e-06	7.948884e-06	1.050806e-08	5.689473e+01	6.893599e+02
1.620000e-06	7.958337e-06	1.051288e-08	5.696240e+01	6.896410e+02
1.630000e-06	7.964810e-06	1.051750e-08	5.700873e+01	6.898003e+02
1.640000e-06	7.968520e-06	1.052055e-08	5.703529e+01	6.898303e+02
1.650000e-06	7.969389e-06	1.052337e-08	5.704150e+01	6.897279e+02
1.660000e-06	7.967503e-06	1.051484e-08	5.702800e+01	6.894949e+02
1.670000e-06	7.963015e-06	1.050673e-08	5.699588e+01	6.891384e+02
1.680000e-06	7.955843e-06	1.050063e-08	5.694455e+01	6.886697e+02
1.690000e-06	7.946054e-06	1.049318e-08	5.687448e+01	6.881034e+02
1.700000e-06	7.933472e-06	1.048814e-08	5.678443e+01	6.874553e+02
1.710000e-06	7.918047e-06	1.048709e-08	5.667402e+01	6.867411e+02
1.720000e-06	7.900195e-06	1.048559e-08	5.654624e+01	6.859746e+02
1.730000e-06	7.880119e-06	1.044332e-08	5.640254e+01	6.851662e+02
1.740000e-06	7.857407e-06	1.032545e-08	5.623998e+01	6.843221e+02
1.750000e-06	7.831376e-06	1.033910e-08	5.605367e+01	6.834441e+02
1.760000e-06	7.801718e-06	1.038001e-08	5.584139e+01	6.825293e+02
1.770000e-06	7.768853e-06	1.035499e-08	5.560615e+01	6.815710e+02
1.780000e-06	7.733515e-06	1.035745e-08	5.535321e+01	6.805596e+02
1.790000e-06	7.695829e-06	1.044484e-08	5.508348e+01	6.794832e+02
1.800000e-06	7.656003e-06	1.036611e-08	5.479841e+01	6.783291e+02
1.810000e-06	7.614191e-06	1.024437e-08	5.449914e+01	6.770845e+02
1.820000e-06	7.569838e-06	1.036040e-08	5.418169e+01	6.757369e+02
1.830000e-06	7.522819e-06	1.024590e-08	5.384514e+01	6.742754e+02
1.840000e-06	7.473015e-06	1.028383e-08	5.348867e+01	6.726901e+02
1.850000e-06	7.420141e-06	1.030496e-08	5.311022e+01	6.709728e+02
1.860000e-06	7.364450e-06	1.023916e-08	5.271160e+01	6.691170e+02
1.870000e-06	7.306104e-06	1.027855e-08	5.229399e+01	6.671180e+02
1.880000e-06	7.245152e-06	1.010253e-08	5.185772e+01	6.649725e+02
1.890000e-06	7.181510e-06	1.013209e-08	5.140220e+01	6.626795e+02
1.900000e-06	7.115079e-06	1.009138e-08	5.092671e+01	6.602395e+02
1.910000e-06	7.045912e-06	9.997375e-09	5.043165e+01	6.576552e+02
1.920000e-06	6.973935e-06	1.002088e-08	4.991647e+01	6.549312e+02
1.930000e-06	6.899252e-06	9.958484e-09	4.938191e+01	6.520737e+02
1.940000e-06	6.821801e-06	9.944255e-09	4.882756e+01	6.490897e+02
1.950000e-06	6.741631e-06	9.813635e-09	4.825373e+01	6.459870e+02
1.960000e-06	6.659052e-06	9.801767e-09	4.766267e+01	6.427728e+02
1.970000e-06	6.574043e-06	9.779550e-09	4.705421e+01	6.394526e+02
1.980000e-06	6.486595e-06	9.687161e-09	4.642830e+01	6.360297e+02
1.990000e-06	6.396820e-06	9.674096e-09	4.578572e+01	6.325042e+02
2.000000e-06	6.304810e-06	9.615770e-09	4.512716e+01	6.288728e+02
2.010000e-06	6.210554e-06	9.558275e-09	4.445251e+01	6.251285e+02
2.020000e-06	6.114059e-06	9.448741e-09	4.376184e+01	6.212612e+02
2.030000e-06	6.015335e-06	9.413695e-09	4.305522e+01	6.172589e+02
2.040000e-06	5.914467e-06	9.366810e-09	4.233325e+01	6.131087e+02
2.050000e-06	5.811489e-06	9.300474e-09	4.159617e+01	6.087982e+02
2.060000e-06	5.706472e-06	9.227989e-09	4.084450e+01	6.043170e+02
2.070000e-06	5.599572e-06	9.160458e-09	4.007936e+01	5.996578e+02
2.080000e-06	5.490724e-06	9.085175e-09	3.930027e+01	5.948173e+02
2.090000e-06	5.379859e-06	8.976580e-09	3.850675e+01	5.897957e+02
2.100000e-06	5.266979e-06	8.904721e-09	3.769880e+01	5.845970e+02
2.110000e-06	5.152110e-06	8.828613e-09	3.687661e+01	5.792269e+02
2.120000e-06	5.035259e-06	8.753338e-09	3.604025e+01	5.736920e+02
2.130000e-06	4.916441e-06	8.663976e-09	3.518979e+01	5.679977e+02
2.140000e-06	4.795752e-06	8.588859e-09	3.432595e+01	5.621464e+02
2.150000e-06	4.673370e-06	8.493981e-09	3.345000e+01	5.561364e+02
2.160000e-06	4.549307e-06	8.389312e-09	3.256201e+01	5.499609e+02
2.170000e-06	4.423611e-06	8.285638e-09	3.166233e+01	5.436078e+02
2.180000e-06	4.296285e-06	8.191016e-09	3.075098e+01	5.370611e+02
2.190000e-06	4.167304e-06	8.094553e-09	2.982779e+01	5.303018e+02
2.200000e-06	4.036821e-06	7.991666e-09	2.889385e+01	5.233100e+02
2.210000e-06	3.904804e-06	7.883276e-09	2.794893e+01	5.160671e+02
2.220000e-06	3.771388e-06	7.761859e-09	2.699399e+01	5.085577e+02
2.230000e-06	3.636613e-06	7.644035e-09	2.602933e+01	5.007714e+02
2.240000e-06	3.500423e-06	7.525787e-09	2.505454e+01	4.927029e+02
2.250000e-06	3.362875e-06	7.406775e-09	2.407003e+01	4.843523e+02
2.260000e-06	3.223975e-06	7.273689e-09	2.307585e+01	4.757238e+02
2.270000e-06	3.083854e-06	7.136417e-09	2.207292e+01	4.668233e+02
2.280000e-06	2.942564e-06	6.991008e-09	2.106162e+01	4.576562e+02
2.290000e-06	2.800136e-06	6.842160e-09	2.004219e+01	4.482245e+02
2.300000e-06	2.656675e-06	6.693810e-09	1.901535e+01	4.385244e+02
2.310000e-06	2.512228e-06	6.547379e-09	1.798146e+01	4.285447e+02
2.320000e-06	2.366950e-06	6.396800e-09	1.694163e+01	4.182660e+02
2.330000e-06	2.220978e-06	6.235768e-09	1.589682e+01	4.076616e+02
2.340000e-06	2.074201e-06	6.069662e-09	1.484625e+01	3.966989e+02
2.350000e-06	1.926561e-06	5.896909e-09	1.378951e+01	3.853428e+02
2.360000e-06	1.778234e-06	5.711704e-09	1.272784e+01	3.735585e+02
2.370000e-06	1.629401e-06	5.515809e-09	1.166256e+01	3.613155e+02
2.380000e-06	1.480119e-06	5.317824e-09	1.059406e+01	3.485898e+02
2.390000e-06	1.330409e-06	5.121866e-09	9.522500e+00	3.353664e+02
2.400000e-06	1.180255e-06	4.919576e-09	8.447762e+00	3.216389e+02
2.410000e-06	1.029681e-06	4.705094e-09	7.370022e+00	3.074079e+02
2.420000e-06	8.787805e-07	4.480748e-09	6.289937e+00	2.926782e+02
2.430000e-06	7.275992e-07	4.247488e-09	5.207846e+00	2.774532e+02
2.440000e-06	5.761604e-07	4.008449e-09	4.123911e+00	2.617303e+02
2.450000e-06	4.244731e-07	3.763266e-09	3.038198e+00	2.454947e+02
2.460000e-06	2.725741e-07	3.507977e-09	1.950970e+00	2.287152e+02
2.470000e-06	1.205603e-07	3.237571e-09	8.629194e-01	2.113415e+02
2.480000e-06	-3.151640e-08	2.955200e-09	-2.255810e-01	1.933040e+02
2.490000e-06	-1.836380e-07	2.666353e-09	-1.314403e+00	1.745163e+02
2.500000e-06	-3.356841e-07	2.366390e-09	-2.402684e+00	1.548818e+02
2.510000e-06	-4.875480e-07	2.051573e-09	-3.489661e+00	1.343022e+02
2.520000e-06	-6.392209e-07	1.723012e-09	-4.575272e+00	1.126880e+02
2.530000e-06	-7.907096e-07	1.379833e-09	-5.659564e+00	8.997152e+01
2.540000e-06	-9.419321e-07	1.020017e-09	-6.741950e+00	6.611774e+01
2.550000e-06	-1.092797e-06	6.448898e-10	-7.821777e+00	4.113526e+01
2.560000e-06	-1.243313e-06	2.542675e-10	-8.899104e+00	1.508360e+01
2.570000e-06	-1.393409e-06	-1.556458e-10	-9.973432e+00	-1.192307e+01
2.580000e-06	-1.542966e-06	-5.828834e-10	-1.104389e+01	-3.971676e+01
2.590000e-06	-1.691984e-06	-1.020151e-09	-1.211050e+01	-6.808117e+01
2.600000e-06	-1.840529e-06	-1.461852e-09	-1.317372e+01	-9.676165e+01
2.610000e-06	-1.988413e-06	-1.905750e-09	-1.423221e+01	-1.254787e+02
2.620000e-06	-2.135372e-06	-2.348184e-09	-1.528409e+01	-1.539441e+02
2.630000e-06	-2.281417e-06	-2.780732e-09	-1.632941e+01	-1.818773e+02
2.640000e-06	-2.426670e-06	-3.195922e-09	-1.736907e+01	-2.090223e+02
2.650000e-06	-2.571079e-06	-3.591644e-09	-1.840269e+01	-2.351612e+02
2.660000e-06	-2.714471e-06	-3.968280e-09	-1.942903e+01	-2.601249e+02
2.670000e-06	-2.856728e-06	-4.326209e-09	-2.044725e+01	-2.837997e+02
2.680000e-06	-2.997886e-06	-4.664663e-09	-2.145760e+01	-3.061284e+02
2.690000e-06	-3.137950e-06	-4.982938e-09	-2.246012e+01	-3.271073e+02
2.700000e-06	-3.276656e-06	-5.282451e-09	-2.345291e+01	-3.467794e+02
2.710000e-06	-3.414046e-06	-5.565454e-09	-2.443629e+01	-3.652235e+02
2.720000e-06	-3.550206e-06	-5.832231e-09	-2.541086e+01	-3.825429e+02
2.730000e-06	-3.685005e-06	-6.084814e-09	-2.637570e+01	-3.988522e+02
2.740000e-06	-3.818497e-06	-6.325333e-09	-2.733118e+01	-4.142663e+02
2.750000e-06	-3.950650e-06	-6.553575e-09	-2.827707e+01	-4.288900e+02
2.760000e-06	-4.081334e-06	-6.770185e-09	-2.921246e+01	-4.428118e+02
2.770000e-06	-4.210622e-06	-6.976163e-09	-3.013784e+01	-4.560995e+02
2.780000e-06	-4.338563e-06	-7.171534e-09	-3.105359e+01	-4.688003e+02
2.790000e-06	-4.465019e-06	-7.355968e-09	-3.195871e+01	-4.809421e+02
2.800000e-06	-4.589993e-06	-7.528285e-09	-3.285322e+01	-4.925385e+02
2.810000e-06	-4.713325e-06	-7.691101e-09	-3.373598e+01	-5.035937e+02
2.820000e-06	-4.834879e-06	-7.847882e-09	-3.460601e+01	-5.141086e+02
2.830000e-06	-4.954680e-06	-7.999370e-09	-3.546349e+01	-5.240858e+02
2.840000e-06	-5.072556e-06	-8.145511e-09	-3.630720e+01	-5.335336e+02
2.850000e-06	-5.188380e-06	-8.284747e-09	-3.713622e+01	-5.424682e+02
2.860000e-06	-5.302045e-06	-8.415950e-09	-3.794979e+01	-5.509143e+02
2.870000e-06	-5.413570e-06	-8.537492e-09	-3.874803e+01	-5.589042e+02
2.880000e-06	-5.523068e-06	-8.651197e-09	-3.953177e+01	-5.664750e+02
2.890000e-06	-5.630639e-06	-8.761093e-09	-4.030172e+01	-5.736660e+02
2.900000e-06	-5.736364e-06	-8.866508e-09	-4.105846e+01	-5.805150e+02
2.910000e-06	-5.840028e-06	-8.966562e-09	-4.180044e+01	-5.870554e+02
2.920000e-06	-5.941465e-06	-9.061956e-09	-4.252648e+01	-5.933147e+02
2.930000e-06	-6.040711e-06	-9.153102e-09	-4.323684e+01	-5.993129e+02
2.940000e-06	-6.137822e-06	-9.240794e-09	-4.393192e+01	-6.050628e+02
