# Temperatura_=_50.93
# Concentracion g/m^3_=_10000.0
# C_Vs_to_Am_M_A/Vsm_=_65563218390.804596
# pendiente_HvsI_1/m_=_3716.3
# ordenada_HvsI_A/m_=_1297.0
# frecuencia_Hz_=_302621.9024069155

Tiempo_(s)	Campo_(V.s)	Magnetizacion_(V.s)	Campo_(kA/m)	Magnetizacion_(A/m)
0.000000e+00	-7.901361e-06	-1.059255e-08	-5.683270e+01	-6.943814e+02
1.000000e-08	-7.898880e-06	-1.059726e-08	-5.681486e+01	-6.940895e+02
2.000000e-08	-7.893695e-06	-1.059066e-08	-5.677756e+01	-6.936856e+02
3.000000e-08	-7.886051e-06	-1.058112e-08	-5.672259e+01	-6.931828e+02
4.000000e-08	-7.875670e-06	-1.057408e-08	-5.664792e+01	-6.925950e+02
5.000000e-08	-7.862328e-06	-1.056576e-08	-5.655195e+01	-6.919353e+02
6.000000e-08	-7.846056e-06	-1.055344e-08	-5.643491e+01	-6.912143e+02
7.000000e-08	-7.827259e-06	-1.053769e-08	-5.629971e+01	-6.904392e+02
8.000000e-08	-7.806259e-06	-1.051546e-08	-5.614866e+01	-6.896130e+02
9.000000e-08	-7.782575e-06	-1.057841e-08	-5.597831e+01	-6.887353e+02
1.000000e-07	-7.755691e-06	-1.060155e-08	-5.578494e+01	-6.878020e+02
1.100000e-07	-7.725727e-06	-1.052193e-08	-5.556941e+01	-6.868070e+02
1.200000e-07	-7.692948e-06	-1.047730e-08	-5.533364e+01	-6.857426e+02
1.300000e-07	-7.657470e-06	-1.046354e-08	-5.507845e+01	-6.846012e+02
1.400000e-07	-7.619585e-06	-1.042881e-08	-5.480596e+01	-6.833754e+02
1.500000e-07	-7.579617e-06	-1.034022e-08	-5.451848e+01	-6.820592e+02
1.600000e-07	-7.537427e-06	-1.036666e-08	-5.421501e+01	-6.806475e+02
1.700000e-07	-7.492612e-06	-1.040477e-08	-5.389267e+01	-6.791361e+02
1.800000e-07	-7.445147e-06	-1.026901e-08	-5.355126e+01	-6.775211e+02
1.900000e-07	-7.394795e-06	-1.031797e-08	-5.318909e+01	-6.757984e+02
2.000000e-07	-7.341407e-06	-1.031509e-08	-5.280508e+01	-6.739631e+02
2.100000e-07	-7.285247e-06	-1.021195e-08	-5.240113e+01	-6.720096e+02
2.200000e-07	-7.226370e-06	-1.021701e-08	-5.197765e+01	-6.699310e+02
2.300000e-07	-7.164897e-06	-1.016758e-08	-5.153549e+01	-6.677202e+02
2.400000e-07	-7.100839e-06	-1.016165e-08	-5.107474e+01	-6.653703e+02
2.500000e-07	-7.034026e-06	-1.008328e-08	-5.059416e+01	-6.628757e+02
2.600000e-07	-6.964537e-06	-1.005098e-08	-5.009434e+01	-6.602328e+02
2.700000e-07	-6.892372e-06	-1.002659e-08	-4.957527e+01	-6.574411e+02
2.800000e-07	-6.817481e-06	-9.963834e-09	-4.903660e+01	-6.545030e+02
2.900000e-07	-6.739858e-06	-9.912413e-09	-4.847828e+01	-6.514242e+02
3.000000e-07	-6.659469e-06	-9.865522e-09	-4.790006e+01	-6.482127e+02
3.100000e-07	-6.576638e-06	-9.860193e-09	-4.730427e+01	-6.448778e+02
3.200000e-07	-6.491624e-06	-9.776013e-09	-4.669279e+01	-6.414286e+02
3.300000e-07	-6.404338e-06	-9.707417e-09	-4.606496e+01	-6.378724e+02
3.400000e-07	-6.314703e-06	-9.676496e-09	-4.542023e+01	-6.342131e+02
3.500000e-07	-6.222751e-06	-9.617950e-09	-4.475884e+01	-6.304507e+02
3.600000e-07	-6.128609e-06	-9.547068e-09	-4.408170e+01	-6.265802e+02
3.700000e-07	-6.032248e-06	-9.487462e-09	-4.338860e+01	-6.225920e+02
3.800000e-07	-5.933619e-06	-9.444063e-09	-4.267918e+01	-6.184732e+02
3.900000e-07	-5.832855e-06	-9.361558e-09	-4.195441e+01	-6.142085e+02
4.000000e-07	-5.730049e-06	-9.279768e-09	-4.121495e+01	-6.097825e+02
4.100000e-07	-5.625234e-06	-9.214914e-09	-4.046104e+01	-6.051815e+02
4.200000e-07	-5.518409e-06	-9.153126e-09	-3.969267e+01	-6.003952e+02
4.300000e-07	-5.409602e-06	-9.073879e-09	-3.891005e+01	-5.954177e+02
4.400000e-07	-5.298910e-06	-8.993313e-09	-3.811386e+01	-5.902483e+02
4.500000e-07	-5.186264e-06	-8.926568e-09	-3.730363e+01	-5.848908e+02
4.600000e-07	-5.071537e-06	-8.844604e-09	-3.647842e+01	-5.793523e+02
4.700000e-07	-4.954811e-06	-8.746514e-09	-3.563884e+01	-5.736416e+02
4.800000e-07	-4.836316e-06	-8.652783e-09	-3.478653e+01	-5.677669e+02
4.900000e-07	-4.716048e-06	-8.566240e-09	-3.392147e+01	-5.617335e+02
5.000000e-07	-4.594040e-06	-8.470820e-09	-3.304389e+01	-5.555421e+02
5.100000e-07	-4.470359e-06	-8.372155e-09	-3.215428e+01	-5.491876e+02
5.200000e-07	-4.345058e-06	-8.272111e-09	-3.125302e+01	-5.426590e+02
5.300000e-07	-4.218191e-06	-8.169734e-09	-3.034050e+01	-5.359397e+02
5.400000e-07	-4.089721e-06	-8.057761e-09	-2.941644e+01	-5.290096e+02
5.500000e-07	-3.959825e-06	-7.945379e-09	-2.848213e+01	-5.218469e+02
5.600000e-07	-3.828353e-06	-7.833248e-09	-2.753648e+01	-5.144308e+02
5.700000e-07	-3.695282e-06	-7.716952e-09	-2.657933e+01	-5.067439e+02
5.800000e-07	-3.560898e-06	-7.593788e-09	-2.561273e+01	-4.987740e+02
5.900000e-07	-3.425162e-06	-7.467067e-09	-2.463642e+01	-4.905147e+02
6.000000e-07	-3.288055e-06	-7.336427e-09	-2.365024e+01	-4.819658e+02
6.100000e-07	-3.149769e-06	-7.200765e-09	-2.265558e+01	-4.731318e+02
6.200000e-07	-3.010224e-06	-7.062938e-09	-2.165186e+01	-4.640196e+02
6.300000e-07	-2.869254e-06	-6.920382e-09	-2.063790e+01	-4.546357e+02
6.400000e-07	-2.727043e-06	-6.774457e-09	-1.961501e+01	-4.449831e+02
6.500000e-07	-2.583806e-06	-6.622173e-09	-1.858473e+01	-4.350589e+02
6.600000e-07	-2.439697e-06	-6.462938e-09	-1.754819e+01	-4.248520e+02
6.700000e-07	-2.294733e-06	-6.297366e-09	-1.650550e+01	-4.143429e+02
6.800000e-07	-2.148882e-06	-6.130179e-09	-1.545642e+01	-4.035039e+02
6.900000e-07	-2.002328e-06	-5.957865e-09	-1.440229e+01	-3.923016e+02
7.000000e-07	-1.855230e-06	-5.779794e-09	-1.334425e+01	-3.806997e+02
7.100000e-07	-1.707504e-06	-5.595675e-09	-1.228169e+01	-3.686626e+02
7.200000e-07	-1.559122e-06	-5.407169e-09	-1.121441e+01	-3.561598e+02
7.300000e-07	-1.410271e-06	-5.212024e-09	-1.014376e+01	-3.431680e+02
7.400000e-07	-1.261057e-06	-5.004497e-09	-9.070496e+00	-3.296735e+02
7.500000e-07	-1.111506e-06	-4.791006e-09	-7.994814e+00	-3.156719e+02
7.600000e-07	-9.616183e-07	-4.572849e-09	-6.916703e+00	-3.011661e+02
7.700000e-07	-8.113819e-07	-4.349218e-09	-5.836087e+00	-2.861628e+02
7.800000e-07	-6.608799e-07	-4.115865e-09	-4.753560e+00	-2.706667e+02
7.900000e-07	-5.101419e-07	-3.874482e-09	-3.669335e+00	-2.546752e+02
8.000000e-07	-3.591695e-07	-3.625015e-09	-2.583425e+00	-2.381721e+02
8.100000e-07	-2.080338e-07	-3.362897e-09	-1.496340e+00	-2.211232e+02
8.200000e-07	-5.677064e-08	-3.087457e-09	-4.083384e-01	-2.034738e+02
8.300000e-07	9.458190e-08	-2.803648e-09	6.803062e-01	-1.851492e+02
8.400000e-07	2.459168e-07	-2.511458e-09	1.768824e+00	-1.660578e+02
8.500000e-07	3.971278e-07	-2.203567e-09	2.856451e+00	-1.460986e+02
8.600000e-07	5.481935e-07	-1.881361e-09	3.943032e+00	-1.251707e+02
8.700000e-07	6.991298e-07	-1.547882e-09	5.028683e+00	-1.031851e+02
8.800000e-07	8.498495e-07	-1.199629e-09	6.112775e+00	-8.007741e+01
8.900000e-07	1.000305e-06	-8.319099e-10	7.194968e+00	-5.582027e+01
9.000000e-07	1.150477e-06	-4.479140e-10	8.275121e+00	-3.043316e+01
9.100000e-07	1.300275e-06	-5.149987e-11	9.352585e+00	-3.989553e+00
9.200000e-07	1.449625e-06	3.604858e-10	1.042682e+01	2.338046e+01
9.300000e-07	1.598492e-06	7.905179e-10	1.149759e+01	5.149239e+01
9.400000e-07	1.746777e-06	1.232322e-09	1.256417e+01	8.011445e+01
9.500000e-07	1.894342e-06	1.678010e-09	1.362557e+01	1.089790e+02
9.600000e-07	2.041194e-06	2.123246e-09	1.468184e+01	1.377977e+02
9.700000e-07	2.187399e-06	2.560876e-09	1.573347e+01	1.662782e+02
9.800000e-07	2.332819e-06	2.985779e-09	1.677944e+01	1.941417e+02
9.900000e-07	2.477299e-06	3.394413e-09	1.781865e+01	2.211393e+02
1.000000e-06	2.620826e-06	3.785170e-09	1.885101e+01	2.470653e+02
1.010000e-06	2.763393e-06	4.154084e-09	1.987646e+01	2.717667e+02
1.020000e-06	2.904888e-06	4.503084e-09	2.089420e+01	2.951478e+02
1.030000e-06	3.045114e-06	4.834084e-09	2.190282e+01	3.171704e+02
1.040000e-06	3.184034e-06	5.147408e-09	2.290203e+01	3.378487e+02
1.050000e-06	3.321728e-06	5.442935e-09	2.389244e+01	3.572405e+02
1.060000e-06	3.458192e-06	5.720546e-09	2.487400e+01	3.754364e+02
1.070000e-06	3.593300e-06	5.983136e-09	2.584580e+01	3.925461e+02
1.080000e-06	3.727081e-06	6.231688e-09	2.680805e+01	4.086866e+02
1.090000e-06	3.859561e-06	6.467677e-09	2.776095e+01	4.239706e+02
1.100000e-06	3.990596e-06	6.689929e-09	2.870346e+01	4.384977e+02
1.110000e-06	4.120261e-06	6.899252e-09	2.963610e+01	4.523488e+02
1.120000e-06	4.248518e-06	7.099108e-09	3.055863e+01	4.655835e+02
1.130000e-06	4.375230e-06	7.289975e-09	3.147004e+01	4.782406e+02
1.140000e-06	4.500488e-06	7.472368e-09	3.237099e+01	4.903418e+02
1.150000e-06	4.624210e-06	7.647048e-09	3.326090e+01	5.018961e+02
1.160000e-06	4.746276e-06	7.811342e-09	3.413889e+01	5.129061e+02
1.170000e-06	4.866650e-06	7.967158e-09	3.500471e+01	5.233730e+02
1.180000e-06	4.985258e-06	8.116337e-09	3.585784e+01	5.333020e+02
1.190000e-06	5.102022e-06	8.261666e-09	3.669769e+01	5.427048e+02
1.200000e-06	5.216838e-06	8.400665e-09	3.752354e+01	5.516016e+02
1.210000e-06	5.329660e-06	8.530116e-09	3.833504e+01	5.600206e+02
1.220000e-06	5.440475e-06	8.650754e-09	3.913210e+01	5.679960e+02
1.230000e-06	5.549349e-06	8.768175e-09	3.991522e+01	5.755654e+02
1.240000e-06	5.656300e-06	8.883674e-09	4.068449e+01	5.827667e+02
1.250000e-06	5.761248e-06	8.991417e-09	4.143935e+01	5.896346e+02
1.260000e-06	5.864089e-06	9.090614e-09	4.217907e+01	5.961988e+02
1.270000e-06	5.964760e-06	9.184316e-09	4.290317e+01	6.024818e+02
1.280000e-06	6.063147e-06	9.273661e-09	4.361085e+01	6.084995e+02
1.290000e-06	6.159204e-06	9.357824e-09	4.430176e+01	6.142615e+02
1.300000e-06	6.253071e-06	9.438021e-09	4.497693e+01	6.197728e+02
1.310000e-06	6.344728e-06	9.516390e-09	4.563620e+01	6.250361e+02
1.320000e-06	6.434103e-06	9.592116e-09	4.627905e+01	6.300539e+02
1.330000e-06	6.521148e-06	9.663252e-09	4.690515e+01	6.348303e+02
1.340000e-06	6.605867e-06	9.731885e-09	4.751451e+01	6.393724e+02
1.350000e-06	6.688268e-06	9.800105e-09	4.810720e+01	6.436902e+02
1.360000e-06	6.768272e-06	9.865666e-09	4.868265e+01	6.477967e+02
1.370000e-06	6.845783e-06	9.926701e-09	4.924017e+01	6.517061e+02
1.380000e-06	6.920680e-06	9.984184e-09	4.977889e+01	6.554324e+02
1.390000e-06	6.992963e-06	1.003778e-08	5.029880e+01	6.589875e+02
1.400000e-06	7.062753e-06	1.008765e-08	5.080079e+01	6.623799e+02
1.410000e-06	7.130037e-06	1.013499e-08	5.128475e+01	6.656135e+02
1.420000e-06	7.194699e-06	1.018093e-08	5.174985e+01	6.686873e+02
1.430000e-06	7.256869e-06	1.022665e-08	5.219702e+01	6.715961e+02
1.440000e-06	7.316636e-06	1.026994e-08	5.262691e+01	6.743318e+02
1.450000e-06	7.373830e-06	1.030755e-08	5.303830e+01	6.768853e+02
1.460000e-06	7.428348e-06	1.034097e-08	5.343043e+01	6.792483e+02
1.470000e-06	7.480006e-06	1.037344e-08	5.380199e+01	6.814156e+02
1.480000e-06	7.528647e-06	1.040451e-08	5.415186e+01	6.833866e+02
1.490000e-06	7.574509e-06	1.043258e-08	5.448173e+01	6.851658e+02
1.500000e-06	7.617707e-06	1.045665e-08	5.479245e+01	6.867633e+02
1.510000e-06	7.658085e-06	1.047771e-08	5.508287e+01	6.881939e+02
1.520000e-06	7.695814e-06	1.049775e-08	5.535425e+01	6.894751e+02
1.530000e-06	7.730951e-06	1.051612e-08	5.560699e+01	6.906258e+02
1.540000e-06	7.763247e-06	1.053326e-08	5.583928e+01	6.916635e+02
1.550000e-06	7.792780e-06	1.054878e-08	5.605171e+01	6.926027e+02
1.560000e-06	7.819565e-06	1.056356e-08	5.624436e+01	6.934532e+02
1.570000e-06	7.843411e-06	1.057665e-08	5.641588e+01	6.942191e+02
1.580000e-06	7.864489e-06	1.058680e-08	5.656749e+01	6.948993e+02
1.590000e-06	7.882854e-06	1.059577e-08	5.669959e+01	6.954878e+02
1.600000e-06	7.898253e-06	1.060324e-08	5.681035e+01	6.959753e+02
1.610000e-06	7.910579e-06	1.061013e-08	5.689901e+01	6.963513e+02
1.620000e-06	7.919834e-06	1.061427e-08	5.696558e+01	6.966058e+02
1.630000e-06	7.926150e-06	1.061626e-08	5.701101e+01	6.967315e+02
1.640000e-06	7.929679e-06	1.061804e-08	5.703639e+01	6.967249e+02
1.650000e-06	7.930389e-06	1.062080e-08	5.704150e+01	6.965873e+02
1.660000e-06	7.928372e-06	1.061268e-08	5.702699e+01	6.963247e+02
1.670000e-06	7.923785e-06	1.060465e-08	5.699400e+01	6.959470e+02
1.680000e-06	7.916547e-06	1.059890e-08	5.694194e+01	6.954669e+02
1.690000e-06	7.906660e-06	1.059229e-08	5.687082e+01	6.948985e+02
1.700000e-06	7.893997e-06	1.058604e-08	5.677974e+01	6.942551e+02
1.710000e-06	7.878558e-06	1.058421e-08	5.666869e+01	6.935480e+02
1.720000e-06	7.860732e-06	1.058553e-08	5.654047e+01	6.927853e+02
1.730000e-06	7.840709e-06	1.054543e-08	5.639645e+01	6.919712e+02
1.740000e-06	7.818023e-06	1.041762e-08	5.623327e+01	6.911060e+02
1.750000e-06	7.791977e-06	1.043316e-08	5.604593e+01	6.901865e+02
1.760000e-06	7.762334e-06	1.048049e-08	5.583272e+01	6.892070e+02
1.770000e-06	7.729560e-06	1.044910e-08	5.559698e+01	6.881601e+02
1.780000e-06	7.694419e-06	1.044682e-08	5.534422e+01	6.870380e+02
1.790000e-06	7.656926e-06	1.054136e-08	5.507454e+01	6.858334e+02
1.800000e-06	7.617243e-06	1.045515e-08	5.478911e+01	6.845397e+02
1.810000e-06	7.575564e-06	1.034183e-08	5.448932e+01	6.831517e+02
1.820000e-06	7.531299e-06	1.046872e-08	5.417094e+01	6.816649e+02
1.830000e-06	7.484347e-06	1.033396e-08	5.383322e+01	6.800755e+02
1.840000e-06	7.434718e-06	1.037010e-08	5.347624e+01	6.783796e+02
1.850000e-06	7.382096e-06	1.034950e-08	5.309775e+01	6.765724e+02
1.860000e-06	7.326596e-06	1.026032e-08	5.269855e+01	6.746484e+02
1.870000e-06	7.268432e-06	1.032744e-08	5.228019e+01	6.726011e+02
1.880000e-06	7.207720e-06	1.016713e-08	5.184350e+01	6.704234e+02
1.890000e-06	7.144279e-06	1.023225e-08	5.138719e+01	6.681083e+02
1.900000e-06	7.078049e-06	1.019579e-08	5.091081e+01	6.656497e+02
1.910000e-06	7.009081e-06	1.008451e-08	5.041473e+01	6.630435e+02
1.920000e-06	6.937303e-06	1.009715e-08	4.989846e+01	6.602882e+02
1.930000e-06	6.862940e-06	1.001763e-08	4.936358e+01	6.573857e+02
1.940000e-06	6.785834e-06	1.001894e-08	4.880897e+01	6.543408e+02
1.950000e-06	6.705965e-06	9.893578e-09	4.823449e+01	6.511610e+02
1.960000e-06	6.623685e-06	9.888065e-09	4.764267e+01	6.478555e+02
1.970000e-06	6.538979e-06	9.861337e-09	4.703340e+01	6.444334e+02
1.980000e-06	6.451782e-06	9.758678e-09	4.640621e+01	6.409028e+02
1.990000e-06	6.362268e-06	9.746591e-09	4.576236e+01	6.372685e+02
2.000000e-06	6.270646e-06	9.678732e-09	4.510334e+01	6.335316e+02
2.010000e-06	6.176793e-06	9.630811e-09	4.442828e+01	6.296882e+02
2.020000e-06	6.080628e-06	9.516099e-09	4.373659e+01	6.257299e+02
2.030000e-06	5.982309e-06	9.477992e-09	4.302940e+01	6.216445e+02
2.040000e-06	5.881896e-06	9.430603e-09	4.230715e+01	6.174172e+02
2.050000e-06	5.779317e-06	9.362957e-09	4.156932e+01	6.130323e+02
2.060000e-06	5.674640e-06	9.286315e-09	4.081641e+01	6.084756e+02
2.070000e-06	5.568145e-06	9.210212e-09	4.005041e+01	6.037357e+02
2.080000e-06	5.459747e-06	9.140682e-09	3.927073e+01	5.988057e+02
2.090000e-06	5.349357e-06	9.035616e-09	3.847671e+01	5.936835e+02
2.100000e-06	5.237060e-06	8.972085e-09	3.766899e+01	5.883718e+02
2.110000e-06	5.122785e-06	8.897365e-09	3.684703e+01	5.828771e+02
2.120000e-06	5.006486e-06	8.818098e-09	3.601053e+01	5.772081e+02
2.130000e-06	4.888299e-06	8.713401e-09	3.516043e+01	5.713731e+02
2.140000e-06	4.768240e-06	8.628712e-09	3.429687e+01	5.653785e+02
2.150000e-06	4.646436e-06	8.538136e-09	3.342077e+01	5.592262e+02
2.160000e-06	4.522915e-06	8.440474e-09	3.253231e+01	5.529127e+02
2.170000e-06	4.397698e-06	8.337170e-09	3.163165e+01	5.464283e+02
2.180000e-06	4.270921e-06	8.238208e-09	3.071977e+01	5.397579e+02
2.190000e-06	4.142459e-06	8.138869e-09	2.979577e+01	5.328819e+02
2.200000e-06	4.012517e-06	8.028887e-09	2.886113e+01	5.257787e+02
2.210000e-06	3.881171e-06	7.917286e-09	2.791638e+01	5.184272e+02
2.220000e-06	3.748298e-06	7.793633e-09	2.696066e+01	5.108088e+02
2.230000e-06	3.614057e-06	7.673288e-09	2.599509e+01	5.029098e+02
2.240000e-06	3.478458e-06	7.550491e-09	2.501977e+01	4.947225e+02
2.250000e-06	3.341488e-06	7.431809e-09	2.403457e+01	4.862452e+02
2.260000e-06	3.203268e-06	7.303578e-09	2.304039e+01	4.774812e+02
2.270000e-06	3.063788e-06	7.170715e-09	2.203713e+01	4.684373e+02
2.280000e-06	2.923082e-06	7.025822e-09	2.102507e+01	4.591202e+02
2.290000e-06	2.781280e-06	6.873423e-09	2.000512e+01	4.495342e+02
2.300000e-06	2.638504e-06	6.719678e-09	1.897817e+01	4.396779e+02
2.310000e-06	2.494727e-06	6.570532e-09	1.794401e+01	4.295426e+02
2.320000e-06	2.349944e-06	6.418566e-09	1.690262e+01	4.191108e+02
2.330000e-06	2.204398e-06	6.253881e-09	1.585574e+01	4.083566e+02
2.340000e-06	2.058228e-06	6.082032e-09	1.480437e+01	3.972479e+02
2.350000e-06	1.911431e-06	5.906296e-09	1.374849e+01	3.857487e+02
2.360000e-06	1.763943e-06	5.723877e-09	1.268764e+01	3.738229e+02
2.370000e-06	1.615816e-06	5.531201e-09	1.162220e+01	3.614384e+02
2.380000e-06	1.467158e-06	5.332823e-09	1.055294e+01	3.485699e+02
2.390000e-06	1.317969e-06	5.131331e-09	9.479855e+00	3.352012e+02
2.400000e-06	1.168352e-06	4.921648e-09	8.403695e+00	3.213258e+02
2.410000e-06	1.018422e-06	4.701954e-09	7.325281e+00	3.069449e+02
2.420000e-06	8.682757e-07	4.476307e-09	6.245311e+00	2.920647e+02
2.430000e-06	7.179459e-07	4.242191e-09	5.164023e+00	2.766911e+02
2.440000e-06	5.674315e-07	3.999781e-09	4.081406e+00	2.608237e+02
2.450000e-06	4.167245e-07	3.750199e-09	2.997405e+00	2.444503e+02
2.460000e-06	2.658250e-07	3.493713e-09	1.912019e+00	2.275415e+02
2.470000e-06	1.147603e-07	3.225280e-09	8.254450e-01	2.100479e+02
2.480000e-06	-3.640325e-08	2.943166e-09	-2.618404e-01	1.918995e+02
2.490000e-06	-1.875373e-07	2.650812e-09	-1.348913e+00	1.730085e+02
2.500000e-06	-3.385816e-07	2.347346e-09	-2.435341e+00	1.532753e+02
2.510000e-06	-4.895177e-07	2.030474e-09	-3.520990e+00	1.325979e+02
2.520000e-06	-6.403104e-07	1.699959e-09	-4.605608e+00	1.108833e+02
2.530000e-06	-7.909069e-07	1.355681e-09	-5.688814e+00	8.805980e+01
2.540000e-06	-9.412920e-07	9.955732e-10	-6.770501e+00	6.408958e+01
2.550000e-06	-1.091470e-06	6.191431e-10	-7.850698e+00	3.897964e+01
2.560000e-06	-1.241347e-06	2.257542e-10	-8.928730e+00	1.278957e+01
2.570000e-06	-1.390823e-06	-1.870651e-10	-1.000388e+01	-1.436471e+01
2.580000e-06	-1.539794e-06	-6.170093e-10	-1.107539e+01	-4.231182e+01
2.590000e-06	-1.688169e-06	-1.056798e-09	-1.214262e+01	-7.083088e+01
2.600000e-06	-1.835936e-06	-1.502625e-09	-1.320547e+01	-9.966194e+01
2.610000e-06	-1.982996e-06	-1.950186e-09	-1.426324e+01	-1.285203e+02
2.620000e-06	-2.129283e-06	-2.394626e-09	-1.531545e+01	-1.571128e+02
2.630000e-06	-2.274813e-06	-2.826824e-09	-1.636222e+01	-1.851560e+02
2.640000e-06	-2.419470e-06	-3.241078e-09	-1.740270e+01	-2.123919e+02
2.650000e-06	-2.563093e-06	-3.638217e-09	-1.843575e+01	-2.386029e+02
2.660000e-06	-2.705659e-06	-4.016531e-09	-1.946119e+01	-2.636223e+02
2.670000e-06	-2.847177e-06	-4.376280e-09	-2.047910e+01	-2.873398e+02
2.680000e-06	-2.987611e-06	-4.717066e-09	-2.148921e+01	-3.097033e+02
2.690000e-06	-3.126832e-06	-5.037867e-09	-2.249060e+01	-3.307143e+02
2.700000e-06	-3.264868e-06	-5.339303e-09	-2.348346e+01	-3.504210e+02
2.710000e-06	-3.401658e-06	-5.623799e-09	-2.446735e+01	-3.689067e+02
2.720000e-06	-3.537011e-06	-5.891812e-09	-2.544092e+01	-3.862776e+02
2.730000e-06	-3.671106e-06	-6.142801e-09	-2.640544e+01	-4.026501e+02
2.740000e-06	-3.804015e-06	-6.379589e-09	-2.736142e+01	-4.181389e+02
2.750000e-06	-3.935504e-06	-6.606657e-09	-2.830719e+01	-4.328475e+02
2.760000e-06	-4.065581e-06	-6.826019e-09	-2.924281e+01	-4.468618e+02
2.770000e-06	-4.194280e-06	-7.035627e-09	-3.016851e+01	-4.602468e+02
2.780000e-06	-4.321516e-06	-7.234866e-09	-3.108369e+01	-4.730462e+02
2.790000e-06	-4.447305e-06	-7.423732e-09	-3.198846e+01	-4.852858e+02
2.800000e-06	-4.571525e-06	-7.598866e-09	-3.288195e+01	-4.969770e+02
2.810000e-06	-4.694056e-06	-7.763010e-09	-3.376328e+01	-5.081236e+02
2.820000e-06	-4.814859e-06	-7.919753e-09	-3.463219e+01	-5.187267e+02
2.830000e-06	-4.933880e-06	-8.068985e-09	-3.548829e+01	-5.287899e+02
2.840000e-06	-5.051028e-06	-8.212488e-09	-3.633090e+01	-5.383233e+02
2.850000e-06	-5.166093e-06	-8.351187e-09	-3.715854e+01	-5.473449e+02
2.860000e-06	-5.279068e-06	-8.483991e-09	-3.797114e+01	-5.558809e+02
2.870000e-06	-5.390067e-06	-8.611101e-09	-3.876953e+01	-5.639644e+02
2.880000e-06	-5.499084e-06	-8.731943e-09	-3.955367e+01	-5.716323e+02
2.890000e-06	-5.606201e-06	-8.846086e-09	-4.032414e+01	-5.789228e+02
2.900000e-06	-5.711394e-06	-8.953769e-09	-4.108077e+01	-5.858717e+02
2.910000e-06	-5.814472e-06	-9.054466e-09	-4.182218e+01	-5.925100e+02
2.920000e-06	-5.915393e-06	-9.149445e-09	-4.254809e+01	-5.988622e+02
2.930000e-06	-6.014193e-06	-9.239306e-09	-4.325873e+01	-6.049457e+02
2.940000e-06	-6.110833e-06	-9.326021e-09	-4.395384e+01	-6.107717e+02
