# Temperatura_=_70.32
# Concentracion g/m^3_=_10000.0
# C_Vs_to_Am_M_A/Vsm_=_65563218390.804596
# pendiente_HvsI_1/m_=_3716.3
# ordenada_HvsI_A/m_=_1297.0
# frecuencia_Hz_=_302620.67172686686

Tiempo_(s)	Campo_(V.s)	Magnetizacion_(V.s)	Campo_(kA/m)	Magnetizacion_(A/m)
0.000000e+00	-7.887599e-06	-1.147588e-08	-5.683183e+01	-7.522423e+02
1.000000e-08	-7.885387e-06	-1.147566e-08	-5.681589e+01	-7.518965e+02
2.000000e-08	-7.880509e-06	-1.146951e-08	-5.678074e+01	-7.514235e+02
3.000000e-08	-7.873128e-06	-1.146247e-08	-5.672756e+01	-7.508373e+02
4.000000e-08	-7.862979e-06	-1.145424e-08	-5.665443e+01	-7.501514e+02
5.000000e-08	-7.849900e-06	-1.144232e-08	-5.656020e+01	-7.493779e+02
6.000000e-08	-7.833886e-06	-1.142804e-08	-5.644482e+01	-7.485256e+02
7.000000e-08	-7.815286e-06	-1.141172e-08	-5.631080e+01	-7.475998e+02
8.000000e-08	-7.794498e-06	-1.139467e-08	-5.616101e+01	-7.466019e+02
9.000000e-08	-7.771131e-06	-1.141937e-08	-5.599265e+01	-7.455300e+02
1.000000e-07	-7.744650e-06	-1.143421e-08	-5.580185e+01	-7.443794e+02
1.100000e-07	-7.715037e-06	-1.139072e-08	-5.558848e+01	-7.431443e+02
1.200000e-07	-7.682618e-06	-1.134334e-08	-5.535489e+01	-7.418181e+02
1.300000e-07	-7.647475e-06	-1.131438e-08	-5.510168e+01	-7.403948e+02
1.400000e-07	-7.609844e-06	-1.128101e-08	-5.483055e+01	-7.388691e+02
1.500000e-07	-7.570102e-06	-1.120425e-08	-5.454420e+01	-7.372367e+02
1.600000e-07	-7.528160e-06	-1.118592e-08	-5.424199e+01	-7.354942e+02
1.700000e-07	-7.483621e-06	-1.121719e-08	-5.392108e+01	-7.336378e+02
1.800000e-07	-7.436354e-06	-1.113520e-08	-5.358051e+01	-7.316634e+02
1.900000e-07	-7.386344e-06	-1.112461e-08	-5.322018e+01	-7.295654e+02
2.000000e-07	-7.333367e-06	-1.112289e-08	-5.283847e+01	-7.273368e+02
2.100000e-07	-7.277508e-06	-1.103532e-08	-5.243599e+01	-7.249691e+02
2.200000e-07	-7.218999e-06	-1.099497e-08	-5.201442e+01	-7.224527e+02
2.300000e-07	-7.157913e-06	-1.095134e-08	-5.157429e+01	-7.197780e+02
2.400000e-07	-7.094257e-06	-1.092708e-08	-5.111563e+01	-7.169367e+02
2.500000e-07	-7.027879e-06	-1.087343e-08	-5.063736e+01	-7.139228e+02
2.600000e-07	-6.958793e-06	-1.082658e-08	-5.013959e+01	-7.107340e+02
2.700000e-07	-6.887036e-06	-1.079067e-08	-4.962256e+01	-7.073719e+02
2.800000e-07	-6.812558e-06	-1.072854e-08	-4.908593e+01	-7.038425e+02
2.900000e-07	-6.735327e-06	-1.066263e-08	-4.852946e+01	-7.001556e+02
3.000000e-07	-6.655360e-06	-1.060634e-08	-4.795328e+01	-6.963234e+02
3.100000e-07	-6.572889e-06	-1.056723e-08	-4.735906e+01	-6.923586e+02
3.200000e-07	-6.488157e-06	-1.049763e-08	-4.674855e+01	-6.882730e+02
3.300000e-07	-6.401179e-06	-1.042687e-08	-4.612185e+01	-6.840750e+02
3.400000e-07	-6.311902e-06	-1.037809e-08	-4.547860e+01	-6.797682e+02
3.500000e-07	-6.220319e-06	-1.030674e-08	-4.481872e+01	-6.753506e+02
3.600000e-07	-6.126476e-06	-1.022215e-08	-4.414256e+01	-6.708143e+02
3.700000e-07	-6.030446e-06	-1.014974e-08	-4.345064e+01	-6.661460e+02
3.800000e-07	-5.932179e-06	-1.008448e-08	-4.274261e+01	-6.613290e+02
3.900000e-07	-5.831735e-06	-1.000578e-08	-4.201889e+01	-6.563452e+02
4.000000e-07	-5.729240e-06	-9.922843e-09	-4.128039e+01	-6.511772e+02
4.100000e-07	-5.624786e-06	-9.846670e-09	-4.052778e+01	-6.458109e+02
4.200000e-07	-5.518375e-06	-9.761248e-09	-3.976107e+01	-6.402370e+02
4.300000e-07	-5.409931e-06	-9.666064e-09	-3.897970e+01	-6.344526e+02
4.400000e-07	-5.299523e-06	-9.577930e-09	-3.818419e+01	-6.284607e+02
4.500000e-07	-5.187214e-06	-9.496246e-09	-3.737498e+01	-6.222692e+02
4.600000e-07	-5.072957e-06	-9.401395e-09	-3.655174e+01	-6.158896e+02
4.700000e-07	-4.956710e-06	-9.295926e-09	-3.571415e+01	-6.093340e+02
4.800000e-07	-4.838534e-06	-9.195679e-09	-3.486267e+01	-6.026125e+02
4.900000e-07	-4.718561e-06	-9.091979e-09	-3.399824e+01	-5.957311e+02
5.000000e-07	-4.596932e-06	-8.978238e-09	-3.312187e+01	-5.886891e+02
5.100000e-07	-4.473686e-06	-8.864377e-09	-3.223386e+01	-5.814788e+02
5.200000e-07	-4.348772e-06	-8.751919e-09	-3.133383e+01	-5.740856e+02
5.300000e-07	-4.222210e-06	-8.633238e-09	-3.042192e+01	-5.664889e+02
5.400000e-07	-4.094048e-06	-8.508689e-09	-2.949848e+01	-5.586652e+02
5.500000e-07	-3.964447e-06	-8.386553e-09	-2.856469e+01	-5.505900e+02
5.600000e-07	-3.833437e-06	-8.261307e-09	-2.762073e+01	-5.422417e+02
5.700000e-07	-3.700888e-06	-8.126453e-09	-2.666568e+01	-5.336037e+02
5.800000e-07	-3.566856e-06	-7.986367e-09	-2.569996e+01	-5.246662e+02
5.900000e-07	-3.431424e-06	-7.846094e-09	-2.472414e+01	-5.154271e+02
6.000000e-07	-3.294658e-06	-7.701567e-09	-2.373871e+01	-5.058908e+02
6.100000e-07	-3.156718e-06	-7.552093e-09	-2.274482e+01	-4.960666e+02
6.200000e-07	-3.017578e-06	-7.400433e-09	-2.174229e+01	-4.859658e+02
6.300000e-07	-2.877063e-06	-7.244290e-09	-2.072985e+01	-4.755977e+02
6.400000e-07	-2.735244e-06	-7.081580e-09	-1.970802e+01	-4.649664e+02
6.500000e-07	-2.592383e-06	-6.914380e-09	-1.867867e+01	-4.540681e+02
6.600000e-07	-2.448632e-06	-6.742872e-09	-1.764292e+01	-4.428892e+02
6.700000e-07	-2.304071e-06	-6.563516e-09	-1.660132e+01	-4.314062e+02
6.800000e-07	-2.158658e-06	-6.378054e-09	-1.555359e+01	-4.195869e+02
6.900000e-07	-2.012389e-06	-6.188897e-09	-1.449969e+01	-4.073935e+02
7.000000e-07	-1.865418e-06	-5.994895e-09	-1.344074e+01	-3.947867e+02
7.100000e-07	-1.717915e-06	-5.795294e-09	-1.237794e+01	-3.817293e+02
7.200000e-07	-1.569943e-06	-5.594044e-09	-1.131178e+01	-3.681910e+02
7.300000e-07	-1.421450e-06	-5.385376e-09	-1.024185e+01	-3.541506e+02
7.400000e-07	-1.272424e-06	-5.162561e-09	-9.168087e+00	-3.395977e+02
7.500000e-07	-1.122975e-06	-4.930364e-09	-8.091272e+00	-3.245315e+02
7.600000e-07	-9.732079e-07	-4.693035e-09	-7.012170e+00	-3.089575e+02
7.700000e-07	-8.231475e-07	-4.451105e-09	-5.930953e+00	-2.928829e+02
7.800000e-07	-6.728546e-07	-4.199775e-09	-4.848061e+00	-2.763099e+02
7.900000e-07	-5.223651e-07	-3.939655e-09	-3.763752e+00	-2.592289e+02
8.000000e-07	-3.716928e-07	-3.673514e-09	-2.678126e+00	-2.416128e+02
8.100000e-07	-2.208830e-07	-3.396203e-09	-1.591509e+00	-2.234123e+02
8.200000e-07	-6.995271e-08	-3.105671e-09	-5.040241e-01	-2.045548e+02
8.300000e-07	8.104387e-08	-2.803596e-09	5.839383e-01	-1.849462e+02
8.400000e-07	2.320204e-07	-2.488749e-09	1.671756e+00	-1.644762e+02
8.500000e-07	3.829508e-07	-2.155456e-09	2.759242e+00	-1.430284e+02
8.600000e-07	5.338306e-07	-1.804746e-09	3.846363e+00	-1.204915e+02
8.700000e-07	6.845720e-07	-1.443636e-09	4.932487e+00	-9.677344e+01
8.800000e-07	8.350774e-07	-1.068658e-09	6.016910e+00	-7.181553e+01
8.900000e-07	9.853320e-07	-6.752211e-10	7.099527e+00	-4.560500e+01
9.000000e-07	1.135323e-06	-2.650717e-10	8.180247e+00	-1.818490e+01
9.100000e-07	1.284917e-06	1.612333e-10	9.258103e+00	1.034022e+01
9.200000e-07	1.434031e-06	6.053107e-10	1.033250e+01	3.980381e+01
9.300000e-07	1.582645e-06	1.068320e-09	1.140329e+01	6.998218e+01
9.400000e-07	1.730683e-06	1.543799e-09	1.246994e+01	1.006047e+02
9.500000e-07	1.878067e-06	2.022767e-09	1.353187e+01	1.313683e+02
9.600000e-07	2.024771e-06	2.497050e-09	1.458891e+01	1.619552e+02
9.700000e-07	2.170820e-06	2.960084e-09	1.564122e+01	1.920520e+02
9.800000e-07	2.316020e-06	3.407827e-09	1.668742e+01	2.213685e+02
9.900000e-07	2.460274e-06	3.834162e-09	1.772680e+01	2.496538e+02
1.000000e-06	2.603608e-06	4.237538e-09	1.875955e+01	2.767098e+02
1.010000e-06	2.745979e-06	4.619883e-09	1.978536e+01	3.023986e+02
1.020000e-06	2.887308e-06	4.983365e-09	2.080367e+01	3.266454e+02
1.030000e-06	3.027359e-06	5.325506e-09	2.181277e+01	3.494361e+02
1.040000e-06	3.166126e-06	5.647330e-09	2.281261e+01	3.708093e+02
1.050000e-06	3.303717e-06	5.953240e-09	2.380398e+01	3.908459e+02
1.060000e-06	3.440013e-06	6.243248e-09	2.478603e+01	4.096558e+02
1.070000e-06	3.574969e-06	6.517433e-09	2.575841e+01	4.273637e+02
1.080000e-06	3.708642e-06	6.775971e-09	2.672155e+01	4.440961e+02
1.090000e-06	3.841022e-06	7.019541e-09	2.767538e+01	4.599707e+02
1.100000e-06	3.971999e-06	7.249141e-09	2.861910e+01	4.750880e+02
1.110000e-06	4.101577e-06	7.466877e-09	2.955273e+01	4.895270e+02
1.120000e-06	4.229775e-06	7.675496e-09	3.047643e+01	5.033440e+02
1.130000e-06	4.356475e-06	7.874514e-09	3.138933e+01	5.165751e+02
1.140000e-06	4.481662e-06	8.065396e-09	3.229133e+01	5.292399e+02
1.150000e-06	4.605289e-06	8.248043e-09	3.318208e+01	5.413477e+02
1.160000e-06	4.727302e-06	8.421250e-09	3.406122e+01	5.529031e+02
1.170000e-06	4.847695e-06	8.586158e-09	3.492867e+01	5.639113e+02
1.180000e-06	4.966335e-06	8.742987e-09	3.578350e+01	5.743827e+02
1.190000e-06	5.083063e-06	8.894382e-09	3.662455e+01	5.843346e+02
1.200000e-06	5.197799e-06	9.039575e-09	3.745125e+01	5.937918e+02
1.210000e-06	5.310565e-06	9.177768e-09	3.826375e+01	6.027854e+02
1.220000e-06	5.421383e-06	9.309717e-09	3.906222e+01	6.113504e+02
1.230000e-06	5.530334e-06	9.439715e-09	3.984723e+01	6.195224e+02
1.240000e-06	5.637356e-06	9.566660e-09	4.061835e+01	6.273346e+02
1.250000e-06	5.742238e-06	9.683923e-09	4.137404e+01	6.348153e+02
1.260000e-06	5.844988e-06	9.791427e-09	4.211439e+01	6.419861e+02
1.270000e-06	5.945677e-06	9.892975e-09	4.283987e+01	6.488619e+02
1.280000e-06	6.044177e-06	9.990322e-09	4.354958e+01	6.554511e+02
1.290000e-06	6.140327e-06	1.008159e-08	4.424236e+01	6.617581e+02
1.300000e-06	6.234187e-06	1.016844e-08	4.491864e+01	6.677853e+02
1.310000e-06	6.325845e-06	1.025253e-08	4.557906e+01	6.735351e+02
1.320000e-06	6.415227e-06	1.033439e-08	4.622307e+01	6.790130e+02
1.330000e-06	6.502315e-06	1.041467e-08	4.685056e+01	6.842282e+02
1.340000e-06	6.587158e-06	1.049305e-08	4.746187e+01	6.891941e+02
1.350000e-06	6.669660e-06	1.056841e-08	4.805632e+01	6.939282e+02
1.360000e-06	6.749677e-06	1.063876e-08	4.863286e+01	6.984499e+02
1.370000e-06	6.827229e-06	1.070460e-08	4.919163e+01	7.027791e+02
1.380000e-06	6.902258e-06	1.076817e-08	4.973224e+01	7.069331e+02
1.390000e-06	6.974650e-06	1.082947e-08	5.025383e+01	7.109250e+02
1.400000e-06	7.044550e-06	1.088680e-08	5.075748e+01	7.147619e+02
1.410000e-06	7.112000e-06	1.094013e-08	5.124348e+01	7.184441e+02
1.420000e-06	7.176873e-06	1.099262e-08	5.171090e+01	7.219658e+02
1.430000e-06	7.239201e-06	1.104491e-08	5.215998e+01	7.253159e+02
1.440000e-06	7.299109e-06	1.109402e-08	5.259163e+01	7.284801e+02
1.450000e-06	7.356483e-06	1.113866e-08	5.300502e+01	7.314442e+02
1.460000e-06	7.411198e-06	1.117911e-08	5.339926e+01	7.341957e+02
1.470000e-06	7.463013e-06	1.121773e-08	5.377260e+01	7.367267e+02
1.480000e-06	7.511763e-06	1.125362e-08	5.412385e+01	7.390356e+02
1.490000e-06	7.557737e-06	1.128577e-08	5.445510e+01	7.411272e+02
1.500000e-06	7.601050e-06	1.131459e-08	5.476718e+01	7.430130e+02
1.510000e-06	7.641589e-06	1.134070e-08	5.505927e+01	7.447095e+02
1.520000e-06	7.679415e-06	1.136413e-08	5.533182e+01	7.462361e+02
1.530000e-06	7.714615e-06	1.138467e-08	5.558544e+01	7.476132e+02
1.540000e-06	7.747039e-06	1.140577e-08	5.581907e+01	7.488591e+02
1.550000e-06	7.776755e-06	1.142629e-08	5.603318e+01	7.499880e+02
1.560000e-06	7.803779e-06	1.144438e-08	5.622789e+01	7.510089e+02
1.570000e-06	7.827861e-06	1.145939e-08	5.640140e+01	7.519246e+02
1.580000e-06	7.849150e-06	1.147051e-08	5.655479e+01	7.527322e+02
1.590000e-06	7.867752e-06	1.147939e-08	5.668883e+01	7.534242e+02
1.600000e-06	7.883419e-06	1.148614e-08	5.680171e+01	7.539906e+02
1.610000e-06	7.895980e-06	1.149130e-08	5.689221e+01	7.544205e+02
1.620000e-06	7.905419e-06	1.149617e-08	5.696023e+01	7.547045e+02
1.630000e-06	7.911947e-06	1.150110e-08	5.700726e+01	7.548368e+02
1.640000e-06	7.915728e-06	1.150375e-08	5.703450e+01	7.548158e+02
1.650000e-06	7.916699e-06	1.150520e-08	5.704150e+01	7.546449e+02
1.660000e-06	7.914968e-06	1.150010e-08	5.702903e+01	7.543321e+02
1.670000e-06	7.910644e-06	1.149339e-08	5.699787e+01	7.538889e+02
1.680000e-06	7.903600e-06	1.148558e-08	5.694712e+01	7.533289e+02
1.690000e-06	7.893921e-06	1.147419e-08	5.687738e+01	7.526660e+02
1.700000e-06	7.881562e-06	1.146370e-08	5.678833e+01	7.519127e+02
1.710000e-06	7.866439e-06	1.145634e-08	5.667937e+01	7.510787e+02
1.720000e-06	7.848884e-06	1.145002e-08	5.655288e+01	7.501703e+02
1.730000e-06	7.829096e-06	1.141627e-08	5.641030e+01	7.491897e+02
1.740000e-06	7.806697e-06	1.133516e-08	5.624891e+01	7.481359e+02
1.750000e-06	7.781054e-06	1.131216e-08	5.606415e+01	7.470048e+02
1.760000e-06	7.751801e-06	1.132608e-08	5.585337e+01	7.457907e+02
1.770000e-06	7.719294e-06	1.131234e-08	5.561915e+01	7.444872e+02
1.780000e-06	7.684325e-06	1.130315e-08	5.536720e+01	7.430879e+02
1.790000e-06	7.647090e-06	1.135213e-08	5.509891e+01	7.415875e+02
1.800000e-06	7.607703e-06	1.130957e-08	5.481512e+01	7.399814e+02
1.810000e-06	7.566276e-06	1.122059e-08	5.451663e+01	7.382660e+02
1.820000e-06	7.522322e-06	1.125655e-08	5.419993e+01	7.364377e+02
1.830000e-06	7.475736e-06	1.118663e-08	5.386427e+01	7.344925e+02
1.840000e-06	7.426475e-06	1.117793e-08	5.350933e+01	7.324253e+02
1.850000e-06	7.374227e-06	1.116818e-08	5.313287e+01	7.302294e+02
1.860000e-06	7.319136e-06	1.110826e-08	5.273593e+01	7.278966e+02
1.870000e-06	7.261349e-06	1.112165e-08	5.231956e+01	7.254175e+02
1.880000e-06	7.200966e-06	1.102533e-08	5.188449e+01	7.227825e+02
1.890000e-06	7.137867e-06	1.099914e-08	5.142985e+01	7.199828e+02
1.900000e-06	7.071923e-06	1.095594e-08	5.095471e+01	7.170117e+02
1.910000e-06	7.003278e-06	1.085631e-08	5.046011e+01	7.138658e+02
1.920000e-06	6.931874e-06	1.083632e-08	4.994563e+01	7.105459e+02
1.930000e-06	6.857809e-06	1.079851e-08	4.941197e+01	7.070568e+02
1.940000e-06	6.781057e-06	1.075934e-08	4.885896e+01	7.034075e+02
1.950000e-06	6.701603e-06	1.066662e-08	4.828648e+01	6.996097e+02
1.960000e-06	6.619700e-06	1.061011e-08	4.769634e+01	6.956761e+02
1.970000e-06	6.535385e-06	1.056360e-08	4.708884e+01	6.916190e+02
1.980000e-06	6.448669e-06	1.047225e-08	4.646403e+01	6.874478e+02
1.990000e-06	6.359563e-06	1.042947e-08	4.582200e+01	6.831675e+02
2.000000e-06	6.268184e-06	1.037476e-08	4.516360e+01	6.787774e+02
2.010000e-06	6.174643e-06	1.029827e-08	4.448962e+01	6.742710e+02
2.020000e-06	6.078854e-06	1.020632e-08	4.379944e+01	6.696364e+02
2.030000e-06	5.980841e-06	1.014051e-08	4.309323e+01	6.648576e+02
2.040000e-06	5.880745e-06	1.007749e-08	4.237202e+01	6.599165e+02
2.050000e-06	5.778594e-06	9.987318e-09	4.163600e+01	6.547953e+02
2.060000e-06	5.674363e-06	9.902209e-09	4.088499e+01	6.494788e+02
2.070000e-06	5.568194e-06	9.828718e-09	4.012002e+01	6.439567e+02
2.080000e-06	5.460144e-06	9.744450e-09	3.934150e+01	6.382241e+02
2.090000e-06	5.350203e-06	9.637958e-09	3.854935e+01	6.322827e+02
2.100000e-06	5.238277e-06	9.545514e-09	3.774290e+01	6.261394e+02
2.110000e-06	5.124303e-06	9.455238e-09	3.692169e+01	6.198049e+02
2.120000e-06	5.008419e-06	9.352724e-09	3.608672e+01	6.132915e+02
2.130000e-06	4.890622e-06	9.251074e-09	3.523797e+01	6.066100e+02
2.140000e-06	4.770875e-06	9.158388e-09	3.437517e+01	5.997676e+02
2.150000e-06	4.649315e-06	9.055838e-09	3.349931e+01	5.927655e+02
2.160000e-06	4.526052e-06	8.936189e-09	3.261117e+01	5.855977e+02
2.170000e-06	4.401138e-06	8.818835e-09	3.171113e+01	5.782511e+02
2.180000e-06	4.274675e-06	8.708109e-09	3.079994e+01	5.707068e+02
2.190000e-06	4.146566e-06	8.593461e-09	2.987689e+01	5.629413e+02
2.200000e-06	4.016930e-06	8.472756e-09	2.894284e+01	5.549305e+02
2.210000e-06	3.885883e-06	8.348355e-09	2.799861e+01	5.466516e+02
2.220000e-06	3.753375e-06	8.214972e-09	2.704386e+01	5.380864e+02
2.230000e-06	3.619489e-06	8.076698e-09	2.607919e+01	5.292236e+02
2.240000e-06	3.484316e-06	7.940052e-09	2.510524e+01	5.200589e+02
2.250000e-06	3.347805e-06	7.802647e-09	2.412165e+01	5.105954e+02
2.260000e-06	3.209952e-06	7.656989e-09	2.312839e+01	5.008415e+02
2.270000e-06	3.070875e-06	7.506292e-09	2.212630e+01	4.908081e+02
2.280000e-06	2.930649e-06	7.352087e-09	2.111595e+01	4.805054e+02
2.290000e-06	2.789310e-06	7.188523e-09	2.009757e+01	4.699392e+02
2.300000e-06	2.646905e-06	7.017516e-09	1.907152e+01	4.591078e+02
2.310000e-06	2.503533e-06	6.846866e-09	1.803849e+01	4.480001e+02
2.320000e-06	2.359192e-06	6.676345e-09	1.699848e+01	4.365951e+02
2.330000e-06	2.213972e-06	6.500071e-09	1.595214e+01	4.248625e+02
2.340000e-06	2.068049e-06	6.317957e-09	1.490073e+01	4.127656e+02
2.350000e-06	1.921479e-06	6.128607e-09	1.384466e+01	4.002650e+02
2.360000e-06	1.774253e-06	5.927241e-09	1.278387e+01	3.873227e+02
2.370000e-06	1.626424e-06	5.715205e-09	1.171873e+01	3.739063e+02
2.380000e-06	1.478050e-06	5.499863e-09	1.064966e+01	3.599921e+02
2.390000e-06	1.329243e-06	5.284122e-09	9.577481e+00	3.455670e+02
2.400000e-06	1.180055e-06	5.062847e-09	8.502549e+00	3.306280e+02
2.410000e-06	1.030467e-06	4.831346e-09	7.424733e+00	3.151795e+02
2.420000e-06	8.805654e-07	4.588959e-09	6.344661e+00	2.992288e+02
2.430000e-06	7.304411e-07	4.335377e-09	5.262984e+00	2.827800e+02
2.440000e-06	5.801301e-07	4.076229e-09	4.179961e+00	2.658270e+02
2.450000e-06	4.296082e-07	3.812564e-09	3.095418e+00	2.483477e+02
2.460000e-06	2.789320e-07	3.539542e-09	2.009765e+00	2.302984e+02
2.470000e-06	1.281519e-07	3.251039e-09	9.233620e-01	2.116125e+02
2.480000e-06	-2.277169e-08	2.948531e-09	-1.640748e-01	1.922008e+02
2.490000e-06	-1.737133e-07	2.636017e-09	-1.251642e+00	1.719563e+02
2.500000e-06	-3.245963e-07	2.309926e-09	-2.338785e+00	1.507631e+02
2.510000e-06	-4.753717e-07	1.967803e-09	-3.425154e+00	1.285073e+02
2.520000e-06	-6.259658e-07	1.609738e-09	-4.510217e+00	1.050908e+02
2.530000e-06	-7.763824e-07	1.238289e-09	-5.594001e+00	8.044533e+01
2.540000e-06	-9.266238e-07	8.525047e-10	-6.676521e+00	5.454550e+01
2.550000e-06	-1.076633e-06	4.492725e-10	-7.757366e+00	2.741970e+01
2.560000e-06	-1.226276e-06	2.406663e-11	-8.835582e+00	-8.431340e-01
2.570000e-06	-1.375497e-06	-4.238652e-10	-9.910749e+00	-3.009172e+01
2.580000e-06	-1.524259e-06	-8.879881e-10	-1.098261e+01	-6.011588e+01
2.590000e-06	-1.672480e-06	-1.360209e-09	-1.205057e+01	-9.065552e+01
2.600000e-06	-1.820003e-06	-1.834691e-09	-1.311351e+01	-1.214141e+02
2.610000e-06	-1.966779e-06	-2.308115e-09	-1.417106e+01	-1.520758e+02
2.620000e-06	-2.112855e-06	-2.775997e-09	-1.522357e+01	-1.823243e+02
2.630000e-06	-2.258161e-06	-3.231265e-09	-1.627053e+01	-2.118619e+02
2.640000e-06	-2.402606e-06	-3.667741e-09	-1.731129e+01	-2.404266e+02
2.650000e-06	-2.546089e-06	-4.082038e-09	-1.834511e+01	-2.678060e+02
2.660000e-06	-2.688524e-06	-4.474181e-09	-1.937139e+01	-2.938468e+02
2.670000e-06	-2.829868e-06	-4.847084e-09	-2.038980e+01	-3.184585e+02
2.680000e-06	-2.970045e-06	-5.199286e-09	-2.139981e+01	-3.416122e+02
2.690000e-06	-3.109058e-06	-5.529585e-09	-2.240143e+01	-3.633343e+02
2.700000e-06	-3.246919e-06	-5.840412e-09	-2.339474e+01	-3.836965e+02
2.710000e-06	-3.383600e-06	-6.135220e-09	-2.437956e+01	-4.028025e+02
2.720000e-06	-3.518952e-06	-6.414911e-09	-2.535480e+01	-4.207746e+02
2.730000e-06	-3.652956e-06	-6.678038e-09	-2.632032e+01	-4.377401e+02
2.740000e-06	-3.785726e-06	-6.926041e-09	-2.727696e+01	-4.538197e+02
2.750000e-06	-3.917108e-06	-7.161489e-09	-2.822359e+01	-4.691187e+02
2.760000e-06	-4.047099e-06	-7.386738e-09	-2.916021e+01	-4.837218e+02
2.770000e-06	-4.175791e-06	-7.603735e-09	-3.008746e+01	-4.976910e+02
2.780000e-06	-4.303016e-06	-7.812368e-09	-3.100414e+01	-5.110669e+02
2.790000e-06	-4.428717e-06	-8.009920e-09	-3.190985e+01	-5.238729e+02
2.800000e-06	-4.552903e-06	-8.193288e-09	-3.280463e+01	-5.361202e+02
2.810000e-06	-4.675445e-06	-8.365000e-09	-3.368757e+01	-5.478139e+02
2.820000e-06	-4.796301e-06	-8.530246e-09	-3.455837e+01	-5.589590e+02
2.830000e-06	-4.915369e-06	-8.690011e-09	-3.541628e+01	-5.695640e+02
2.840000e-06	-5.032481e-06	-8.844835e-09	-3.626010e+01	-5.796445e+02
2.850000e-06	-5.147549e-06	-8.994104e-09	-3.708918e+01	-5.892234e+02
2.860000e-06	-5.260490e-06	-9.135541e-09	-3.790295e+01	-5.983305e+02
2.870000e-06	-5.371391e-06	-9.269123e-09	-3.870202e+01	-6.070000e+02
2.880000e-06	-5.480384e-06	-9.395499e-09	-3.948733e+01	-6.152677e+02
2.890000e-06	-5.587522e-06	-9.516744e-09	-4.025928e+01	-6.231677e+02
2.900000e-06	-5.692751e-06	-9.633752e-09	-4.101748e+01	-6.307297e+02
2.910000e-06	-5.795819e-06	-9.745517e-09	-4.176011e+01	-6.379771e+02
2.920000e-06	-5.896620e-06	-9.851295e-09	-4.248640e+01	-6.449263e+02
2.930000e-06	-5.995329e-06	-9.952258e-09	-4.319762e+01	-6.515874e+02
2.940000e-06	-6.092002e-06	-1.004886e-08	-4.389417e+01	-6.579655e+02
