# Temperatura_=_48.13
# Concentracion g/m^3_=_10000.0
# C_Vs_to_Am_M_A/Vsm_=_65563218390.804596
# pendiente_HvsI_1/m_=_3716.3
# ordenada_HvsI_A/m_=_1297.0
# frecuencia_Hz_=_302626.1598273924

Tiempo_(s)	Campo_(V.s)	Magnetizacion_(V.s)	Campo_(kA/m)	Magnetizacion_(A/m)
0.000000e+00	-7.913489e-06	-1.047816e-08	-5.682801e+01	-6.868452e+02
1.000000e-08	-7.911059e-06	-1.048335e-08	-5.681055e+01	-6.865602e+02
2.000000e-08	-7.905941e-06	-1.047712e-08	-5.677380e+01	-6.861696e+02
3.000000e-08	-7.898296e-06	-1.046818e-08	-5.671890e+01	-6.856841e+02
4.000000e-08	-7.887918e-06	-1.046037e-08	-5.664437e+01	-6.851151e+02
5.000000e-08	-7.874673e-06	-1.045014e-08	-5.654926e+01	-6.844734e+02
6.000000e-08	-7.858523e-06	-1.043772e-08	-5.643328e+01	-6.837678e+02
7.000000e-08	-7.839780e-06	-1.042324e-08	-5.629869e+01	-6.830048e+02
8.000000e-08	-7.818806e-06	-1.040400e-08	-5.614807e+01	-6.821878e+02
9.000000e-08	-7.795152e-06	-1.046628e-08	-5.597821e+01	-6.813173e+02
1.000000e-07	-7.768344e-06	-1.048721e-08	-5.578569e+01	-6.803916e+02
1.100000e-07	-7.738472e-06	-1.040723e-08	-5.557118e+01	-6.794069e+02
1.200000e-07	-7.705803e-06	-1.036268e-08	-5.533658e+01	-6.783583e+02
1.300000e-07	-7.670395e-06	-1.035054e-08	-5.508230e+01	-6.772404e+02
1.400000e-07	-7.632539e-06	-1.031939e-08	-5.481046e+01	-6.760475e+02
1.500000e-07	-7.592573e-06	-1.023351e-08	-5.452346e+01	-6.747745e+02
1.600000e-07	-7.550344e-06	-1.025976e-08	-5.422020e+01	-6.734160e+02
1.700000e-07	-7.505448e-06	-1.029822e-08	-5.389780e+01	-6.719666e+02
1.800000e-07	-7.457839e-06	-1.014924e-08	-5.355591e+01	-6.704205e+02
1.900000e-07	-7.407448e-06	-1.020306e-08	-5.319404e+01	-6.687711e+02
2.000000e-07	-7.354057e-06	-1.021085e-08	-5.281063e+01	-6.670110e+02
2.100000e-07	-7.297866e-06	-1.010494e-08	-5.240712e+01	-6.651319e+02
2.200000e-07	-7.239000e-06	-1.011702e-08	-5.198439e+01	-6.631255e+02
2.300000e-07	-7.177502e-06	-1.007742e-08	-5.154277e+01	-6.609834e+02
2.400000e-07	-7.113411e-06	-1.007364e-08	-5.108252e+01	-6.586988e+02
2.500000e-07	-7.046582e-06	-9.986476e-09	-5.060261e+01	-6.562666e+02
2.600000e-07	-6.977112e-06	-9.953558e-09	-5.010373e+01	-6.536850e+02
2.700000e-07	-6.904976e-06	-9.927677e-09	-4.958571e+01	-6.509549e+02
2.800000e-07	-6.830043e-06	-9.860827e-09	-4.904761e+01	-6.480811e+02
2.900000e-07	-6.752346e-06	-9.813643e-09	-4.848965e+01	-6.450709e+02
3.000000e-07	-6.671852e-06	-9.776120e-09	-4.791161e+01	-6.419336e+02
3.100000e-07	-6.588912e-06	-9.771974e-09	-4.731601e+01	-6.386791e+02
3.200000e-07	-6.503820e-06	-9.686799e-09	-4.670495e+01	-6.353164e+02
3.300000e-07	-6.416434e-06	-9.620181e-09	-4.607741e+01	-6.318520e+02
3.400000e-07	-6.326709e-06	-9.592309e-09	-4.543309e+01	-6.282886e+02
3.500000e-07	-6.234651e-06	-9.535513e-09	-4.477200e+01	-6.246243e+02
3.600000e-07	-6.140318e-06	-9.465839e-09	-4.409458e+01	-6.208528e+02
3.700000e-07	-6.043755e-06	-9.408771e-09	-4.340115e+01	-6.169631e+02
3.800000e-07	-5.944970e-06	-9.362799e-09	-4.269176e+01	-6.129416e+02
3.900000e-07	-5.844074e-06	-9.280012e-09	-4.196721e+01	-6.087728e+02
4.000000e-07	-5.741106e-06	-9.202183e-09	-4.122778e+01	-6.044418e+02
4.100000e-07	-5.636089e-06	-9.142071e-09	-4.047364e+01	-5.999360e+02
4.200000e-07	-5.529073e-06	-9.078994e-09	-3.970514e+01	-5.952465e+02
4.300000e-07	-5.420115e-06	-8.998221e-09	-3.892270e+01	-5.903689e+02
4.400000e-07	-5.309315e-06	-8.920326e-09	-3.812702e+01	-5.853038e+02
4.500000e-07	-5.196531e-06	-8.854339e-09	-3.731710e+01	-5.800560e+02
4.600000e-07	-5.081659e-06	-8.773636e-09	-3.649219e+01	-5.746332e+02
4.700000e-07	-4.964836e-06	-8.678918e-09	-3.565327e+01	-5.690437e+02
4.800000e-07	-4.846182e-06	-8.590521e-09	-3.480119e+01	-5.632950e+02
4.900000e-07	-4.725750e-06	-8.507510e-09	-3.393635e+01	-5.573910e+02
5.000000e-07	-4.603615e-06	-8.414825e-09	-3.305928e+01	-5.513311e+02
5.100000e-07	-4.479823e-06	-8.316593e-09	-3.217031e+01	-5.451087e+02
5.200000e-07	-4.354372e-06	-8.214395e-09	-3.126943e+01	-5.387114e+02
5.300000e-07	-4.227332e-06	-8.108605e-09	-3.035714e+01	-5.321223e+02
5.400000e-07	-4.098779e-06	-7.995778e-09	-2.943397e+01	-5.253210e+02
5.500000e-07	-3.968736e-06	-7.887093e-09	-2.850011e+01	-5.182864e+02
5.600000e-07	-3.837167e-06	-7.779849e-09	-2.755529e+01	-5.109989e+02
5.700000e-07	-3.704119e-06	-7.669932e-09	-2.659986e+01	-5.034424e+02
5.800000e-07	-3.569670e-06	-7.551422e-09	-2.563436e+01	-4.956064e+02
5.900000e-07	-3.433851e-06	-7.426858e-09	-2.465902e+01	-4.874859e+02
6.000000e-07	-3.296681e-06	-7.298295e-09	-2.367398e+01	-4.790818e+02
6.100000e-07	-3.158228e-06	-7.166046e-09	-2.267973e+01	-4.703987e+02
6.200000e-07	-3.018466e-06	-7.030921e-09	-2.167608e+01	-4.614432e+02
6.300000e-07	-2.877302e-06	-6.889112e-09	-2.066236e+01	-4.522207e+02
6.400000e-07	-2.734912e-06	-6.743154e-09	-1.963983e+01	-4.427326e+02
6.500000e-07	-2.591506e-06	-6.590730e-09	-1.861001e+01	-4.329740e+02
6.600000e-07	-2.447153e-06	-6.433325e-09	-1.757339e+01	-4.229317e+02
6.700000e-07	-2.301939e-06	-6.270072e-09	-1.653058e+01	-4.125845e+02
6.800000e-07	-2.155871e-06	-6.105675e-09	-1.548165e+01	-4.019034e+02
6.900000e-07	-2.009070e-06	-5.938306e-09	-1.442744e+01	-3.908545e+02
7.000000e-07	-1.861711e-06	-5.765546e-09	-1.336924e+01	-3.794015e+02
7.100000e-07	-1.713780e-06	-5.586150e-09	-1.230692e+01	-3.675099e+02
7.200000e-07	-1.565320e-06	-5.399660e-09	-1.124081e+01	-3.551505e+02
7.300000e-07	-1.416415e-06	-5.204934e-09	-1.017150e+01	-3.423018e+02
7.400000e-07	-1.267101e-06	-4.998492e-09	-9.099253e+00	-3.289517e+02
7.500000e-07	-1.117375e-06	-4.785880e-09	-8.024041e+00	-3.150973e+02
7.600000e-07	-9.672005e-07	-4.568298e-09	-6.945618e+00	-3.007424e+02
7.700000e-07	-8.166798e-07	-4.344746e-09	-5.864705e+00	-2.858936e+02
7.800000e-07	-6.658753e-07	-4.111225e-09	-4.781755e+00	-2.705555e+02
7.900000e-07	-5.147964e-07	-3.870978e-09	-3.696834e+00	-2.547243e+02
8.000000e-07	-3.635455e-07	-3.624564e-09	-2.610677e+00	-2.383826e+02
8.100000e-07	-2.121917e-07	-3.367285e-09	-1.523782e+00	-2.214947e+02
8.200000e-07	-6.074453e-08	-3.098742e-09	-4.362160e-01	-2.040050e+02
8.300000e-07	9.076399e-08	-2.821240e-09	6.517904e-01	-1.858382e+02
8.400000e-07	2.422696e-07	-2.531549e-09	1.739776e+00	-1.669031e+02
8.500000e-07	3.936850e-07	-2.223027e-09	2.827113e+00	-1.470997e+02
8.600000e-07	5.449774e-07	-1.900086e-09	3.913568e+00	-1.263289e+02
8.700000e-07	6.961647e-07	-1.567204e-09	4.999268e+00	-1.045041e+02
8.800000e-07	8.472016e-07	-1.220919e-09	6.083887e+00	-8.156325e+01
8.900000e-07	9.979806e-07	-8.560137e-10	7.166655e+00	-5.748098e+01
9.000000e-07	1.148366e-06	-4.744854e-10	8.246593e+00	-3.227806e+01
9.100000e-07	1.298327e-06	-7.995355e-11	9.323490e+00	-6.028090e+00
9.200000e-07	1.447873e-06	3.288949e-10	1.039740e+01	2.114012e+01
9.300000e-07	1.596951e-06	7.546768e-10	1.146795e+01	4.904480e+01
9.400000e-07	1.745477e-06	1.192972e-09	1.253455e+01	7.745817e+01
9.500000e-07	1.893303e-06	1.636013e-09	1.359611e+01	1.061176e+02
9.600000e-07	2.040413e-06	2.077213e-09	1.465252e+01	1.347401e+02
9.700000e-07	2.186915e-06	2.510108e-09	1.570458e+01	1.630387e+02
9.800000e-07	2.332622e-06	2.932757e-09	1.675092e+01	1.907391e+02
9.900000e-07	2.477319e-06	3.339644e-09	1.779002e+01	2.175955e+02
1.000000e-06	2.621128e-06	3.730415e-09	1.882273e+01	2.434035e+02
1.010000e-06	2.763980e-06	4.101474e-09	1.984858e+01	2.680095e+02
1.020000e-06	2.905743e-06	4.451783e-09	2.086659e+01	2.913152e+02
1.030000e-06	3.046310e-06	4.782636e-09	2.187603e+01	3.132782e+02
1.040000e-06	3.185528e-06	5.093987e-09	2.287578e+01	3.339070e+02
1.050000e-06	3.323468e-06	5.387850e-09	2.386635e+01	3.532534e+02
1.060000e-06	3.460135e-06	5.664050e-09	2.484777e+01	3.714018e+02
1.070000e-06	3.595446e-06	5.925217e-09	2.581946e+01	3.884569e+02
1.080000e-06	3.729426e-06	6.171931e-09	2.678159e+01	4.045317e+02
1.090000e-06	3.862147e-06	6.406071e-09	2.773468e+01	4.197371e+02
1.100000e-06	3.993518e-06	6.628146e-09	2.867808e+01	4.341723e+02
1.110000e-06	4.123437e-06	6.837274e-09	2.961104e+01	4.479201e+02
1.120000e-06	4.251896e-06	7.036111e-09	3.053353e+01	4.610431e+02
1.130000e-06	4.378835e-06	7.225274e-09	3.144510e+01	4.735846e+02
1.140000e-06	4.504286e-06	7.406006e-09	3.234598e+01	4.855705e+02
1.150000e-06	4.628209e-06	7.579746e-09	3.323590e+01	4.970145e+02
1.160000e-06	4.750486e-06	7.743637e-09	3.411398e+01	5.079223e+02
1.170000e-06	4.871097e-06	7.898370e-09	3.498011e+01	5.182974e+02
1.180000e-06	4.989952e-06	8.045482e-09	3.583362e+01	5.281456e+02
1.190000e-06	5.106981e-06	8.187551e-09	3.667403e+01	5.374778e+02
1.200000e-06	5.222128e-06	8.324015e-09	3.750092e+01	5.463120e+02
1.210000e-06	5.335227e-06	8.453648e-09	3.831310e+01	5.546731e+02
1.220000e-06	5.446298e-06	8.576091e-09	3.911072e+01	5.625921e+02
1.230000e-06	5.555485e-06	8.695441e-09	3.989481e+01	5.701031e+02
1.240000e-06	5.662706e-06	8.809945e-09	4.066478e+01	5.772411e+02
1.250000e-06	5.767764e-06	8.914746e-09	4.141921e+01	5.840394e+02
1.260000e-06	5.870675e-06	9.010789e-09	4.215824e+01	5.905267e+02
1.270000e-06	5.971523e-06	9.100578e-09	4.288244e+01	5.967264e+02
1.280000e-06	6.070185e-06	9.187062e-09	4.359095e+01	6.026561e+02
1.290000e-06	6.166505e-06	9.270553e-09	4.428263e+01	6.083277e+02
1.300000e-06	6.260555e-06	9.350892e-09	4.495802e+01	6.137490e+02
1.310000e-06	6.352439e-06	9.427400e-09	4.561786e+01	6.189252e+02
1.320000e-06	6.442035e-06	9.501432e-09	4.626126e+01	6.238609e+02
1.330000e-06	6.529265e-06	9.573956e-09	4.688767e+01	6.285614e+02
1.340000e-06	6.614233e-06	9.643952e-09	4.749784e+01	6.330338e+02
1.350000e-06	6.696919e-06	9.710392e-09	4.809162e+01	6.372877e+02
1.360000e-06	6.777117e-06	9.772052e-09	4.866753e+01	6.413344e+02
1.370000e-06	6.854762e-06	9.829440e-09	4.922511e+01	6.451861e+02
1.380000e-06	6.929798e-06	9.884949e-09	4.976396e+01	6.488549e+02
1.390000e-06	7.002220e-06	9.938389e-09	5.028404e+01	6.523511e+02
1.400000e-06	7.072188e-06	9.988802e-09	5.078649e+01	6.556820e+02
1.410000e-06	7.139717e-06	1.003701e-08	5.127143e+01	6.588513e+02
1.420000e-06	7.204692e-06	1.008269e-08	5.173802e+01	6.618588e+02
1.430000e-06	7.267104e-06	1.012586e-08	5.218621e+01	6.647009e+02
1.440000e-06	7.327017e-06	1.016498e-08	5.261646e+01	6.673716e+02
1.450000e-06	7.384368e-06	1.020071e-08	5.302830e+01	6.698642e+02
1.460000e-06	7.439082e-06	1.023403e-08	5.342121e+01	6.721727e+02
1.470000e-06	7.490902e-06	1.026367e-08	5.379334e+01	6.742936e+02
1.480000e-06	7.539663e-06	1.029098e-08	5.414350e+01	6.762270e+02
1.490000e-06	7.585601e-06	1.031890e-08	5.447338e+01	6.779775e+02
1.500000e-06	7.628843e-06	1.034634e-08	5.478391e+01	6.795540e+02
1.510000e-06	7.669384e-06	1.037066e-08	5.507505e+01	6.809690e+02
1.520000e-06	7.707251e-06	1.039109e-08	5.534698e+01	6.822378e+02
1.530000e-06	7.742412e-06	1.040819e-08	5.559947e+01	6.833760e+02
1.540000e-06	7.774762e-06	1.042359e-08	5.583178e+01	6.843987e+02
1.550000e-06	7.804363e-06	1.043760e-08	5.604435e+01	6.853183e+02
1.560000e-06	7.831244e-06	1.045077e-08	5.623739e+01	6.861434e+02
1.570000e-06	7.855200e-06	1.046192e-08	5.640942e+01	6.868782e+02
1.580000e-06	7.876378e-06	1.047077e-08	5.656151e+01	6.875225e+02
1.590000e-06	7.894900e-06	1.047864e-08	5.669451e+01	6.880723e+02
1.600000e-06	7.910462e-06	1.048654e-08	5.680626e+01	6.885211e+02
1.610000e-06	7.922937e-06	1.049334e-08	5.689585e+01	6.888612e+02
1.620000e-06	7.932277e-06	1.049789e-08	5.696292e+01	6.890855e+02
1.630000e-06	7.938682e-06	1.050045e-08	5.700892e+01	6.891888e+02
1.640000e-06	7.942380e-06	1.050179e-08	5.703547e+01	6.891690e+02
1.650000e-06	7.943219e-06	1.050444e-08	5.704150e+01	6.890276e+02
1.660000e-06	7.941321e-06	1.049613e-08	5.702787e+01	6.887699e+02
1.670000e-06	7.936850e-06	1.048859e-08	5.699576e+01	6.884041e+02
1.680000e-06	7.929704e-06	1.048306e-08	5.694444e+01	6.879406e+02
1.690000e-06	7.919884e-06	1.047555e-08	5.687393e+01	6.873909e+02
1.700000e-06	7.907267e-06	1.046997e-08	5.678332e+01	6.867658e+02
1.710000e-06	7.891874e-06	1.046922e-08	5.667278e+01	6.860749e+02
1.720000e-06	7.874060e-06	1.047131e-08	5.654486e+01	6.853252e+02
1.730000e-06	7.853974e-06	1.043181e-08	5.640061e+01	6.845209e+02
1.740000e-06	7.831217e-06	1.030613e-08	5.623719e+01	6.836633e+02
1.750000e-06	7.805192e-06	1.032136e-08	5.605031e+01	6.827511e+02
1.760000e-06	7.775565e-06	1.036780e-08	5.583755e+01	6.817810e+02
1.770000e-06	7.742752e-06	1.033754e-08	5.560191e+01	6.807482e+02
1.780000e-06	7.707560e-06	1.033317e-08	5.534919e+01	6.796475e+02
1.790000e-06	7.670036e-06	1.042845e-08	5.507973e+01	6.784733e+02
1.800000e-06	7.630326e-06	1.033889e-08	5.479457e+01	6.772202e+02
1.810000e-06	7.588642e-06	1.021830e-08	5.449522e+01	6.758829e+02
1.820000e-06	7.544399e-06	1.036569e-08	5.417751e+01	6.744562e+02
1.830000e-06	7.497471e-06	1.023031e-08	5.384051e+01	6.729342e+02
1.840000e-06	7.447831e-06	1.026155e-08	5.348404e+01	6.713107e+02
1.850000e-06	7.395129e-06	1.025940e-08	5.310558e+01	6.695784e+02
1.860000e-06	7.339579e-06	1.015537e-08	5.270666e+01	6.677293e+02
1.870000e-06	7.281435e-06	1.020771e-08	5.228913e+01	6.657549e+02
1.880000e-06	7.220698e-06	1.005061e-08	5.185296e+01	6.636468e+02
1.890000e-06	7.157230e-06	1.011795e-08	5.139719e+01	6.613978e+02
1.900000e-06	7.090956e-06	1.008155e-08	5.092126e+01	6.590022e+02
1.910000e-06	7.021923e-06	9.981616e-09	5.042552e+01	6.564573e+02
1.920000e-06	6.950115e-06	1.000755e-08	4.990987e+01	6.537635e+02
1.930000e-06	6.875649e-06	9.927200e-09	4.937511e+01	6.509244e+02
1.940000e-06	6.798446e-06	9.923297e-09	4.882070e+01	6.479469e+02
1.950000e-06	6.718540e-06	9.794195e-09	4.824689e+01	6.448398e+02
1.960000e-06	6.636186e-06	9.781062e-09	4.765549e+01	6.416131e+02
1.970000e-06	6.551367e-06	9.756484e-09	4.704639e+01	6.382761e+02
1.980000e-06	6.464086e-06	9.659120e-09	4.641961e+01	6.348361e+02
1.990000e-06	6.374467e-06	9.650212e-09	4.577604e+01	6.312968e+02
2.000000e-06	6.282707e-06	9.585208e-09	4.511710e+01	6.276576e+02
2.010000e-06	6.188746e-06	9.533054e-09	4.444235e+01	6.239131e+02
2.020000e-06	6.092467e-06	9.425080e-09	4.375096e+01	6.200536e+02
2.030000e-06	5.994032e-06	9.393626e-09	4.304408e+01	6.160658e+02
2.040000e-06	5.893538e-06	9.348576e-09	4.232242e+01	6.119346e+02
2.050000e-06	5.790918e-06	9.279341e-09	4.158549e+01	6.076449e+02
2.060000e-06	5.686224e-06	9.200746e-09	4.083366e+01	6.031832e+02
2.070000e-06	5.579624e-06	9.122977e-09	4.006815e+01	5.985396e+02
2.080000e-06	5.471105e-06	9.052692e-09	3.928886e+01	5.937086e+02
2.090000e-06	5.360597e-06	8.956619e-09	3.849529e+01	5.886894e+02
2.100000e-06	5.248090e-06	8.896533e-09	3.768736e+01	5.834861e+02
2.110000e-06	5.133628e-06	8.823297e-09	3.686539e+01	5.781056e+02
2.120000e-06	5.017187e-06	8.744746e-09	3.602921e+01	5.725564e+02
2.130000e-06	4.898756e-06	8.642034e-09	3.517873e+01	5.668464e+02
2.140000e-06	4.778440e-06	8.557393e-09	3.431472e+01	5.609805e+02
2.150000e-06	4.656453e-06	8.467132e-09	3.343872e+01	5.549593e+02
2.160000e-06	4.532822e-06	8.373116e-09	3.255091e+01	5.487778e+02
2.170000e-06	4.407477e-06	8.273860e-09	3.165078e+01	5.424251e+02
2.180000e-06	4.280531e-06	8.177801e-09	3.073916e+01	5.358852e+02
2.190000e-06	4.151963e-06	8.082052e-09	2.981590e+01	5.291383e+02
2.200000e-06	4.021921e-06	7.975904e-09	2.888204e+01	5.221634e+02
2.210000e-06	3.890445e-06	7.863883e-09	2.793789e+01	5.149401e+02
2.220000e-06	3.757484e-06	7.741148e-09	2.698308e+01	5.074516e+02
2.230000e-06	3.623095e-06	7.623363e-09	2.601802e+01	4.996855e+02
2.240000e-06	3.487361e-06	7.501930e-09	2.504328e+01	4.916357e+02
2.250000e-06	3.350296e-06	7.381396e-09	2.405900e+01	4.833015e+02
2.260000e-06	3.211959e-06	7.252733e-09	2.306558e+01	4.746870e+02
2.270000e-06	3.072428e-06	7.120419e-09	2.206358e+01	4.657984e+02
2.280000e-06	2.931632e-06	6.977872e-09	2.105251e+01	4.566416e+02
2.290000e-06	2.789606e-06	6.831605e-09	2.003259e+01	4.472195e+02
2.300000e-06	2.646525e-06	6.687277e-09	1.900511e+01	4.375288e+02
2.310000e-06	2.502499e-06	6.544246e-09	1.797084e+01	4.275585e+02
2.320000e-06	2.357554e-06	6.393953e-09	1.692997e+01	4.172894e+02
2.330000e-06	2.211850e-06	6.229021e-09	1.588364e+01	4.066942e+02
2.340000e-06	2.065437e-06	6.055353e-09	1.483222e+01	3.957400e+02
2.350000e-06	1.918334e-06	5.876615e-09	1.377586e+01	3.843907e+02
2.360000e-06	1.770615e-06	5.693287e-09	1.271507e+01	3.726112e+02
2.370000e-06	1.622381e-06	5.505500e-09	1.165057e+01	3.603705e+02
2.380000e-06	1.473638e-06	5.312650e-09	1.058243e+01	3.476450e+02
2.390000e-06	1.324365e-06	5.115383e-09	9.510471e+00	3.344203e+02
2.400000e-06	1.174583e-06	4.910585e-09	8.434866e+00	3.206912e+02
2.410000e-06	1.024415e-06	4.695326e-09	7.356482e+00	3.064602e+02
2.420000e-06	8.739638e-07	4.472115e-09	6.276070e+00	2.917337e+02
2.430000e-06	7.232657e-07	4.240508e-09	5.193884e+00	2.765173e+02
2.440000e-06	5.723735e-07	4.001105e-09	4.110303e+00	2.608098e+02
2.450000e-06	4.212530e-07	3.753152e-09	3.025084e+00	2.445976e+02
2.460000e-06	2.699596e-07	3.496112e-09	1.938622e+00	2.278501e+02
2.470000e-06	1.185620e-07	3.226565e-09	8.514121e-01	2.105166e+02
2.480000e-06	-3.297190e-08	2.946554e-09	-2.367764e-01	1.925264e+02
2.490000e-06	-1.845736e-07	2.659201e-09	-1.325452e+00	1.737919e+02
2.500000e-06	-3.361012e-07	2.359675e-09	-2.413595e+00	1.542145e+02
2.510000e-06	-4.874424e-07	2.046829e-09	-3.500400e+00	1.336938e+02
2.520000e-06	-6.385915e-07	1.719894e-09	-4.585825e+00	1.121389e+02
2.530000e-06	-7.895731e-07	1.377810e-09	-5.670048e+00	8.948045e+01
2.540000e-06	-9.402981e-07	1.018986e-09	-6.752428e+00	6.568294e+01
2.550000e-06	-1.090730e-06	6.438032e-10	-7.832701e+00	4.075481e+01
2.560000e-06	-1.240848e-06	2.535405e-10	-8.910725e+00	1.475607e+01
2.570000e-06	-1.390542e-06	-1.536221e-10	-9.985698e+00	-1.219824e+01
2.580000e-06	-1.539658e-06	-5.771951e-10	-1.105652e+01	-3.993913e+01
2.590000e-06	-1.688111e-06	-1.013183e-09	-1.212259e+01	-6.824942e+01
2.600000e-06	-1.835936e-06	-1.456223e-09	-1.318415e+01	-9.687396e+01
2.610000e-06	-1.983133e-06	-1.902448e-09	-1.424119e+01	-1.255334e+02
2.620000e-06	-2.129608e-06	-2.345838e-09	-1.529305e+01	-1.539400e+02
2.630000e-06	-2.275283e-06	-2.776959e-09	-1.633916e+01	-1.818150e+02
2.640000e-06	-2.420129e-06	-3.189744e-09	-1.737933e+01	-2.089039e+02
2.650000e-06	-2.564040e-06	-3.584255e-09	-1.841277e+01	-2.349912e+02
2.660000e-06	-2.706927e-06	-3.960866e-09	-1.943886e+01	-2.599097e+02
2.670000e-06	-2.848721e-06	-4.317485e-09	-2.045711e+01	-2.835472e+02
2.680000e-06	-2.989330e-06	-4.651851e-09	-2.146685e+01	-3.058475e+02
2.690000e-06	-3.128768e-06	-4.966836e-09	-2.246817e+01	-3.268071e+02
2.700000e-06	-3.266995e-06	-5.266455e-09	-2.346080e+01	-3.464679e+02
2.710000e-06	-3.403987e-06	-5.552110e-09	-2.444456e+01	-3.649072e+02
2.720000e-06	-3.539673e-06	-5.822840e-09	-2.541895e+01	-3.822257e+02
2.730000e-06	-3.674065e-06	-6.077424e-09	-2.638404e+01	-3.985356e+02
2.740000e-06	-3.807152e-06	-6.317404e-09	-2.733976e+01	-4.139491e+02
2.750000e-06	-3.938887e-06	-6.544843e-09	-2.828576e+01	-4.285690e+02
2.760000e-06	-4.069260e-06	-6.760384e-09	-2.922199e+01	-4.424826e+02
2.770000e-06	-4.198246e-06	-6.964714e-09	-3.014826e+01	-4.557576e+02
2.780000e-06	-4.325759e-06	-7.157149e-09	-3.106395e+01	-4.684420e+02
2.790000e-06	-4.451708e-06	-7.338834e-09	-3.196841e+01	-4.805658e+02
2.800000e-06	-4.576109e-06	-7.510695e-09	-3.286175e+01	-4.921451e+02
2.810000e-06	-4.698882e-06	-7.674249e-09	-3.374341e+01	-5.031872e+02
2.820000e-06	-4.819986e-06	-7.832597e-09	-3.461308e+01	-5.136957e+02
2.830000e-06	-4.939318e-06	-7.983801e-09	-3.547001e+01	-5.236755e+02
2.840000e-06	-5.056690e-06	-8.130059e-09	-3.631288e+01	-5.331359e+02
2.850000e-06	-5.172044e-06	-8.272129e-09	-3.714125e+01	-5.420930e+02
2.860000e-06	-5.285329e-06	-8.405564e-09	-3.795478e+01	-5.505704e+02
2.870000e-06	-5.396494e-06	-8.528937e-09	-3.875306e+01	-5.585974e+02
2.880000e-06	-5.505631e-06	-8.641019e-09	-3.953679e+01	-5.662076e+02
2.890000e-06	-5.612919e-06	-8.748073e-09	-4.030725e+01	-5.734363e+02
2.900000e-06	-5.718326e-06	-8.852949e-09	-4.106419e+01	-5.803172e+02
2.910000e-06	-5.821599e-06	-8.954606e-09	-4.180581e+01	-5.868804e+02
2.920000e-06	-5.922641e-06	-9.053361e-09	-4.253141e+01	-5.931508e+02
2.930000e-06	-6.021554e-06	-9.147401e-09	-4.324172e+01	-5.991473e+02
2.940000e-06	-6.118364e-06	-9.237534e-09	-4.393693e+01	-6.048832e+02
