# Temperatura_=_27.8
# Concentracion g/m^3_=_5000.0
# C_Vs_to_Am_M_A/Vsm_=_65563218390.804596
# pendiente_HvsI_1/m_=_3716.3
# ordenada_HvsI_A/m_=_1297.0
# frecuencia_Hz_=_302505.80447668734

Tiempo_(s)	Campo_(V.s)	Magnetizacion_(V.s)	Campo_(kA/m)	Magnetizacion_(A/m)
0.000000e+00	-8.008454e-06	-5.303420e-09	-5.687174e+01	-3.465758e+02
1.000000e-08	-8.004515e-06	-5.303233e-09	-5.684377e+01	-3.463359e+02
2.000000e-08	-7.997936e-06	-5.297908e-09	-5.679705e+01	-3.460096e+02
3.000000e-08	-7.988578e-06	-5.294047e-09	-5.673060e+01	-3.456145e+02
4.000000e-08	-7.976307e-06	-5.292661e-09	-5.664345e+01	-3.451736e+02
5.000000e-08	-7.961094e-06	-5.287033e-09	-5.653542e+01	-3.447124e+02
6.000000e-08	-7.943218e-06	-5.276927e-09	-5.640847e+01	-3.442563e+02
7.000000e-08	-7.923074e-06	-5.274209e-09	-5.626542e+01	-3.438269e+02
8.000000e-08	-7.900382e-06	-5.267793e-09	-5.610428e+01	-3.434401e+02
9.000000e-08	-7.874548e-06	-5.313281e-09	-5.592081e+01	-3.431034e+02
1.000000e-07	-7.845458e-06	-5.315261e-09	-5.571423e+01	-3.428150e+02
1.100000e-07	-7.813452e-06	-5.267558e-09	-5.548695e+01	-3.425639e+02
1.200000e-07	-7.778741e-06	-5.240711e-09	-5.524045e+01	-3.423306e+02
1.300000e-07	-7.741490e-06	-5.200344e-09	-5.497591e+01	-3.420899e+02
1.400000e-07	-7.702040e-06	-5.145780e-09	-5.469575e+01	-3.418127e+02
1.500000e-07	-7.660375e-06	-5.130506e-09	-5.439987e+01	-3.414696e+02
1.600000e-07	-7.616071e-06	-5.261051e-09	-5.408525e+01	-3.410341e+02
1.700000e-07	-7.569015e-06	-5.231261e-09	-5.375108e+01	-3.404847e+02
1.800000e-07	-7.519110e-06	-5.145367e-09	-5.339669e+01	-3.398072e+02
1.900000e-07	-7.466202e-06	-5.173994e-09	-5.302096e+01	-3.389956e+02
2.000000e-07	-7.410480e-06	-5.093820e-09	-5.262525e+01	-3.380519e+02
2.100000e-07	-7.352070e-06	-5.079536e-09	-5.221046e+01	-3.369852e+02
2.200000e-07	-7.291001e-06	-5.094110e-09	-5.177678e+01	-3.358103e+02
2.300000e-07	-7.227311e-06	-5.070915e-09	-5.132449e+01	-3.345449e+02
2.400000e-07	-7.160828e-06	-5.048484e-09	-5.085236e+01	-3.332074e+02
2.500000e-07	-7.091561e-06	-5.017124e-09	-5.036046e+01	-3.318146e+02
2.600000e-07	-7.019580e-06	-5.054754e-09	-4.984929e+01	-3.303796e+02
2.700000e-07	-6.944774e-06	-5.021437e-09	-4.931806e+01	-3.289110e+02
2.800000e-07	-6.867151e-06	-4.972952e-09	-4.876682e+01	-3.274116e+02
2.900000e-07	-6.786793e-06	-4.938149e-09	-4.819616e+01	-3.258793e+02
3.000000e-07	-6.703943e-06	-4.912856e-09	-4.760781e+01	-3.243075e+02
3.100000e-07	-6.618780e-06	-4.917408e-09	-4.700303e+01	-3.226867e+02
3.200000e-07	-6.531326e-06	-4.887792e-09	-4.638197e+01	-3.210060e+02
3.300000e-07	-6.441573e-06	-4.875538e-09	-4.574459e+01	-3.192547e+02
3.400000e-07	-6.349453e-06	-4.817970e-09	-4.509041e+01	-3.174237e+02
3.500000e-07	-6.255040e-06	-4.775917e-09	-4.441994e+01	-3.155066e+02
3.600000e-07	-6.158385e-06	-4.750019e-09	-4.373355e+01	-3.135001e+02
3.700000e-07	-6.059480e-06	-4.732562e-09	-4.303118e+01	-3.114038e+02
3.800000e-07	-5.958354e-06	-4.723575e-09	-4.231303e+01	-3.092202e+02
3.900000e-07	-5.855097e-06	-4.682008e-09	-4.157976e+01	-3.069534e+02
4.000000e-07	-5.749815e-06	-4.630048e-09	-4.083210e+01	-3.046084e+02
4.100000e-07	-5.642531e-06	-4.566199e-09	-4.007023e+01	-3.021899e+02
4.200000e-07	-5.533277e-06	-4.549316e-09	-3.929437e+01	-2.997012e+02
4.300000e-07	-5.422026e-06	-4.526011e-09	-3.850432e+01	-2.971439e+02
4.400000e-07	-5.308681e-06	-4.479693e-09	-3.769940e+01	-2.945173e+02
4.500000e-07	-5.193198e-06	-4.428824e-09	-3.687930e+01	-2.918185e+02
4.600000e-07	-5.075765e-06	-4.394761e-09	-3.604536e+01	-2.890425e+02
4.700000e-07	-4.956533e-06	-4.349720e-09	-3.519863e+01	-2.861831e+02
4.800000e-07	-4.835444e-06	-4.293573e-09	-3.433873e+01	-2.832333e+02
4.900000e-07	-4.712598e-06	-4.255189e-09	-3.346634e+01	-2.801862e+02
5.000000e-07	-4.588073e-06	-4.205887e-09	-3.258203e+01	-2.770352e+02
5.100000e-07	-4.461944e-06	-4.148306e-09	-3.168633e+01	-2.737752e+02
5.200000e-07	-4.334181e-06	-4.098041e-09	-3.077903e+01	-2.704021e+02
5.300000e-07	-4.204758e-06	-4.063977e-09	-2.985994e+01	-2.669132e+02
5.400000e-07	-4.073823e-06	-4.004661e-09	-2.893010e+01	-2.633070e+02
5.500000e-07	-3.941354e-06	-3.932416e-09	-2.798938e+01	-2.595831e+02
5.600000e-07	-3.807384e-06	-3.873218e-09	-2.703800e+01	-2.557412e+02
5.700000e-07	-3.671901e-06	-3.818059e-09	-2.607587e+01	-2.517814e+02
5.800000e-07	-3.534995e-06	-3.751107e-09	-2.510364e+01	-2.477032e+02
5.900000e-07	-3.396786e-06	-3.686225e-09	-2.412215e+01	-2.435056e+02
6.000000e-07	-3.257137e-06	-3.628109e-09	-2.313044e+01	-2.391865e+02
6.100000e-07	-3.115972e-06	-3.553455e-09	-2.212796e+01	-2.347428e+02
6.200000e-07	-2.973570e-06	-3.474939e-09	-2.111670e+01	-2.301701e+02
6.300000e-07	-2.830127e-06	-3.405649e-09	-2.009805e+01	-2.254627e+02
6.400000e-07	-2.685651e-06	-3.343061e-09	-1.907205e+01	-2.206138e+02
6.500000e-07	-2.540170e-06	-3.266832e-09	-1.803892e+01	-2.156154e+02
6.600000e-07	-2.393712e-06	-3.181770e-09	-1.699886e+01	-2.104586e+02
6.700000e-07	-2.246494e-06	-3.099471e-09	-1.595339e+01	-2.051335e+02
6.800000e-07	-2.098606e-06	-3.015043e-09	-1.490317e+01	-1.996299e+02
6.900000e-07	-1.950044e-06	-2.926684e-09	-1.384816e+01	-1.939374e+02
7.000000e-07	-1.800884e-06	-2.835054e-09	-1.278891e+01	-1.880460e+02
7.100000e-07	-1.651156e-06	-2.744286e-09	-1.172562e+01	-1.819462e+02
7.200000e-07	-1.500856e-06	-2.647286e-09	-1.065827e+01	-1.756297e+02
7.300000e-07	-1.350060e-06	-2.548440e-09	-9.587404e+00	-1.690897e+02
7.400000e-07	-1.198803e-06	-2.446112e-09	-8.513253e+00	-1.623210e+02
7.500000e-07	-1.047080e-06	-2.340555e-09	-7.435803e+00	-1.553197e+02
7.600000e-07	-8.949654e-07	-2.233799e-09	-6.355564e+00	-1.480830e+02
7.700000e-07	-7.425449e-07	-2.120408e-09	-5.273155e+00	-1.406085e+02
7.800000e-07	-5.898854e-07	-2.000931e-09	-4.189050e+00	-1.328932e+02
7.900000e-07	-4.369898e-07	-1.875500e-09	-3.103267e+00	-1.249322e+02
8.000000e-07	-2.839367e-07	-1.749513e-09	-2.016366e+00	-1.167178e+02
8.100000e-07	-1.307943e-07	-1.620154e-09	-9.288308e-01	-1.082382e+02
8.200000e-07	2.246514e-08	-1.486717e-09	1.595354e-01	-9.947724e+01
8.300000e-07	1.757304e-07	-1.348035e-09	1.247943e+00	-9.041410e+01
8.400000e-07	3.289314e-07	-1.204315e-09	2.335894e+00	-8.102393e+01
8.500000e-07	4.820671e-07	-1.055628e-09	3.423382e+00	-7.127943e+01
8.600000e-07	6.350373e-07	-9.018661e-10	4.509694e+00	-6.115302e+01
8.700000e-07	7.878389e-07	-7.425717e-10	5.594809e+00	-5.061981e+01
8.800000e-07	9.404307e-07	-5.747481e-10	6.678434e+00	-3.966101e+01
8.900000e-07	1.092711e-06	-4.001792e-10	7.759850e+00	-2.826743e+01
9.000000e-07	1.244606e-06	-2.200848e-10	8.838526e+00	-1.644290e+01
9.100000e-07	1.396038e-06	-3.946886e-11	9.913916e+00	-4.206985e+00
9.200000e-07	1.546930e-06	1.468878e-10	1.098546e+01	8.403257e+00
9.300000e-07	1.697231e-06	3.421187e-10	1.205282e+01	2.133271e+01
9.400000e-07	1.846907e-06	5.428831e-10	1.311574e+01	3.450913e+01
9.500000e-07	1.995953e-06	7.455303e-10	1.417419e+01	4.784546e+01
9.600000e-07	2.144280e-06	9.474819e-10	1.522753e+01	6.124358e+01
9.700000e-07	2.291731e-06	1.150578e-09	1.627464e+01	7.459895e+01
9.800000e-07	2.438340e-06	1.351730e-09	1.731578e+01	8.780607e+01
9.900000e-07	2.584100e-06	1.549925e-09	1.835089e+01	1.007640e+02
1.000000e-06	2.728898e-06	1.740370e-09	1.937917e+01	1.133814e+02
1.010000e-06	2.872712e-06	1.921090e-09	2.040046e+01	1.255813e+02
1.020000e-06	3.015436e-06	2.092864e-09	2.141401e+01	1.373037e+02
1.030000e-06	3.156979e-06	2.258154e-09	2.241917e+01	1.485077e+02
1.040000e-06	3.297195e-06	2.420858e-09	2.341491e+01	1.591712e+02
1.050000e-06	3.435989e-06	2.577412e-09	2.440055e+01	1.692898e+02
1.060000e-06	3.573522e-06	2.726996e-09	2.537723e+01	1.788740e+02
1.070000e-06	3.709758e-06	2.867361e-09	2.634471e+01	1.879460e+02
1.080000e-06	3.844492e-06	2.998441e-09	2.730152e+01	1.965351e+02
1.090000e-06	3.977863e-06	3.121460e-09	2.824865e+01	2.046746e+02
1.100000e-06	4.109851e-06	3.238799e-09	2.918595e+01	2.123976e+02
1.110000e-06	4.240300e-06	3.350790e-09	3.011233e+01	2.197349e+02
1.120000e-06	4.369308e-06	3.457602e-09	3.102848e+01	2.267132e+02
1.130000e-06	4.496850e-06	3.558415e-09	3.193422e+01	2.333543e+02
1.140000e-06	4.622858e-06	3.652834e-09	3.282906e+01	2.396755e+02
1.150000e-06	4.747290e-06	3.743648e-09	3.371271e+01	2.456910e+02
1.160000e-06	4.870013e-06	3.831077e-09	3.458422e+01	2.514131e+02
1.170000e-06	4.991015e-06	3.914153e-09	3.544351e+01	2.568538e+02
1.180000e-06	5.110242e-06	3.990962e-09	3.629020e+01	2.620262e+02
1.190000e-06	5.227608e-06	4.064327e-09	3.712366e+01	2.669455e+02
1.200000e-06	5.342980e-06	4.135746e-09	3.794298e+01	2.716292e+02
1.210000e-06	5.456259e-06	4.204748e-09	3.874743e+01	2.760964e+02
1.220000e-06	5.567495e-06	4.270089e-09	3.953736e+01	2.803667e+02
1.230000e-06	5.676745e-06	4.332411e-09	4.031320e+01	2.844592e+02
1.240000e-06	5.784010e-06	4.393108e-09	4.107493e+01	2.883905e+02
1.250000e-06	5.889148e-06	4.450199e-09	4.182157e+01	2.921733e+02
1.260000e-06	5.992071e-06	4.503904e-09	4.255247e+01	2.958153e+02
1.270000e-06	6.092800e-06	4.554929e-09	4.326779e+01	2.993192e+02
1.280000e-06	6.191274e-06	4.603961e-09	4.396710e+01	3.026828e+02
1.290000e-06	6.287311e-06	4.649873e-09	4.464911e+01	3.058996e+02
1.300000e-06	6.381079e-06	4.693414e-09	4.531500e+01	3.089614e+02
1.310000e-06	6.472653e-06	4.735609e-09	4.596531e+01	3.118592e+02
1.320000e-06	6.561918e-06	4.775178e-09	4.659922e+01	3.145860e+02
1.330000e-06	6.648786e-06	4.813291e-09	4.721611e+01	3.171382e+02
1.340000e-06	6.733345e-06	4.849782e-09	4.781660e+01	3.195168e+02
1.350000e-06	6.815623e-06	4.883220e-09	4.840090e+01	3.217283e+02
1.360000e-06	6.895396e-06	4.913504e-09	4.896740e+01	3.237840e+02
1.370000e-06	6.972614e-06	4.942901e-09	4.951576e+01	3.256993e+02
1.380000e-06	7.047219e-06	4.972012e-09	5.004557e+01	3.274920e+02
1.390000e-06	7.119188e-06	4.999052e-09	5.055666e+01	3.291804e+02
1.400000e-06	7.188619e-06	5.023680e-09	5.104972e+01	3.307809e+02
1.410000e-06	7.255460e-06	5.047741e-09	5.152439e+01	3.323068e+02
1.420000e-06	7.319611e-06	5.071120e-09	5.197995e+01	3.337662e+02
1.430000e-06	7.381237e-06	5.092125e-09	5.241759e+01	3.351623e+02
1.440000e-06	7.440443e-06	5.110472e-09	5.283803e+01	3.364931e+02
1.450000e-06	7.497019e-06	5.127136e-09	5.323981e+01	3.377525e+02
1.460000e-06	7.550837e-06	5.143304e-09	5.362199e+01	3.389320e+02
1.470000e-06	7.601680e-06	5.159427e-09	5.398305e+01	3.400224e+02
1.480000e-06	7.649459e-06	5.176181e-09	5.432235e+01	3.410164e+02
1.490000e-06	7.694439e-06	5.192438e-09	5.464178e+01	3.419098e+02
1.500000e-06	7.736722e-06	5.205611e-09	5.494205e+01	3.427027e+02
1.510000e-06	7.776224e-06	5.215231e-09	5.522257e+01	3.434002e+02
1.520000e-06	7.812983e-06	5.223005e-09	5.548361e+01	3.440121e+02
1.530000e-06	7.847057e-06	5.231460e-09	5.572559e+01	3.445512e+02
1.540000e-06	7.878312e-06	5.242036e-09	5.594754e+01	3.450321e+02
1.550000e-06	7.906782e-06	5.253408e-09	5.614972e+01	3.454687e+02
1.560000e-06	7.932387e-06	5.262768e-09	5.633155e+01	3.458725e+02
1.570000e-06	7.955037e-06	5.269270e-09	5.649241e+01	3.462502e+02
1.580000e-06	7.974966e-06	5.274621e-09	5.663393e+01	3.466034e+02
1.590000e-06	7.992099e-06	5.279370e-09	5.675560e+01	3.469273e+02
1.600000e-06	8.006199e-06	5.282876e-09	5.685573e+01	3.472122e+02
1.610000e-06	8.017194e-06	5.285571e-09	5.693381e+01	3.474442e+02
1.620000e-06	8.025106e-06	5.287555e-09	5.699000e+01	3.476079e+02
1.630000e-06	8.030138e-06	5.288778e-09	5.702573e+01	3.476886e+02
1.640000e-06	8.032359e-06	5.288332e-09	5.704150e+01	3.476749e+02
1.650000e-06	8.031725e-06	5.288749e-09	5.703700e+01	3.475608e+02
1.660000e-06	8.028453e-06	5.283257e-09	5.701377e+01	3.473476e+02
1.670000e-06	8.022525e-06	5.278740e-09	5.697167e+01	3.470440e+02
1.680000e-06	8.013881e-06	5.276903e-09	5.691028e+01	3.466660e+02
1.690000e-06	8.002564e-06	5.272902e-09	5.682991e+01	3.462352e+02
1.700000e-06	7.988356e-06	5.267420e-09	5.672902e+01	3.457767e+02
1.710000e-06	7.971468e-06	5.263519e-09	5.660909e+01	3.453163e+02
1.720000e-06	7.952342e-06	5.255225e-09	5.647326e+01	3.448770e+02
1.730000e-06	7.930737e-06	5.229317e-09	5.631984e+01	3.444764e+02
1.740000e-06	7.905958e-06	5.162180e-09	5.614387e+01	3.441247e+02
1.750000e-06	7.877573e-06	5.180537e-09	5.594229e+01	3.438228e+02
1.760000e-06	7.845780e-06	5.196541e-09	5.571652e+01	3.435623e+02
1.770000e-06	7.811294e-06	5.184255e-09	5.547161e+01	3.433259e+02
1.780000e-06	7.774519e-06	5.226568e-09	5.521047e+01	3.430897e+02
1.790000e-06	7.735540e-06	5.309953e-09	5.493365e+01	3.428255e+02
1.800000e-06	7.694481e-06	5.221438e-09	5.464208e+01	3.425037e+02
1.810000e-06	7.650973e-06	5.169482e-09	5.433311e+01	3.420967e+02
1.820000e-06	7.604793e-06	5.221326e-09	5.400516e+01	3.415812e+02
1.830000e-06	7.555882e-06	5.146704e-09	5.365782e+01	3.409408e+02
1.840000e-06	7.504012e-06	5.252753e-09	5.328946e+01	3.401672e+02
1.850000e-06	7.449244e-06	5.227113e-09	5.290053e+01	3.392602e+02
1.860000e-06	7.391619e-06	5.190239e-09	5.249131e+01	3.382269e+02
1.870000e-06	7.331357e-06	5.153238e-09	5.206337e+01	3.370808e+02
1.880000e-06	7.268442e-06	5.046389e-09	5.161658e+01	3.358389e+02
1.890000e-06	7.202604e-06	5.129475e-09	5.114903e+01	3.345198e+02
1.900000e-06	7.134017e-06	5.074553e-09	5.066196e+01	3.331408e+02
1.910000e-06	7.062612e-06	5.078683e-09	5.015488e+01	3.317164e+02
1.920000e-06	6.988468e-06	5.046471e-09	4.962835e+01	3.302564e+02
1.930000e-06	6.911673e-06	4.990103e-09	4.908300e+01	3.287654e+02
1.940000e-06	6.832119e-06	5.035282e-09	4.851804e+01	3.272425e+02
1.950000e-06	6.750022e-06	4.974643e-09	4.793504e+01	3.256824e+02
1.960000e-06	6.665511e-06	4.978489e-09	4.733489e+01	3.240763e+02
1.970000e-06	6.578585e-06	4.894459e-09	4.671758e+01	3.224134e+02
1.980000e-06	6.489169e-06	4.866150e-09	4.608260e+01	3.206829e+02
1.990000e-06	6.397498e-06	4.860148e-09	4.543160e+01	3.188750e+02
2.000000e-06	6.303625e-06	4.853057e-09	4.476496e+01	3.169826e+02
2.010000e-06	6.207380e-06	4.858581e-09	4.408148e+01	3.150014e+02
2.020000e-06	6.108920e-06	4.770853e-09	4.338227e+01	3.129302e+02
2.030000e-06	6.008347e-06	4.717276e-09	4.266806e+01	3.107707e+02
2.040000e-06	5.905645e-06	4.664233e-09	4.193872e+01	3.085268e+02
2.050000e-06	5.800804e-06	4.696486e-09	4.119419e+01	3.062032e+02
2.060000e-06	5.694031e-06	4.678790e-09	4.043595e+01	3.038048e+02
2.070000e-06	5.585357e-06	4.625181e-09	3.966421e+01	3.013355e+02
2.080000e-06	5.474647e-06	4.560959e-09	3.887801e+01	2.987973e+02
2.090000e-06	5.361853e-06	4.498639e-09	3.807701e+01	2.961903e+02
2.100000e-06	5.246999e-06	4.467226e-09	3.726137e+01	2.935121e+02
2.110000e-06	5.130184e-06	4.457927e-09	3.643181e+01	2.907584e+02
2.120000e-06	5.011384e-06	4.443555e-09	3.558816e+01	2.879231e+02
2.130000e-06	4.890630e-06	4.364435e-09	3.473063e+01	2.849994e+02
2.140000e-06	4.768095e-06	4.291482e-09	3.386045e+01	2.819804e+02
2.150000e-06	4.643845e-06	4.243613e-09	3.297809e+01	2.788592e+02
2.160000e-06	4.517895e-06	4.226022e-09	3.208366e+01	2.756304e+02
2.170000e-06	4.390348e-06	4.174430e-09	3.117789e+01	2.722895e+02
2.180000e-06	4.261162e-06	4.114795e-09	3.026049e+01	2.688334e+02
2.190000e-06	4.130374e-06	4.051936e-09	2.933170e+01	2.652605e+02
2.200000e-06	3.998028e-06	3.992370e-09	2.839185e+01	2.615698e+02
2.210000e-06	3.864227e-06	3.946633e-09	2.744167e+01	2.577612e+02
2.220000e-06	3.728985e-06	3.908791e-09	2.648125e+01	2.538347e+02
2.230000e-06	3.592284e-06	3.846757e-09	2.551047e+01	2.497900e+02
2.240000e-06	3.454206e-06	3.755285e-09	2.452992e+01	2.456262e+02
2.250000e-06	3.314803e-06	3.679157e-09	2.353995e+01	2.413417e+02
2.260000e-06	3.174147e-06	3.630446e-09	2.254109e+01	2.369335e+02
2.270000e-06	3.032263e-06	3.583835e-09	2.153350e+01	2.323977e+02
2.280000e-06	2.889261e-06	3.508015e-09	2.051798e+01	2.277290e+02
2.290000e-06	2.745145e-06	3.419663e-09	1.949454e+01	2.229209e+02
2.300000e-06	2.600023e-06	3.328173e-09	1.846397e+01	2.179657e+02
2.310000e-06	2.454035e-06	3.252602e-09	1.742724e+01	2.128547e+02
2.320000e-06	2.307222e-06	3.193713e-09	1.638465e+01	2.075782e+02
2.330000e-06	2.159585e-06	3.128552e-09	1.533621e+01	2.021263e+02
2.340000e-06	2.011087e-06	3.032779e-09	1.428166e+01	1.964884e+02
2.350000e-06	1.861903e-06	2.921155e-09	1.322223e+01	1.906544e+02
2.360000e-06	1.712205e-06	2.821902e-09	1.215916e+01	1.846146e+02
2.370000e-06	1.562001e-06	2.737160e-09	1.109249e+01	1.783603e+02
2.380000e-06	1.411342e-06	2.650402e-09	1.002260e+01	1.718844e+02
2.390000e-06	1.260320e-06	2.547719e-09	8.950115e+00	1.651811e+02
2.400000e-06	1.108893e-06	2.432416e-09	7.874761e+00	1.582461e+02
2.410000e-06	9.570677e-07	2.316612e-09	6.796581e+00	1.510765e+02
2.420000e-06	8.048941e-07	2.208748e-09	5.715926e+00	1.436698e+02
2.430000e-06	6.524306e-07	2.103738e-09	4.633212e+00	1.360233e+02
2.440000e-06	4.997159e-07	1.985909e-09	3.548714e+00	1.281327e+02
2.450000e-06	3.467299e-07	1.852401e-09	2.462290e+00	1.199912e+02
2.460000e-06	1.935213e-07	1.717492e-09	1.374285e+00	1.115884e+02
2.470000e-06	4.021963e-08	1.587696e-09	2.856183e-01	1.029094e+02
2.480000e-06	-1.130971e-07	1.457385e-09	-8.031552e-01	9.393451e+01
2.490000e-06	-2.663484e-07	1.317674e-09	-1.891464e+00	8.464006e+01
2.500000e-06	-4.194773e-07	1.166315e-09	-2.978903e+00	7.499923e+01
2.510000e-06	-5.724834e-07	1.007581e-09	-4.065470e+00	6.498422e+01
2.520000e-06	-7.253320e-07	8.470305e-10	-5.150919e+00	5.456907e+01
2.530000e-06	-8.779514e-07	6.879242e-10	-6.234740e+00	4.373286e+01
2.540000e-06	-1.030234e-06	5.222159e-10	-7.316167e+00	3.246331e+01
2.550000e-06	-1.182061e-06	3.414697e-10	-8.394360e+00	2.076022e+01
2.560000e-06	-1.333344e-06	1.492599e-10	-9.468693e+00	8.638424e+00
2.570000e-06	-1.484168e-06	-4.636430e-11	-1.053977e+01	-3.870134e+00
2.580000e-06	-1.634579e-06	-2.424867e-10	-1.160790e+01	-1.671547e+01
2.590000e-06	-1.784451e-06	-4.417326e-10	-1.267222e+01	-2.983004e+01
2.600000e-06	-1.933721e-06	-6.452378e-10	-1.373225e+01	-4.313072e+01
2.610000e-06	-2.082334e-06	-8.535879e-10	-1.478762e+01	-5.652210e+01
2.620000e-06	-2.230091e-06	-1.063788e-09	-1.583691e+01	-6.990093e+01
2.630000e-06	-2.376899e-06	-1.271271e-09	-1.687946e+01	-8.316144e+01
2.640000e-06	-2.522893e-06	-1.473946e-09	-1.791623e+01	-9.620080e+01
2.650000e-06	-2.667912e-06	-1.670839e-09	-1.894608e+01	-1.089245e+02
2.660000e-06	-2.811754e-06	-1.862251e-09	-1.996757e+01	-1.212511e+02
2.670000e-06	-2.954474e-06	-2.044158e-09	-2.098109e+01	-1.331153e+02
2.680000e-06	-3.096084e-06	-2.214115e-09	-2.198673e+01	-1.444709e+02
2.690000e-06	-3.236533e-06	-2.375024e-09	-2.298412e+01	-1.552904e+02
2.700000e-06	-3.375711e-06	-2.529345e-09	-2.397249e+01	-1.655646e+02
2.710000e-06	-3.513654e-06	-2.678162e-09	-2.495209e+01	-1.753002e+02
2.720000e-06	-3.650274e-06	-2.820934e-09	-2.592228e+01	-1.845162e+02
2.730000e-06	-3.785449e-06	-2.956660e-09	-2.688223e+01	-1.932404e+02
2.740000e-06	-3.919335e-06	-3.085626e-09	-2.783301e+01	-2.015053e+02
2.750000e-06	-4.051876e-06	-3.207665e-09	-2.877425e+01	-2.093445e+02
2.760000e-06	-4.182921e-06	-3.323368e-09	-2.970486e+01	-2.167895e+02
2.770000e-06	-4.312554e-06	-3.430990e-09	-3.062544e+01	-2.238684e+02
2.780000e-06	-4.440655e-06	-3.532671e-09	-3.153515e+01	-2.306042e+02
2.790000e-06	-4.567231e-06	-3.630709e-09	-3.243402e+01	-2.370157e+02
2.800000e-06	-4.692354e-06	-3.722012e-09	-3.332258e+01	-2.431177e+02
2.810000e-06	-4.815738e-06	-3.807335e-09	-3.419879e+01	-2.489228e+02
2.820000e-06	-4.937342e-06	-3.889885e-09	-3.506235e+01	-2.544430e+02
2.830000e-06	-5.057124e-06	-3.970101e-09	-3.591298e+01	-2.596911e+02
2.840000e-06	-5.174952e-06	-4.046720e-09	-3.674974e+01	-2.646815e+02
2.850000e-06	-5.290696e-06	-4.119912e-09	-3.757168e+01	-2.694311e+02
2.860000e-06	-5.404254e-06	-4.191378e-09	-3.837811e+01	-2.739585e+02
2.870000e-06	-5.515677e-06	-4.259573e-09	-3.916938e+01	-2.782835e+02
2.880000e-06	-5.625041e-06	-4.322719e-09	-3.994603e+01	-2.824254e+02
2.890000e-06	-5.732494e-06	-4.383396e-09	-4.070910e+01	-2.864017e+02
2.900000e-06	-5.838018e-06	-4.443624e-09	-4.145847e+01	-2.902263e+02
2.910000e-06	-5.941450e-06	-4.503467e-09	-4.219299e+01	-2.939085e+02
2.920000e-06	-6.042646e-06	-4.560898e-09	-4.291163e+01	-2.974523e+02
2.930000e-06	-6.141595e-06	-4.615280e-09	-4.361431e+01	-3.008569e+02
2.940000e-06	-6.238383e-06	-4.666005e-09	-4.430165e+01	-3.041169e+02
