# Temperatura_=_30.43
# Concentracion g/m^3_=_5000.0
# C_Vs_to_Am_M_A/Vsm_=_65563218390.804596
# pendiente_HvsI_1/m_=_3716.3
# ordenada_HvsI_A/m_=_1297.0
# frecuencia_Hz_=_302513.1123860627

Tiempo_(s)	Campo_(V.s)	Magnetizacion_(V.s)	Campo_(kA/m)	Magnetizacion_(A/m)
0.000000e+00	-7.983089e-06	-5.506085e-09	-5.686745e+01	-3.593876e+02
1.000000e-08	-7.979098e-06	-5.499741e-09	-5.683902e+01	-3.591166e+02
2.000000e-08	-7.972482e-06	-5.494043e-09	-5.679189e+01	-3.587651e+02
3.000000e-08	-7.963119e-06	-5.488587e-09	-5.672520e+01	-3.583556e+02
4.000000e-08	-7.950863e-06	-5.486808e-09	-5.663789e+01	-3.579137e+02
5.000000e-08	-7.935636e-06	-5.483770e-09	-5.652942e+01	-3.574657e+02
6.000000e-08	-7.917709e-06	-5.478354e-09	-5.640171e+01	-3.570345e+02
7.000000e-08	-7.897527e-06	-5.484585e-09	-5.625795e+01	-3.566370e+02
8.000000e-08	-7.874804e-06	-5.472282e-09	-5.609609e+01	-3.562817e+02
9.000000e-08	-7.848972e-06	-5.472964e-09	-5.591207e+01	-3.559671e+02
1.000000e-07	-7.819952e-06	-5.491792e-09	-5.570534e+01	-3.556819e+02
1.100000e-07	-7.788038e-06	-5.468970e-09	-5.547801e+01	-3.554061e+02
1.200000e-07	-7.753386e-06	-5.426634e-09	-5.523116e+01	-3.551131e+02
1.300000e-07	-7.716182e-06	-5.375844e-09	-5.496614e+01	-3.547731e+02
1.400000e-07	-7.676825e-06	-5.360921e-09	-5.468578e+01	-3.543561e+02
1.500000e-07	-7.635255e-06	-5.371181e-09	-5.438966e+01	-3.538356e+02
1.600000e-07	-7.591072e-06	-5.390173e-09	-5.407492e+01	-3.531912e+02
1.700000e-07	-7.544229e-06	-5.449184e-09	-5.374124e+01	-3.524109e+02
1.800000e-07	-7.494531e-06	-5.354681e-09	-5.338721e+01	-3.514921e+02
1.900000e-07	-7.441727e-06	-5.308495e-09	-5.301106e+01	-3.504410e+02
2.000000e-07	-7.386054e-06	-5.287250e-09	-5.261448e+01	-3.492716e+02
2.100000e-07	-7.327636e-06	-5.242698e-09	-5.219834e+01	-3.480034e+02
2.200000e-07	-7.266554e-06	-5.282155e-09	-5.176322e+01	-3.466584e+02
2.300000e-07	-7.202896e-06	-5.230410e-09	-5.130975e+01	-3.452586e+02
2.400000e-07	-7.136488e-06	-5.225900e-09	-5.083670e+01	-3.438230e+02
2.500000e-07	-7.067313e-06	-5.213132e-09	-5.034393e+01	-3.423654e+02
2.600000e-07	-6.995449e-06	-5.200753e-09	-4.983200e+01	-3.408930e+02
2.700000e-07	-6.920849e-06	-5.172005e-09	-4.930059e+01	-3.394065e+02
2.800000e-07	-6.843483e-06	-5.148171e-09	-4.874948e+01	-3.378997e+02
2.900000e-07	-6.763324e-06	-5.134806e-09	-4.817846e+01	-3.363617e+02
3.000000e-07	-6.680653e-06	-5.076118e-09	-4.758956e+01	-3.347783e+02
3.100000e-07	-6.595772e-06	-5.075043e-09	-4.698491e+01	-3.331340e+02
3.200000e-07	-6.508596e-06	-5.059466e-09	-4.636391e+01	-3.314146e+02
3.300000e-07	-6.419073e-06	-5.012231e-09	-4.572620e+01	-3.296081e+02
3.400000e-07	-6.327240e-06	-4.963066e-09	-4.507203e+01	-3.277069e+02
3.500000e-07	-6.233093e-06	-4.937240e-09	-4.440137e+01	-3.257073e+02
3.600000e-07	-6.136597e-06	-4.925177e-09	-4.371398e+01	-3.236101e+02
3.700000e-07	-6.037819e-06	-4.892060e-09	-4.301034e+01	-3.214194e+02
3.800000e-07	-5.936949e-06	-4.866683e-09	-4.229179e+01	-3.191415e+02
3.900000e-07	-5.834012e-06	-4.834675e-09	-4.155852e+01	-3.167838e+02
4.000000e-07	-5.728971e-06	-4.778263e-09	-4.081026e+01	-3.143526e+02
4.100000e-07	-5.621905e-06	-4.713135e-09	-4.004758e+01	-3.118528e+02
4.200000e-07	-5.512884e-06	-4.693692e-09	-3.927097e+01	-3.092866e+02
4.300000e-07	-5.401933e-06	-4.679432e-09	-3.848061e+01	-3.066530e+02
4.400000e-07	-5.288926e-06	-4.626625e-09	-3.767561e+01	-3.039482e+02
4.500000e-07	-5.173763e-06	-4.565609e-09	-3.685525e+01	-3.011661e+02
4.600000e-07	-5.056655e-06	-4.527952e-09	-3.602103e+01	-2.982988e+02
4.700000e-07	-4.937779e-06	-4.485080e-09	-3.517422e+01	-2.953377e+02
4.800000e-07	-4.817123e-06	-4.429622e-09	-3.431473e+01	-2.922746e+02
4.900000e-07	-4.694634e-06	-4.385536e-09	-3.344218e+01	-2.891019e+02
5.000000e-07	-4.570363e-06	-4.339261e-09	-3.255694e+01	-2.858140e+02
5.100000e-07	-4.444516e-06	-4.283345e-09	-3.166046e+01	-2.824066e+02
5.200000e-07	-4.317083e-06	-4.227836e-09	-3.075269e+01	-2.788775e+02
5.300000e-07	-4.188114e-06	-4.180528e-09	-2.983398e+01	-2.752256e+02
5.400000e-07	-4.057634e-06	-4.116910e-09	-2.890451e+01	-2.714510e+02
5.500000e-07	-3.925565e-06	-4.048050e-09	-2.796372e+01	-2.675544e+02
5.600000e-07	-3.792006e-06	-3.987642e-09	-2.701231e+01	-2.635364e+02
5.700000e-07	-3.657020e-06	-3.929152e-09	-2.605074e+01	-2.593973e+02
5.800000e-07	-3.520594e-06	-3.861302e-09	-2.507892e+01	-2.551370e+02
5.900000e-07	-3.382812e-06	-3.794036e-09	-2.409743e+01	-2.507542e+02
6.000000e-07	-3.243604e-06	-3.727511e-09	-2.310578e+01	-2.462472e+02
6.100000e-07	-3.102903e-06	-3.650296e-09	-2.210349e+01	-2.416131e+02
6.200000e-07	-2.960935e-06	-3.574151e-09	-2.109219e+01	-2.368483e+02
6.300000e-07	-2.817870e-06	-3.506564e-09	-2.007306e+01	-2.319480e+02
6.400000e-07	-2.673772e-06	-3.439175e-09	-1.904659e+01	-2.269065e+02
6.500000e-07	-2.528661e-06	-3.356340e-09	-1.801289e+01	-2.217171e+02
6.600000e-07	-2.382611e-06	-3.267637e-09	-1.697250e+01	-2.163716e+02
6.700000e-07	-2.235798e-06	-3.180937e-09	-1.592668e+01	-2.108606e+02
6.800000e-07	-2.088287e-06	-3.094130e-09	-1.487589e+01	-2.051735e+02
6.900000e-07	-1.940100e-06	-3.004816e-09	-1.382028e+01	-1.992988e+02
7.000000e-07	-1.791348e-06	-2.915291e-09	-1.276065e+01	-1.932246e+02
7.100000e-07	-1.642116e-06	-2.821954e-09	-1.169759e+01	-1.869388e+02
7.200000e-07	-1.492380e-06	-2.719163e-09	-1.063096e+01	-1.804304e+02
7.300000e-07	-1.342077e-06	-2.612824e-09	-9.560274e+00	-1.736896e+02
7.400000e-07	-1.191312e-06	-2.504536e-09	-8.486296e+00	-1.667083e+02
7.500000e-07	-1.040181e-06	-2.395786e-09	-7.409720e+00	-1.594807e+02
7.600000e-07	-8.886568e-07	-2.284697e-09	-6.330337e+00	-1.520025e+02
7.700000e-07	-7.367850e-07	-2.170169e-09	-5.248480e+00	-1.442708e+02
7.800000e-07	-5.846181e-07	-2.048352e-09	-4.164521e+00	-1.362825e+02
7.900000e-07	-4.322246e-07	-1.921014e-09	-3.078947e+00	-1.280336e+02
8.000000e-07	-2.796842e-07	-1.789395e-09	-1.992327e+00	-1.195173e+02
8.100000e-07	-1.269967e-07	-1.652758e-09	-9.046596e-01	-1.107226e+02
8.200000e-07	2.577960e-08	-1.511887e-09	1.836407e-01	-1.016337e+02
8.300000e-07	1.785286e-07	-1.364896e-09	1.271747e+00	-9.222946e+01
8.400000e-07	3.312258e-07	-1.214437e-09	2.359483e+00	-8.248386e+01
8.500000e-07	4.838686e-07	-1.059526e-09	3.446833e+00	-7.236770e+01
8.600000e-07	6.363887e-07	-9.011281e-10	4.533309e+00	-6.185103e+01
8.700000e-07	7.887221e-07	-7.365237e-10	5.618454e+00	-5.090644e+01
8.800000e-07	9.407851e-07	-5.639690e-10	6.701673e+00	-3.951301e+01
8.900000e-07	1.092530e-06	-3.841729e-10	7.782623e+00	-2.766040e+01
9.000000e-07	1.243916e-06	-1.988674e-10	8.861025e+00	-1.535265e+01
9.100000e-07	1.394815e-06	-9.288751e-12	9.935951e+00	-2.611320e+00
9.200000e-07	1.545181e-06	1.874705e-10	1.100708e+01	1.052259e+01
9.300000e-07	1.694996e-06	3.912798e-10	1.207429e+01	2.398820e+01
9.400000e-07	1.844233e-06	6.009622e-10	1.313737e+01	3.770600e+01
9.500000e-07	1.992851e-06	8.124748e-10	1.419606e+01	5.158070e+01
9.600000e-07	2.140764e-06	1.023646e-09	1.524971e+01	6.550567e+01
9.700000e-07	2.287840e-06	1.232902e-09	1.629740e+01	7.936839e+01
9.800000e-07	2.434054e-06	1.440281e-09	1.733896e+01	9.305662e+01
9.900000e-07	2.579371e-06	1.643719e-09	1.837412e+01	1.064645e+02
1.000000e-06	2.723710e-06	1.838290e-09	1.940232e+01	1.194981e+02
1.010000e-06	2.867048e-06	2.024577e-09	2.042339e+01	1.320799e+02
1.020000e-06	3.009286e-06	2.202429e-09	2.143662e+01	1.441520e+02
1.030000e-06	3.150361e-06	2.374787e-09	2.244156e+01	1.556769e+02
1.040000e-06	3.290103e-06	2.540720e-09	2.343702e+01	1.666375e+02
1.050000e-06	3.428468e-06	2.699368e-09	2.442266e+01	1.770345e+02
1.060000e-06	3.565515e-06	2.850582e-09	2.539891e+01	1.868833e+02
1.070000e-06	3.701185e-06	2.995099e-09	2.636535e+01	1.962099e+02
1.080000e-06	3.835517e-06	3.130378e-09	2.732227e+01	2.050463e+02
1.090000e-06	3.968538e-06	3.255969e-09	2.826984e+01	2.134265e+02
1.100000e-06	4.100101e-06	3.377238e-09	2.920703e+01	2.213831e+02
1.110000e-06	4.230128e-06	3.493625e-09	3.013327e+01	2.289451e+02
1.120000e-06	4.358691e-06	3.603562e-09	3.104909e+01	2.361364e+02
1.130000e-06	4.485756e-06	3.704721e-09	3.195424e+01	2.429762e+02
1.140000e-06	4.611325e-06	3.800919e-09	3.284872e+01	2.494796e+02
1.150000e-06	4.735317e-06	3.894661e-09	3.373198e+01	2.556596e+02
1.160000e-06	4.857624e-06	3.984082e-09	3.460323e+01	2.615286e+02
1.170000e-06	4.978261e-06	4.066969e-09	3.546259e+01	2.671004e+02
1.180000e-06	5.097073e-06	4.143737e-09	3.630895e+01	2.723913e+02
1.190000e-06	5.213940e-06	4.217941e-09	3.714145e+01	2.774204e+02
1.200000e-06	5.328838e-06	4.291629e-09	3.795992e+01	2.822097e+02
1.210000e-06	5.441714e-06	4.363447e-09	3.876399e+01	2.867826e+02
1.220000e-06	5.552508e-06	4.432076e-09	3.955323e+01	2.911624e+02
1.230000e-06	5.661304e-06	4.496553e-09	4.032824e+01	2.953704e+02
1.240000e-06	5.768119e-06	4.557943e-09	4.108913e+01	2.994237e+02
1.250000e-06	5.872802e-06	4.617122e-09	4.183485e+01	3.033341e+02
1.260000e-06	5.975380e-06	4.673774e-09	4.256555e+01	3.071069e+02
1.270000e-06	6.075786e-06	4.727232e-09	4.328080e+01	3.107412e+02
1.280000e-06	6.173855e-06	4.776419e-09	4.397939e+01	3.142304e+02
1.290000e-06	6.269617e-06	4.822464e-09	4.466155e+01	3.175646e+02
1.300000e-06	6.363138e-06	4.868315e-09	4.532775e+01	3.207321e+02
1.310000e-06	6.454393e-06	4.914290e-09	4.597780e+01	3.237222e+02
1.320000e-06	6.543349e-06	4.957172e-09	4.661148e+01	3.265277e+02
1.330000e-06	6.629958e-06	4.995501e-09	4.722844e+01	3.291461e+02
1.340000e-06	6.714271e-06	5.032613e-09	4.782904e+01	3.315815e+02
1.350000e-06	6.796278e-06	5.067677e-09	4.841322e+01	3.338437e+02
1.360000e-06	6.875807e-06	5.099065e-09	4.897974e+01	3.359483e+02
1.370000e-06	6.952743e-06	5.128537e-09	4.952779e+01	3.379145e+02
1.380000e-06	7.027038e-06	5.157167e-09	5.005703e+01	3.397630e+02
1.390000e-06	7.098706e-06	5.185014e-09	5.056756e+01	3.415134e+02
1.400000e-06	7.167859e-06	5.210229e-09	5.106017e+01	3.431822e+02
1.410000e-06	7.234496e-06	5.235433e-09	5.153486e+01	3.447808e+02
1.420000e-06	7.298506e-06	5.261622e-09	5.199083e+01	3.463144e+02
1.430000e-06	7.360022e-06	5.286236e-09	5.242904e+01	3.477823e+02
1.440000e-06	7.419027e-06	5.306945e-09	5.284936e+01	3.491782e+02
1.450000e-06	7.475351e-06	5.323683e-09	5.325058e+01	3.504924e+02
1.460000e-06	7.528897e-06	5.338924e-09	5.363202e+01	3.517136e+02
1.470000e-06	7.579481e-06	5.353684e-09	5.399235e+01	3.528317e+02
1.480000e-06	7.627067e-06	5.369439e-09	5.433133e+01	3.538397e+02
1.490000e-06	7.671860e-06	5.385781e-09	5.465042e+01	3.547357e+02
1.500000e-06	7.713984e-06	5.399890e-09	5.495049e+01	3.555233e+02
1.510000e-06	7.753322e-06	5.411588e-09	5.523070e+01	3.562120e+02
1.520000e-06	7.789920e-06	5.422791e-09	5.549141e+01	3.568159e+02
1.530000e-06	7.823824e-06	5.432734e-09	5.573293e+01	3.573517e+02
1.540000e-06	7.854917e-06	5.441441e-09	5.595442e+01	3.578366e+02
1.550000e-06	7.883214e-06	5.450771e-09	5.615599e+01	3.582856e+02
1.560000e-06	7.908620e-06	5.459341e-09	5.633697e+01	3.587093e+02
1.570000e-06	7.931096e-06	5.465504e-09	5.649708e+01	3.591124e+02
1.580000e-06	7.950851e-06	5.470525e-09	5.663781e+01	3.594924e+02
1.590000e-06	7.967855e-06	5.475605e-09	5.675893e+01	3.598405e+02
1.600000e-06	7.981856e-06	5.479237e-09	5.685866e+01	3.601429e+02
1.610000e-06	7.992722e-06	5.481683e-09	5.693607e+01	3.603825e+02
1.620000e-06	8.000528e-06	5.483607e-09	5.699167e+01	3.605420e+02
1.630000e-06	8.005462e-06	5.485253e-09	5.702682e+01	3.606068e+02
1.640000e-06	8.007522e-06	5.486745e-09	5.704150e+01	3.605676e+02
1.650000e-06	8.006778e-06	5.485180e-09	5.703620e+01	3.604223e+02
1.660000e-06	8.003445e-06	5.483792e-09	5.701245e+01	3.601771e+02
1.670000e-06	7.997441e-06	5.477531e-09	5.696969e+01	3.598460e+02
1.680000e-06	7.988756e-06	5.471967e-09	5.690782e+01	3.594500e+02
1.690000e-06	7.977454e-06	5.468684e-09	5.682731e+01	3.590142e+02
1.700000e-06	7.963305e-06	5.465182e-09	5.672652e+01	3.585648e+02
1.710000e-06	7.946464e-06	5.457337e-09	5.660655e+01	3.581263e+02
1.720000e-06	7.927349e-06	5.429738e-09	5.647039e+01	3.577174e+02
1.730000e-06	7.905798e-06	5.437343e-09	5.631687e+01	3.573492e+02
1.740000e-06	7.881063e-06	5.404077e-09	5.614067e+01	3.570232e+02
1.750000e-06	7.852661e-06	5.380823e-09	5.593835e+01	3.567308e+02
1.760000e-06	7.820871e-06	5.392492e-09	5.571189e+01	3.564542e+02
1.770000e-06	7.786428e-06	5.409681e-09	5.546654e+01	3.561686e+02
1.780000e-06	7.749749e-06	5.405777e-09	5.520525e+01	3.558447e+02
1.790000e-06	7.710842e-06	5.434187e-09	5.492810e+01	3.554521e+02
1.800000e-06	7.669760e-06	5.469105e-09	5.463546e+01	3.549630e+02
1.810000e-06	7.626300e-06	5.333918e-09	5.432587e+01	3.543551e+02
1.820000e-06	7.580284e-06	5.379305e-09	5.399807e+01	3.536138e+02
1.830000e-06	7.531517e-06	5.378754e-09	5.365068e+01	3.527338e+02
1.840000e-06	7.479749e-06	5.387057e-09	5.328191e+01	3.517189e+02
1.850000e-06	7.425058e-06	5.439516e-09	5.289232e+01	3.505810e+02
1.860000e-06	7.367598e-06	5.306931e-09	5.248301e+01	3.493383e+02
1.870000e-06	7.307500e-06	5.305218e-09	5.205490e+01	3.480124e+02
1.880000e-06	7.244680e-06	5.227886e-09	5.160740e+01	3.466257e+02
1.890000e-06	7.179076e-06	5.218943e-09	5.114007e+01	3.451981e+02
1.900000e-06	7.110777e-06	5.266666e-09	5.065355e+01	3.437452e+02
1.910000e-06	7.039604e-06	5.234752e-09	5.014654e+01	3.422762e+02
1.920000e-06	6.965646e-06	5.208273e-09	4.961971e+01	3.407935e+02
1.930000e-06	6.888937e-06	5.123629e-09	4.907327e+01	3.392930e+02
1.940000e-06	6.809480e-06	5.168425e-09	4.850726e+01	3.377648e+02
1.950000e-06	6.727574e-06	5.141918e-09	4.792380e+01	3.361954e+02
1.960000e-06	6.643266e-06	5.097277e-09	4.732323e+01	3.345695e+02
1.970000e-06	6.556480e-06	5.081272e-09	4.670502e+01	3.328724e+02
1.980000e-06	6.467232e-06	5.026983e-09	4.606926e+01	3.310912e+02
1.990000e-06	6.375740e-06	5.017126e-09	4.541752e+01	3.292171e+02
2.000000e-06	6.282040e-06	4.971483e-09	4.475005e+01	3.272452e+02
2.010000e-06	6.185994e-06	4.981760e-09	4.406586e+01	3.251751e+02
2.020000e-06	6.087710e-06	4.924797e-09	4.336573e+01	3.230100e+02
2.030000e-06	5.987326e-06	4.859195e-09	4.265065e+01	3.207558e+02
2.040000e-06	5.884830e-06	4.830525e-09	4.192052e+01	3.184197e+02
2.050000e-06	5.780213e-06	4.842980e-09	4.117528e+01	3.160084e+02
2.060000e-06	5.673639e-06	4.824987e-09	4.041611e+01	3.135274e+02
2.070000e-06	5.565222e-06	4.745938e-09	3.964380e+01	3.109795e+02
2.080000e-06	5.454823e-06	4.692239e-09	3.885737e+01	3.083649e+02
2.090000e-06	5.342387e-06	4.637235e-09	3.805644e+01	3.056805e+02
2.100000e-06	5.227932e-06	4.611916e-09	3.724112e+01	3.029208e+02
2.110000e-06	5.111426e-06	4.595029e-09	3.641119e+01	3.000781e+02
2.120000e-06	4.992929e-06	4.579215e-09	3.556708e+01	2.971442e+02
2.130000e-06	4.872501e-06	4.505257e-09	3.470921e+01	2.941105e+02
2.140000e-06	4.750263e-06	4.426248e-09	3.383845e+01	2.909693e+02
2.150000e-06	4.626331e-06	4.377717e-09	3.295562e+01	2.877143e+02
2.160000e-06	4.500715e-06	4.351866e-09	3.206079e+01	2.843409e+02
2.170000e-06	4.373425e-06	4.307930e-09	3.115405e+01	2.808461e+02
2.180000e-06	4.244527e-06	4.243232e-09	3.023584e+01	2.772288e+02
2.190000e-06	4.114062e-06	4.178366e-09	2.930648e+01	2.734887e+02
2.200000e-06	3.982071e-06	4.111341e-09	2.836624e+01	2.696264e+02
2.210000e-06	3.848672e-06	4.064617e-09	2.741598e+01	2.656425e+02
2.220000e-06	3.713800e-06	4.023161e-09	2.645522e+01	2.615375e+02
2.230000e-06	3.577478e-06	3.964420e-09	2.548412e+01	2.573114e+02
2.240000e-06	3.439861e-06	3.878671e-09	2.450381e+01	2.529633e+02
2.250000e-06	3.300935e-06	3.802278e-09	2.351418e+01	2.484915e+02
2.260000e-06	3.160721e-06	3.741967e-09	2.251536e+01	2.438935e+02
2.270000e-06	3.019280e-06	3.678766e-09	2.150781e+01	2.391660e+02
2.280000e-06	2.876643e-06	3.598342e-09	2.049174e+01	2.343044e+02
2.290000e-06	2.732864e-06	3.511453e-09	1.946752e+01	2.293034e+02
2.300000e-06	2.588100e-06	3.424779e-09	1.843630e+01	2.241566e+02
2.310000e-06	2.442528e-06	3.350457e-09	1.739932e+01	2.188560e+02
2.320000e-06	2.296184e-06	3.289314e-09	1.635684e+01	2.133928e+02
2.330000e-06	2.149040e-06	3.215860e-09	1.530866e+01	2.077567e+02
2.340000e-06	2.001164e-06	3.113751e-09	1.425527e+01	2.019363e+02
2.350000e-06	1.852612e-06	3.000644e-09	1.319706e+01	1.959197e+02
2.360000e-06	1.703416e-06	2.902516e-09	1.213427e+01	1.896951e+02
2.370000e-06	1.553699e-06	2.816412e-09	1.106776e+01	1.832509e+02
2.380000e-06	1.403587e-06	2.725383e-09	9.998437e+00	1.765768e+02
2.390000e-06	1.253051e-06	2.618323e-09	8.926097e+00	1.696644e+02
2.400000e-06	1.102033e-06	2.498715e-09	7.850323e+00	1.625072e+02
2.410000e-06	9.506011e-07	2.378897e-09	6.771597e+00	1.551004e+02
2.420000e-06	7.988349e-07	2.267256e-09	5.690492e+00	1.474409e+02
2.430000e-06	6.467914e-07	2.159355e-09	4.607412e+00	1.395258e+02
2.440000e-06	4.944686e-07	2.039460e-09	3.522342e+00	1.313514e+02
2.450000e-06	3.418895e-07	1.903246e-09	2.435446e+00	1.229118e+02
2.460000e-06	1.891118e-07	1.762198e-09	1.347136e+00	1.141976e+02
2.470000e-06	3.623239e-08	1.624121e-09	2.581011e-01	1.051942e+02
2.480000e-06	-1.166439e-07	1.486646e-09	-8.309118e-01	9.588196e+01
2.490000e-06	-2.694765e-07	1.342727e-09	-1.919613e+00	8.623625e+01
2.500000e-06	-4.222289e-07	1.188414e-09	-3.007743e+00	7.622854e+01
2.510000e-06	-5.748474e-07	1.026034e-09	-4.094920e+00	6.582876e+01
2.520000e-06	-7.272597e-07	8.599409e-10	-5.180627e+00	5.500842e+01
2.530000e-06	-8.794016e-07	6.921776e-10	-6.264408e+00	4.374431e+01
2.540000e-06	-1.031192e-06	5.177125e-10	-7.345685e+00	3.202266e+01
2.550000e-06	-1.182515e-06	3.288453e-10	-8.423633e+00	1.984305e+01
2.560000e-06	-1.333356e-06	1.286283e-10	-9.498147e+00	7.221778e+00
2.570000e-06	-1.483742e-06	-7.365987e-11	-1.056942e+01	-5.805826e+00
2.580000e-06	-1.633642e-06	-2.770181e-10	-1.163723e+01	-1.918452e+01
2.590000e-06	-1.783006e-06	-4.849404e-10	-1.270123e+01	-3.283988e+01
2.600000e-06	-1.931717e-06	-6.984262e-10	-1.376056e+01	-4.668074e+01
2.610000e-06	-2.079713e-06	-9.153585e-10	-1.481481e+01	-6.060320e+01
2.620000e-06	-2.226951e-06	-1.132439e-09	-1.586366e+01	-7.449580e+01
2.630000e-06	-2.373304e-06	-1.345804e-09	-1.690621e+01	-8.824560e+01
2.640000e-06	-2.518765e-06	-1.552694e-09	-1.794239e+01	-1.017443e+02
2.650000e-06	-2.663297e-06	-1.755444e-09	-1.897197e+01	-1.148940e+02
2.660000e-06	-2.806774e-06	-1.953544e-09	-1.999402e+01	-1.276122e+02
2.670000e-06	-2.949081e-06	-2.143035e-09	-2.100775e+01	-1.398352e+02
2.680000e-06	-3.090212e-06	-2.319821e-09	-2.201309e+01	-1.515196e+02
2.690000e-06	-3.230152e-06	-2.485334e-09	-2.300995e+01	-1.626426e+02
2.700000e-06	-3.368836e-06	-2.642877e-09	-2.399787e+01	-1.732001e+02
2.710000e-06	-3.506291e-06	-2.794419e-09	-2.497703e+01	-1.832038e+02
2.720000e-06	-3.642441e-06	-2.941849e-09	-2.594689e+01	-1.926770e+02
2.730000e-06	-3.777218e-06	-3.083956e-09	-2.690697e+01	-2.016505e+02
2.740000e-06	-3.910626e-06	-3.217564e-09	-2.785730e+01	-2.101581e+02
2.750000e-06	-4.042648e-06	-3.341826e-09	-2.879776e+01	-2.182331e+02
2.760000e-06	-4.173288e-06	-3.459530e-09	-2.972837e+01	-2.259057e+02
2.770000e-06	-4.302548e-06	-3.572387e-09	-3.064916e+01	-2.332013e+02
2.780000e-06	-4.430270e-06	-3.679397e-09	-3.155898e+01	-2.401403e+02
2.790000e-06	-4.556428e-06	-3.780900e-09	-3.245767e+01	-2.467389e+02
2.800000e-06	-4.681078e-06	-3.875330e-09	-3.334561e+01	-2.530106e+02
2.810000e-06	-4.804064e-06	-3.962304e-09	-3.422170e+01	-2.589677e+02
2.820000e-06	-4.925307e-06	-4.046544e-09	-3.508537e+01	-2.646234e+02
2.830000e-06	-5.044663e-06	-4.128965e-09	-3.593560e+01	-2.699932e+02
2.840000e-06	-5.162029e-06	-4.208857e-09	-3.677166e+01	-2.750955e+02
2.850000e-06	-5.277301e-06	-4.283617e-09	-3.759280e+01	-2.799514e+02
2.860000e-06	-5.390331e-06	-4.354060e-09	-3.839796e+01	-2.845843e+02
2.870000e-06	-5.501255e-06	-4.423856e-09	-3.918814e+01	-2.890175e+02
2.880000e-06	-5.610252e-06	-4.491252e-09	-3.996457e+01	-2.932731e+02
2.890000e-06	-5.717413e-06	-4.557558e-09	-4.072793e+01	-2.973697e+02
2.900000e-06	-5.822612e-06	-4.621164e-09	-4.147732e+01	-3.013206e+02
2.910000e-06	-5.925608e-06	-4.679244e-09	-4.221100e+01	-3.051331e+02
2.920000e-06	-6.026387e-06	-4.733713e-09	-4.292890e+01	-3.088078e+02
2.930000e-06	-6.125032e-06	-4.787010e-09	-4.363160e+01	-3.123399e+02
2.940000e-06	-6.221511e-06	-4.840922e-09	-4.431887e+01	-3.157201e+02
