# Temperatura_=_36.21
# Concentracion g/m^3_=_5000.0
# C_Vs_to_Am_M_A/Vsm_=_65563218390.804596
# pendiente_HvsI_1/m_=_3716.3
# ordenada_HvsI_A/m_=_1297.0
# frecuencia_Hz_=_302508.2013902996

Tiempo_(s)	Campo_(V.s)	Magnetizacion_(V.s)	Campo_(kA/m)	Magnetizacion_(A/m)
0.000000e+00	-8.003262e-06	-5.255398e-09	-5.686267e+01	-3.438865e+02
1.000000e-08	-7.998759e-06	-5.253680e-09	-5.683068e+01	-3.436525e+02
2.000000e-08	-7.991728e-06	-5.249218e-09	-5.678072e+01	-3.433516e+02
3.000000e-08	-7.981970e-06	-5.244956e-09	-5.671139e+01	-3.429977e+02
4.000000e-08	-7.969344e-06	-5.239974e-09	-5.662169e+01	-3.426067e+02
5.000000e-08	-7.953739e-06	-5.230945e-09	-5.651081e+01	-3.421941e+02
6.000000e-08	-7.935424e-06	-5.218993e-09	-5.638069e+01	-3.417737e+02
7.000000e-08	-7.914834e-06	-5.209412e-09	-5.623440e+01	-3.413556e+02
8.000000e-08	-7.891647e-06	-5.257307e-09	-5.606966e+01	-3.409449e+02
9.000000e-08	-7.865280e-06	-5.284373e-09	-5.588232e+01	-3.405414e+02
1.000000e-07	-7.835675e-06	-5.237826e-09	-5.567198e+01	-3.401397e+02
1.100000e-07	-7.803211e-06	-5.202840e-09	-5.544133e+01	-3.397294e+02
1.200000e-07	-7.768055e-06	-5.188272e-09	-5.519154e+01	-3.392970e+02
1.300000e-07	-7.730389e-06	-5.152524e-09	-5.492393e+01	-3.388267e+02
1.400000e-07	-7.690554e-06	-5.090883e-09	-5.464090e+01	-3.383029e+02
1.500000e-07	-7.648478e-06	-5.159587e-09	-5.434195e+01	-3.377111e+02
1.600000e-07	-7.603745e-06	-5.177115e-09	-5.402413e+01	-3.370397e+02
1.700000e-07	-7.556330e-06	-5.084950e-09	-5.368725e+01	-3.362809e+02
1.800000e-07	-7.506071e-06	-5.155027e-09	-5.333016e+01	-3.354307e+02
1.900000e-07	-7.452712e-06	-5.114362e-09	-5.295105e+01	-3.344893e+02
2.000000e-07	-7.396507e-06	-5.035905e-09	-5.255172e+01	-3.334604e+02
2.100000e-07	-7.337564e-06	-5.017656e-09	-5.213293e+01	-3.323499e+02
2.200000e-07	-7.275931e-06	-4.983901e-09	-5.169503e+01	-3.311655e+02
2.300000e-07	-7.211684e-06	-5.011304e-09	-5.123856e+01	-3.299148e+02
2.400000e-07	-7.144720e-06	-4.978538e-09	-5.076278e+01	-3.286045e+02
2.500000e-07	-7.075036e-06	-4.986497e-09	-5.026768e+01	-3.272401e+02
2.600000e-07	-7.002605e-06	-4.976223e-09	-4.975307e+01	-3.258246e+02
2.700000e-07	-6.927364e-06	-4.932554e-09	-4.921848e+01	-3.243590e+02
2.800000e-07	-6.849371e-06	-4.892488e-09	-4.866435e+01	-3.228421e+02
2.900000e-07	-6.768643e-06	-4.884179e-09	-4.809078e+01	-3.212711e+02
3.000000e-07	-6.685421e-06	-4.892715e-09	-4.749949e+01	-3.196422e+02
3.100000e-07	-6.599909e-06	-4.826549e-09	-4.689193e+01	-3.179510e+02
3.200000e-07	-6.512132e-06	-4.801380e-09	-4.626829e+01	-3.161933e+02
3.300000e-07	-6.422003e-06	-4.790032e-09	-4.562793e+01	-3.143656e+02
3.400000e-07	-6.329521e-06	-4.750560e-09	-4.497085e+01	-3.124650e+02
3.500000e-07	-6.234779e-06	-4.705994e-09	-4.429771e+01	-3.104897e+02
3.600000e-07	-6.137737e-06	-4.682914e-09	-4.360824e+01	-3.084389e+02
3.700000e-07	-6.038409e-06	-4.665829e-09	-4.290252e+01	-3.063121e+02
3.800000e-07	-5.936896e-06	-4.616719e-09	-4.218128e+01	-3.041096e+02
3.900000e-07	-5.833314e-06	-4.587945e-09	-4.144533e+01	-3.018314e+02
4.000000e-07	-5.727667e-06	-4.567072e-09	-4.069471e+01	-2.994777e+02
4.100000e-07	-5.620003e-06	-4.529382e-09	-3.992977e+01	-2.970482e+02
4.200000e-07	-5.510386e-06	-4.468524e-09	-3.915094e+01	-2.945421e+02
4.300000e-07	-5.398796e-06	-4.429734e-09	-3.835811e+01	-2.919582e+02
4.400000e-07	-5.285179e-06	-4.405822e-09	-3.755086e+01	-2.892948e+02
4.500000e-07	-5.169488e-06	-4.367387e-09	-3.672889e+01	-2.865498e+02
4.600000e-07	-5.051786e-06	-4.318813e-09	-3.589262e+01	-2.837205e+02
4.700000e-07	-4.932229e-06	-4.275111e-09	-3.504318e+01	-2.808040e+02
4.800000e-07	-4.810941e-06	-4.226280e-09	-3.418143e+01	-2.777972e+02
4.900000e-07	-4.687857e-06	-4.167621e-09	-3.330693e+01	-2.746962e+02
5.000000e-07	-4.563032e-06	-4.120229e-09	-3.242006e+01	-2.714972e+02
5.100000e-07	-4.436612e-06	-4.074082e-09	-3.152185e+01	-2.681958e+02
5.200000e-07	-4.308591e-06	-4.023760e-09	-3.061227e+01	-2.647877e+02
5.300000e-07	-4.179000e-06	-3.965890e-09	-2.969153e+01	-2.612685e+02
5.400000e-07	-4.047856e-06	-3.912676e-09	-2.875976e+01	-2.576337e+02
5.500000e-07	-3.915178e-06	-3.857543e-09	-2.781710e+01	-2.538796e+02
5.600000e-07	-3.780916e-06	-3.798414e-09	-2.686317e+01	-2.500029e+02
5.700000e-07	-3.645234e-06	-3.735038e-09	-2.589916e+01	-2.460014e+02
5.800000e-07	-3.508279e-06	-3.669922e-09	-2.492610e+01	-2.418735e+02
5.900000e-07	-3.369942e-06	-3.603558e-09	-2.394323e+01	-2.376185e+02
6.000000e-07	-3.230081e-06	-3.535440e-09	-2.294952e+01	-2.332361e+02
6.100000e-07	-3.088808e-06	-3.468830e-09	-2.194579e+01	-2.287264e+02
6.200000e-07	-2.946358e-06	-3.397018e-09	-2.093369e+01	-2.240885e+02
6.300000e-07	-2.802741e-06	-3.324546e-09	-1.991330e+01	-2.193208e+02
6.400000e-07	-2.658041e-06	-3.251299e-09	-1.888522e+01	-2.144199e+02
6.500000e-07	-2.512362e-06	-3.177933e-09	-1.785017e+01	-2.093802e+02
6.600000e-07	-2.365846e-06	-3.096544e-09	-1.680919e+01	-2.041940e+02
6.700000e-07	-2.218558e-06	-3.011676e-09	-1.576271e+01	-1.988513e+02
6.800000e-07	-2.070538e-06	-2.927903e-09	-1.471104e+01	-1.933402e+02
6.900000e-07	-1.921942e-06	-2.838454e-09	-1.365528e+01	-1.876477e+02
7.000000e-07	-1.772765e-06	-2.748050e-09	-1.259539e+01	-1.817606e+02
7.100000e-07	-1.623012e-06	-2.656004e-09	-1.153140e+01	-1.756666e+02
7.200000e-07	-1.472691e-06	-2.562372e-09	-1.046338e+01	-1.693548e+02
7.300000e-07	-1.321830e-06	-2.459893e-09	-9.391520e+00	-1.628166e+02
7.400000e-07	-1.170494e-06	-2.352742e-09	-8.316289e+00	-1.560459e+02
7.500000e-07	-1.018742e-06	-2.249134e-09	-7.238100e+00	-1.490388e+02
7.600000e-07	-8.667100e-07	-2.145453e-09	-6.157920e+00	-1.417928e+02
7.700000e-07	-7.144831e-07	-2.032942e-09	-5.076357e+00	-1.343055e+02
7.800000e-07	-5.620382e-07	-1.912461e-09	-3.993246e+00	-1.265732e+02
7.900000e-07	-4.093312e-07	-1.790020e-09	-2.908272e+00	-1.185889e+02
8.000000e-07	-2.565124e-07	-1.662051e-09	-1.822505e+00	-1.103411e+02
8.100000e-07	-1.036373e-07	-1.528317e-09	-7.363365e-01	-1.018123e+02
8.200000e-07	4.935930e-08	-1.391208e-09	3.506947e-01	-9.297927e+01
8.300000e-07	2.023451e-07	-1.250589e-09	1.437649e+00	-8.381289e+01
8.400000e-07	3.552776e-07	-1.103180e-09	2.524225e+00	-7.428025e+01
8.500000e-07	5.081138e-07	-9.509302e-10	3.610116e+00	-6.434711e+01
8.600000e-07	6.607775e-07	-7.928882e-10	4.694782e+00	-5.398135e+01
8.700000e-07	8.132890e-07	-6.277889e-10	5.778367e+00	-4.315708e+01
8.800000e-07	9.656147e-07	-4.550404e-10	6.860632e+00	-3.185887e+01
8.900000e-07	1.117692e-06	-2.762304e-10	7.941134e+00	-2.008576e+01
9.000000e-07	1.269439e-06	-9.403588e-11	9.019287e+00	-7.854516e+00
9.100000e-07	1.420680e-06	9.370264e-11	1.009384e+01	4.798222e+00
9.200000e-07	1.571345e-06	2.868515e-10	1.116431e+01	1.781529e+01
9.300000e-07	1.721413e-06	4.871029e-10	1.223053e+01	3.111999e+01
9.400000e-07	1.870839e-06	6.918964e-10	1.329219e+01	4.461872e+01
9.500000e-07	2.019668e-06	8.987530e-10	1.434961e+01	5.820512e+01
9.600000e-07	2.167876e-06	1.104861e-09	1.540262e+01	7.176535e+01
9.700000e-07	2.315326e-06	1.309677e-09	1.645024e+01	8.518411e+01
9.800000e-07	2.461797e-06	1.512888e-09	1.749091e+01	9.835078e+01
9.900000e-07	2.607277e-06	1.707131e-09	1.852454e+01	1.111651e+02
1.000000e-06	2.751869e-06	1.889510e-09	1.955185e+01	1.235422e+02
1.010000e-06	2.895401e-06	2.061476e-09	2.057164e+01	1.354156e+02
1.020000e-06	3.037728e-06	2.228951e-09	2.158287e+01	1.467398e+02
1.030000e-06	3.178928e-06	2.391744e-09	2.258608e+01	1.574899e+02
1.040000e-06	3.318901e-06	2.547797e-09	2.358058e+01	1.676604e+02
1.050000e-06	3.457400e-06	2.696264e-09	2.456461e+01	1.772626e+02
1.060000e-06	3.594565e-06	2.836698e-09	2.553916e+01	1.863207e+02
1.070000e-06	3.730423e-06	2.970964e-09	2.650442e+01	1.948680e+02
1.080000e-06	3.864823e-06	3.096623e-09	2.745932e+01	2.029425e+02
1.090000e-06	3.997915e-06	3.212487e-09	2.840493e+01	2.105830e+02
1.100000e-06	4.129599e-06	3.319828e-09	2.934054e+01	2.178266e+02
1.110000e-06	4.259699e-06	3.423655e-09	3.026489e+01	2.247060e+02
1.120000e-06	4.388354e-06	3.523626e-09	3.117898e+01	2.312493e+02
1.130000e-06	4.515521e-06	3.618361e-09	3.208249e+01	2.374792e+02
1.140000e-06	4.641138e-06	3.707508e-09	3.297500e+01	2.434140e+02
1.150000e-06	4.765261e-06	3.791713e-09	3.385688e+01	2.490692e+02
1.160000e-06	4.887674e-06	3.873036e-09	3.472662e+01	2.544582e+02
1.170000e-06	5.008305e-06	3.949518e-09	3.558370e+01	2.595938e+02
1.180000e-06	5.127167e-06	4.021718e-09	3.642820e+01	2.644895e+02
1.190000e-06	5.244140e-06	4.091750e-09	3.725929e+01	2.691594e+02
1.200000e-06	5.359033e-06	4.159105e-09	3.807559e+01	2.736185e+02
1.210000e-06	5.471836e-06	4.223826e-09	3.887705e+01	2.778816e+02
1.220000e-06	5.582639e-06	4.287524e-09	3.966429e+01	2.819630e+02
1.230000e-06	5.691512e-06	4.349644e-09	4.043783e+01	2.858752e+02
1.240000e-06	5.798388e-06	4.407549e-09	4.119718e+01	2.896279e+02
1.250000e-06	5.903076e-06	4.461942e-09	4.194098e+01	2.932273e+02
1.260000e-06	6.005554e-06	4.513532e-09	4.266908e+01	2.966764e+02
1.270000e-06	6.105861e-06	4.559218e-09	4.338176e+01	2.999746e+02
1.280000e-06	6.203884e-06	4.602328e-09	4.407820e+01	3.031193e+02
1.290000e-06	6.299530e-06	4.645300e-09	4.475777e+01	3.061066e+02
1.300000e-06	6.392943e-06	4.687150e-09	4.542146e+01	3.089329e+02
1.310000e-06	6.484113e-06	4.726614e-09	4.606922e+01	3.115961e+02
1.320000e-06	6.572916e-06	4.763411e-09	4.670015e+01	3.140971e+02
1.330000e-06	6.659324e-06	4.799466e-09	4.731408e+01	3.164400e+02
1.340000e-06	6.743501e-06	4.833634e-09	4.791215e+01	3.186330e+02
1.350000e-06	6.825315e-06	4.864044e-09	4.849343e+01	3.206870e+02
1.360000e-06	6.904589e-06	4.892908e-09	4.905667e+01	3.226158e+02
1.370000e-06	6.981401e-06	4.920558e-09	4.960241e+01	3.244337e+02
1.380000e-06	7.055533e-06	4.945914e-09	5.012912e+01	3.261547e+02
1.390000e-06	7.126977e-06	4.970369e-09	5.063672e+01	3.277909e+02
1.400000e-06	7.196008e-06	4.994820e-09	5.112718e+01	3.293510e+02
1.410000e-06	7.262484e-06	5.019897e-09	5.159949e+01	3.308398e+02
1.420000e-06	7.326262e-06	5.044349e-09	5.205263e+01	3.322583e+02
1.430000e-06	7.387537e-06	5.066434e-09	5.248798e+01	3.336034e+02
1.440000e-06	7.446276e-06	5.085878e-09	5.290532e+01	3.348697e+02
1.450000e-06	7.502346e-06	5.101951e-09	5.330369e+01	3.360505e+02
1.460000e-06	7.555710e-06	5.116492e-09	5.368284e+01	3.371393e+02
1.470000e-06	7.606041e-06	5.129639e-09	5.404044e+01	3.381315e+02
1.480000e-06	7.653344e-06	5.142208e-09	5.437653e+01	3.390253e+02
1.490000e-06	7.697976e-06	5.156333e-09	5.469363e+01	3.398229e+02
1.500000e-06	7.739791e-06	5.170095e-09	5.499073e+01	3.405302e+02
1.510000e-06	7.778717e-06	5.182082e-09	5.526729e+01	3.411567e+02
1.520000e-06	7.815071e-06	5.191469e-09	5.552559e+01	3.417140e+02
1.530000e-06	7.848679e-06	5.199815e-09	5.576437e+01	3.422147e+02
1.540000e-06	7.879411e-06	5.208661e-09	5.598272e+01	3.426705e+02
1.550000e-06	7.907485e-06	5.217020e-09	5.618218e+01	3.430910e+02
1.560000e-06	7.932656e-06	5.223936e-09	5.636102e+01	3.434819e+02
1.570000e-06	7.954851e-06	5.229598e-09	5.651872e+01	3.438447e+02
1.580000e-06	7.974330e-06	5.235220e-09	5.665711e+01	3.441764e+02
1.590000e-06	7.990921e-06	5.240665e-09	5.677499e+01	3.444697e+02
1.600000e-06	8.004449e-06	5.244761e-09	5.687111e+01	3.447148e+02
1.610000e-06	8.014842e-06	5.248279e-09	5.694495e+01	3.449002e+02
1.620000e-06	8.022162e-06	5.251640e-09	5.699696e+01	3.450151e+02
1.630000e-06	8.026703e-06	5.254656e-09	5.702922e+01	3.450507e+02
1.640000e-06	8.028432e-06	5.257654e-09	5.704150e+01	3.450021e+02
1.650000e-06	8.027269e-06	5.255242e-09	5.703324e+01	3.448688e+02
1.660000e-06	8.023517e-06	5.248531e-09	5.700658e+01	3.446557e+02
1.670000e-06	8.017139e-06	5.244708e-09	5.696127e+01	3.443721e+02
1.680000e-06	8.008053e-06	5.241731e-09	5.689671e+01	3.440313e+02
1.690000e-06	7.996279e-06	5.238877e-09	5.681306e+01	3.436488e+02
1.700000e-06	7.981623e-06	5.238469e-09	5.670893e+01	3.432404e+02
1.710000e-06	7.964365e-06	5.241920e-09	5.658631e+01	3.428206e+02
1.720000e-06	7.944909e-06	5.227707e-09	5.644808e+01	3.424006e+02
1.730000e-06	7.922895e-06	5.139846e-09	5.629167e+01	3.419871e+02
1.740000e-06	7.897517e-06	5.131718e-09	5.611136e+01	3.415815e+02
1.750000e-06	7.868447e-06	5.169290e-09	5.590482e+01	3.411796e+02
1.760000e-06	7.836111e-06	5.160433e-09	5.567507e+01	3.407726e+02
1.770000e-06	7.801251e-06	5.164927e-09	5.542740e+01	3.403476e+02
1.780000e-06	7.764055e-06	5.244464e-09	5.516312e+01	3.398894e+02
1.790000e-06	7.724712e-06	5.185630e-09	5.488359e+01	3.393819e+02
1.800000e-06	7.683291e-06	5.099412e-09	5.458930e+01	3.388104e+02
1.810000e-06	7.639321e-06	5.189313e-09	5.427689e+01	3.381623e+02
1.820000e-06	7.592700e-06	5.105229e-09	5.394565e+01	3.374286e+02
1.830000e-06	7.543313e-06	5.142566e-09	5.359476e+01	3.366042e+02
1.840000e-06	7.490929e-06	5.152305e-09	5.322258e+01	3.356882e+02
1.850000e-06	7.435708e-06	5.113747e-09	5.283024e+01	3.346833e+02
1.860000e-06	7.377671e-06	5.174964e-09	5.241789e+01	3.335949e+02
1.870000e-06	7.316947e-06	5.056024e-09	5.198645e+01	3.324304e+02
1.880000e-06	7.253557e-06	5.074223e-09	5.153606e+01	3.311974e+02
1.890000e-06	7.187349e-06	5.035220e-09	5.106566e+01	3.299031e+02
1.900000e-06	7.118390e-06	4.961671e-09	5.057571e+01	3.285533e+02
1.910000e-06	7.046599e-06	5.004101e-09	5.006564e+01	3.271518e+02
1.920000e-06	6.972107e-06	4.981300e-09	4.953638e+01	3.257000e+02
1.930000e-06	6.894835e-06	4.986638e-09	4.898737e+01	3.241976e+02
1.940000e-06	6.814829e-06	4.906719e-09	4.841893e+01	3.226419e+02
1.950000e-06	6.732380e-06	4.899172e-09	4.783314e+01	3.210295e+02
1.960000e-06	6.647496e-06	4.889328e-09	4.723004e+01	3.193561e+02
1.970000e-06	6.560104e-06	4.827489e-09	4.660912e+01	3.176174e+02
1.980000e-06	6.470283e-06	4.833130e-09	4.597095e+01	3.158095e+02
1.990000e-06	6.378283e-06	4.805381e-09	4.531730e+01	3.139295e+02
2.000000e-06	6.284031e-06	4.778983e-09	4.464764e+01	3.119753e+02
2.010000e-06	6.187495e-06	4.719201e-09	4.396176e+01	3.099456e+02
2.020000e-06	6.088698e-06	4.704405e-09	4.325982e+01	3.078401e+02
2.030000e-06	5.987743e-06	4.675104e-09	4.254254e+01	3.056587e+02
2.040000e-06	5.884660e-06	4.630492e-09	4.181014e+01	3.034017e+02
2.050000e-06	5.779483e-06	4.600825e-09	4.106287e+01	3.010691e+02
2.060000e-06	5.672379e-06	4.573406e-09	4.030190e+01	2.986609e+02
2.070000e-06	5.563335e-06	4.540796e-09	3.952715e+01	2.961763e+02
2.080000e-06	5.452316e-06	4.478839e-09	3.873836e+01	2.936144e+02
2.090000e-06	5.339232e-06	4.441882e-09	3.793490e+01	2.909734e+02
2.100000e-06	5.224136e-06	4.398579e-09	3.711716e+01	2.882515e+02
2.110000e-06	5.107023e-06	4.354909e-09	3.628507e+01	2.854461e+02
2.120000e-06	4.987843e-06	4.313625e-09	3.543831e+01	2.825545e+02
2.130000e-06	4.866828e-06	4.285773e-09	3.457850e+01	2.795733e+02
2.140000e-06	4.744093e-06	4.243053e-09	3.370649e+01	2.764992e+02
2.150000e-06	4.619628e-06	4.187326e-09	3.282217e+01	2.733281e+02
2.160000e-06	4.493435e-06	4.131378e-09	3.192557e+01	2.700560e+02
2.170000e-06	4.365534e-06	4.078771e-09	3.101684e+01	2.666784e+02
2.180000e-06	4.236104e-06	4.026498e-09	3.009726e+01	2.631909e+02
2.190000e-06	4.105182e-06	3.971471e-09	2.916706e+01	2.595891e+02
2.200000e-06	3.972741e-06	3.918632e-09	2.822608e+01	2.558690e+02
2.210000e-06	3.838852e-06	3.858029e-09	2.727480e+01	2.520272e+02
2.220000e-06	3.703415e-06	3.799177e-09	2.631253e+01	2.480611e+02
2.230000e-06	3.566534e-06	3.739041e-09	2.534000e+01	2.439689e+02
2.240000e-06	3.428315e-06	3.679389e-09	2.435796e+01	2.397498e+02
2.250000e-06	3.288812e-06	3.611952e-09	2.336680e+01	2.354034e+02
2.260000e-06	3.148122e-06	3.542349e-09	2.236721e+01	2.309296e+02
2.270000e-06	3.006149e-06	3.469504e-09	2.135850e+01	2.263280e+02
2.280000e-06	2.862875e-06	3.396052e-09	2.034054e+01	2.215972e+02
2.290000e-06	2.718509e-06	3.321140e-09	1.931483e+01	2.167344e+02
2.300000e-06	2.573282e-06	3.243709e-09	1.828301e+01	2.117346e+02
2.310000e-06	2.427213e-06	3.167073e-09	1.724519e+01	2.065908e+02
2.320000e-06	2.280298e-06	3.087486e-09	1.620137e+01	2.012934e+02
2.330000e-06	2.132560e-06	3.007039e-09	1.515170e+01	1.958312e+02
2.340000e-06	1.984120e-06	2.922395e-09	1.409705e+01	1.901915e+02
2.350000e-06	1.835160e-06	2.832619e-09	1.303870e+01	1.843609e+02
2.360000e-06	1.685734e-06	2.737985e-09	1.197704e+01	1.783267e+02
2.370000e-06	1.535742e-06	2.639302e-09	1.091135e+01	1.720777e+02
2.380000e-06	1.385164e-06	2.540717e-09	9.841504e+00	1.656045e+02
2.390000e-06	1.234043e-06	2.440098e-09	8.767798e+00	1.589002e+02
2.400000e-06	1.082390e-06	2.333964e-09	7.690310e+00	1.519605e+02
2.410000e-06	9.302968e-07	2.225160e-09	6.609700e+00	1.447825e+02
2.420000e-06	7.778768e-07	2.113114e-09	5.526765e+00	1.373640e+02
2.430000e-06	6.252261e-07	1.997482e-09	4.442192e+00	1.297018e+02
2.440000e-06	4.724263e-07	1.878379e-09	3.356559e+00	1.217900e+02
2.450000e-06	3.195134e-07	1.757020e-09	2.270123e+00	1.136185e+02
2.460000e-06	1.665023e-07	1.629000e-09	1.182988e+00	1.051717e+02
2.470000e-06	1.336614e-08	1.491814e-09	9.496562e-02	9.642785e+01
2.480000e-06	-1.398177e-07	1.350631e-09	-9.933958e-01	8.735948e+01
2.490000e-06	-2.929538e-07	1.206551e-09	-2.081418e+00	7.793453e+01
2.500000e-06	-4.460160e-07	1.058214e-09	-3.168916e+00	6.811881e+01
2.510000e-06	-5.989594e-07	9.037111e-10	-4.255569e+00	5.787920e+01
2.520000e-06	-7.517662e-07	7.424383e-10	-5.341251e+00	4.718759e+01
2.530000e-06	-9.043281e-07	5.713427e-10	-6.425194e+00	3.602513e+01
2.540000e-06	-1.056572e-06	3.921689e-10	-7.506874e+00	2.438637e+01
2.550000e-06	-1.208478e-06	2.091375e-10	-8.586161e+00	1.228273e+01
2.560000e-06	-1.359904e-06	1.951883e-11	-9.662033e+00	-2.549752e-01
2.570000e-06	-1.510680e-06	-1.790721e-10	-1.073328e+01	-1.317541e+01
2.580000e-06	-1.660777e-06	-3.851393e-10	-1.179971e+01	-2.640726e+01
2.590000e-06	-1.810242e-06	-5.940458e-10	-1.286165e+01	-3.986140e+01
2.600000e-06	-1.959118e-06	-8.040630e-10	-1.391941e+01	-5.343459e+01
2.610000e-06	-2.107448e-06	-1.015111e-09	-1.497328e+01	-6.701457e+01
2.620000e-06	-2.254955e-06	-1.226445e-09	-1.602131e+01	-8.048581e+01
2.630000e-06	-2.401449e-06	-1.434667e-09	-1.706214e+01	-9.373574e+01
2.640000e-06	-2.547100e-06	-1.635559e-09	-1.809699e+01	-1.066606e+02
2.650000e-06	-2.691942e-06	-1.826800e-09	-1.912608e+01	-1.191707e+02
2.660000e-06	-2.835787e-06	-2.008926e-09	-2.014809e+01	-1.311941e+02
2.670000e-06	-2.978377e-06	-2.182610e-09	-2.116118e+01	-1.426791e+02
2.680000e-06	-3.119664e-06	-2.347665e-09	-2.216501e+01	-1.535950e+02
2.690000e-06	-3.259744e-06	-2.504321e-09	-2.316028e+01	-1.639311e+02
2.700000e-06	-3.398530e-06	-2.652549e-09	-2.414634e+01	-1.736941e+02
2.710000e-06	-3.536042e-06	-2.793101e-09	-2.512335e+01	-1.829050e+02
2.720000e-06	-3.672374e-06	-2.927251e-09	-2.609198e+01	-1.915950e+02
2.730000e-06	-3.807233e-06	-3.055732e-09	-2.705015e+01	-1.998010e+02
2.740000e-06	-3.940638e-06	-3.177319e-09	-2.799798e+01	-2.075621e+02
2.750000e-06	-4.072784e-06	-3.290014e-09	-2.893687e+01	-2.149160e+02
2.760000e-06	-4.203471e-06	-3.394639e-09	-2.986540e+01	-2.218968e+02
2.770000e-06	-4.332699e-06	-3.495642e-09	-3.078355e+01	-2.285341e+02
2.780000e-06	-4.460547e-06	-3.593090e-09	-3.169191e+01	-2.348519e+02
2.790000e-06	-4.586812e-06	-3.685168e-09	-3.258901e+01	-2.408698e+02
2.800000e-06	-4.711532e-06	-3.772391e-09	-3.347514e+01	-2.466039e+02
2.810000e-06	-4.834625e-06	-3.855064e-09	-3.434970e+01	-2.520681e+02
2.820000e-06	-4.955912e-06	-3.934167e-09	-3.521144e+01	-2.572752e+02
2.830000e-06	-5.075402e-06	-4.009964e-09	-3.606041e+01	-2.622385e+02
2.840000e-06	-5.192891e-06	-4.082834e-09	-3.689517e+01	-2.669719e+02
2.850000e-06	-5.308267e-06	-4.152279e-09	-3.771490e+01	-2.714901e+02
2.860000e-06	-5.421414e-06	-4.217833e-09	-3.851881e+01	-2.758082e+02
2.870000e-06	-5.532355e-06	-4.281488e-09	-3.930704e+01	-2.799406e+02
2.880000e-06	-5.641306e-06	-4.344200e-09	-4.008112e+01	-2.839005e+02
2.890000e-06	-5.748353e-06	-4.405069e-09	-4.084169e+01	-2.876984e+02
2.900000e-06	-5.853462e-06	-4.462343e-09	-4.158848e+01	-2.913416e+02
2.910000e-06	-5.956348e-06	-4.516648e-09	-4.231948e+01	-2.948340e+02
2.920000e-06	-6.056917e-06	-4.568955e-09	-4.303401e+01	-2.981760e+02
2.930000e-06	-6.155349e-06	-4.618728e-09	-4.373336e+01	-3.013654e+02
2.940000e-06	-6.251712e-06	-4.666165e-09	-4.441802e+01	-3.043985e+02
