# Temperatura_=_32.94
# Concentracion g/m^3_=_5000.0
# C_Vs_to_Am_M_A/Vsm_=_65563218390.804596
# pendiente_HvsI_1/m_=_3716.3
# ordenada_HvsI_A/m_=_1297.0
# frecuencia_Hz_=_302512.56587566424

Tiempo_(s)	Campo_(V.s)	Magnetizacion_(V.s)	Campo_(kA/m)	Magnetizacion_(A/m)
0.000000e+00	-8.019314e-06	-5.558926e-09	-5.686203e+01	-3.632049e+02
1.000000e-08	-8.014979e-06	-5.557835e-09	-5.683129e+01	-3.629951e+02
2.000000e-08	-8.008088e-06	-5.552025e-09	-5.678243e+01	-3.627179e+02
3.000000e-08	-7.998463e-06	-5.545680e-09	-5.671418e+01	-3.623841e+02
4.000000e-08	-7.985914e-06	-5.538624e-09	-5.662520e+01	-3.620070e+02
5.000000e-08	-7.970354e-06	-5.531529e-09	-5.651487e+01	-3.616003e+02
6.000000e-08	-7.952136e-06	-5.524803e-09	-5.638569e+01	-3.611768e+02
7.000000e-08	-7.931724e-06	-5.523523e-09	-5.624096e+01	-3.607469e+02
8.000000e-08	-7.908734e-06	-5.554457e-09	-5.607794e+01	-3.603172e+02
9.000000e-08	-7.882534e-06	-5.561814e-09	-5.589217e+01	-3.598899e+02
1.000000e-07	-7.853073e-06	-5.534185e-09	-5.568327e+01	-3.594622e+02
1.100000e-07	-7.820691e-06	-5.508633e-09	-5.545366e+01	-3.590272e+02
1.200000e-07	-7.785572e-06	-5.487613e-09	-5.520464e+01	-3.585739e+02
1.300000e-07	-7.747952e-06	-5.456227e-09	-5.493790e+01	-3.580890e+02
1.400000e-07	-7.708188e-06	-5.416992e-09	-5.465595e+01	-3.575581e+02
1.500000e-07	-7.666216e-06	-5.452971e-09	-5.435834e+01	-3.569670e+02
1.600000e-07	-7.621571e-06	-5.433199e-09	-5.404177e+01	-3.563033e+02
1.700000e-07	-7.574165e-06	-5.395152e-09	-5.370564e+01	-3.555572e+02
1.800000e-07	-7.523856e-06	-5.421691e-09	-5.334892e+01	-3.547224e+02
1.900000e-07	-7.470468e-06	-5.391131e-09	-5.297036e+01	-3.537959e+02
2.000000e-07	-7.414220e-06	-5.369414e-09	-5.257153e+01	-3.527784e+02
2.100000e-07	-7.355295e-06	-5.352053e-09	-5.215371e+01	-3.516730e+02
2.200000e-07	-7.293782e-06	-5.327228e-09	-5.171754e+01	-3.504851e+02
2.300000e-07	-7.229631e-06	-5.292142e-09	-5.126267e+01	-3.492210e+02
2.400000e-07	-7.162691e-06	-5.253671e-09	-5.078803e+01	-3.478871e+02
2.500000e-07	-7.093091e-06	-5.266162e-09	-5.029451e+01	-3.464893e+02
2.600000e-07	-7.020766e-06	-5.259455e-09	-4.978169e+01	-3.450318e+02
2.700000e-07	-6.945505e-06	-5.228628e-09	-4.924804e+01	-3.435175e+02
2.800000e-07	-6.867380e-06	-5.196486e-09	-4.869408e+01	-3.419471e+02
2.900000e-07	-6.786576e-06	-5.179640e-09	-4.812113e+01	-3.403199e+02
3.000000e-07	-6.703358e-06	-5.151966e-09	-4.753107e+01	-3.386336e+02
3.100000e-07	-6.617881e-06	-5.102572e-09	-4.692498e+01	-3.368849e+02
3.200000e-07	-6.530146e-06	-5.092037e-09	-4.630288e+01	-3.350700e+02
3.300000e-07	-6.440006e-06	-5.077407e-09	-4.566373e+01	-3.331847e+02
3.400000e-07	-6.347488e-06	-5.043291e-09	-4.500772e+01	-3.312252e+02
3.500000e-07	-6.252697e-06	-5.004696e-09	-4.433559e+01	-3.291878e+02
3.600000e-07	-6.155589e-06	-4.979186e-09	-4.364703e+01	-3.270697e+02
3.700000e-07	-6.056240e-06	-4.950539e-09	-4.294258e+01	-3.248684e+02
3.800000e-07	-5.954709e-06	-4.901291e-09	-4.222267e+01	-3.225820e+02
3.900000e-07	-5.851032e-06	-4.870625e-09	-4.148753e+01	-3.202092e+02
4.000000e-07	-5.745286e-06	-4.845028e-09	-4.073772e+01	-3.177491e+02
4.100000e-07	-5.637539e-06	-4.805099e-09	-3.997373e+01	-3.152012e+02
4.200000e-07	-5.527819e-06	-4.750685e-09	-3.919574e+01	-3.125652e+02
4.300000e-07	-5.416120e-06	-4.711649e-09	-3.840373e+01	-3.098410e+02
4.400000e-07	-5.302358e-06	-4.673818e-09	-3.759708e+01	-3.070285e+02
4.500000e-07	-5.186502e-06	-4.623468e-09	-3.677559e+01	-3.041274e+02
4.600000e-07	-5.068699e-06	-4.577774e-09	-3.594030e+01	-3.011374e+02
4.700000e-07	-4.949053e-06	-4.539218e-09	-3.509193e+01	-2.980573e+02
4.800000e-07	-4.827606e-06	-4.491563e-09	-3.423079e+01	-2.948857e+02
4.900000e-07	-4.704390e-06	-4.429483e-09	-3.335711e+01	-2.916203e+02
5.000000e-07	-4.579482e-06	-4.376038e-09	-3.247143e+01	-2.882578e+02
5.100000e-07	-4.452915e-06	-4.328646e-09	-3.157399e+01	-2.847942e+02
5.200000e-07	-4.324717e-06	-4.277091e-09	-3.066499e+01	-2.812248e+02
5.300000e-07	-4.194914e-06	-4.218487e-09	-2.974460e+01	-2.775442e+02
5.400000e-07	-4.063542e-06	-4.161063e-09	-2.881309e+01	-2.737471e+02
5.500000e-07	-3.930666e-06	-4.102994e-09	-2.787092e+01	-2.698281e+02
5.600000e-07	-3.796270e-06	-4.038169e-09	-2.691796e+01	-2.657826e+02
5.700000e-07	-3.660429e-06	-3.971084e-09	-2.595477e+01	-2.616065e+02
5.800000e-07	-3.523227e-06	-3.905141e-09	-2.498191e+01	-2.572970e+02
5.900000e-07	-3.384592e-06	-3.838324e-09	-2.399891e+01	-2.528519e+02
6.000000e-07	-3.244467e-06	-3.766630e-09	-2.300533e+01	-2.482699e+02
6.100000e-07	-3.102942e-06	-3.693733e-09	-2.200183e+01	-2.435499e+02
6.200000e-07	-2.960143e-06	-3.620840e-09	-2.098929e+01	-2.386906e+02
6.300000e-07	-2.816185e-06	-3.546283e-09	-1.996854e+01	-2.336895e+02
6.400000e-07	-2.671224e-06	-3.466666e-09	-1.894068e+01	-2.285428e+02
6.500000e-07	-2.525352e-06	-3.384039e-09	-1.790635e+01	-2.232445e+02
6.600000e-07	-2.378614e-06	-3.300947e-09	-1.686588e+01	-2.177864e+02
6.700000e-07	-2.231137e-06	-3.216842e-09	-1.582018e+01	-2.121581e+02
6.800000e-07	-2.082987e-06	-3.130599e-09	-1.476970e+01	-2.063474e+02
6.900000e-07	-1.934223e-06	-3.036265e-09	-1.371487e+01	-2.003412e+02
7.000000e-07	-1.784853e-06	-2.939686e-09	-1.265574e+01	-1.941260e+02
7.100000e-07	-1.634827e-06	-2.841058e-09	-1.159196e+01	-1.876895e+02
7.200000e-07	-1.484201e-06	-2.740050e-09	-1.052393e+01	-1.810213e+02
7.300000e-07	-1.333043e-06	-2.634734e-09	-9.452118e+00	-1.741134e+02
7.400000e-07	-1.181399e-06	-2.522608e-09	-8.376871e+00	-1.669609e+02
7.500000e-07	-1.029368e-06	-2.409060e-09	-7.298876e+00	-1.595613e+02
7.600000e-07	-8.770691e-07	-2.296046e-09	-6.218977e+00	-1.519141e+02
7.700000e-07	-7.245231e-07	-2.180291e-09	-5.137329e+00	-1.440192e+02
7.800000e-07	-5.716961e-07	-2.058104e-09	-4.053688e+00	-1.358754e+02
7.900000e-07	-4.185958e-07	-1.930823e-09	-2.968110e+00	-1.274782e+02
8.000000e-07	-2.653389e-07	-1.796159e-09	-1.881421e+00	-1.188185e+02
8.100000e-07	-1.119695e-07	-1.656008e-09	-7.939346e-01	-1.098810e+02
8.200000e-07	4.148247e-08	-1.511300e-09	2.941371e-01	-1.006437e+02
8.300000e-07	1.949650e-07	-1.360749e-09	1.382426e+00	-9.107826e+01
8.400000e-07	3.484041e-07	-1.205681e-09	2.470406e+00	-8.115134e+01
8.500000e-07	5.016846e-07	-1.047249e-09	3.557262e+00	-7.082722e+01
8.600000e-07	6.548249e-07	-8.860495e-10	4.643124e+00	-6.007122e+01
8.700000e-07	8.078138e-07	-7.172383e-10	5.727913e+00	-4.885380e+01
8.800000e-07	9.605192e-07	-5.394749e-10	6.810691e+00	-3.715498e+01
8.900000e-07	1.112938e-06	-3.548635e-10	7.891434e+00	-2.496863e+01
9.000000e-07	1.265029e-06	-1.647372e-10	8.969860e+00	-1.230600e+01
9.100000e-07	1.416725e-06	3.032020e-11	1.004548e+01	8.016987e-01
9.200000e-07	1.567872e-06	2.317382e-10	1.111721e+01	1.430231e+01
9.300000e-07	1.718304e-06	4.400985e-10	1.218387e+01	2.812329e+01
9.400000e-07	1.868089e-06	6.543922e-10	1.324593e+01	4.217407e+01
9.500000e-07	2.017261e-06	8.715100e-10	1.430366e+01	5.634989e+01
9.600000e-07	2.165695e-06	1.086642e-09	1.535615e+01	7.053702e+01
9.700000e-07	2.313262e-06	1.299739e-09	1.640250e+01	8.461865e+01
9.800000e-07	2.460017e-06	1.512736e-09	1.744308e+01	9.848117e+01
9.900000e-07	2.605928e-06	1.719471e-09	1.847768e+01	1.120201e+02
1.000000e-06	2.750794e-06	1.915943e-09	1.950488e+01	1.251450e+02
1.010000e-06	2.894634e-06	2.103508e-09	2.052479e+01	1.377836e+02
1.020000e-06	3.037421e-06	2.282910e-09	2.153724e+01	1.498837e+02
1.030000e-06	3.179001e-06	2.455254e-09	2.254113e+01	1.614137e+02
1.040000e-06	3.319226e-06	2.620898e-09	2.353542e+01	1.723618e+02
1.050000e-06	3.458061e-06	2.780972e-09	2.451985e+01	1.827331e+02
1.060000e-06	3.595621e-06	2.933211e-09	2.549524e+01	1.925463e+02
1.070000e-06	3.731828e-06	3.076955e-09	2.646103e+01	2.018296e+02
1.080000e-06	3.866591e-06	3.211930e-09	2.741658e+01	2.106164e+02
1.090000e-06	3.999984e-06	3.339384e-09	2.836243e+01	2.189419e+02
1.100000e-06	4.131983e-06	3.458861e-09	2.929839e+01	2.268395e+02
1.110000e-06	4.262467e-06	3.572734e-09	3.022360e+01	2.343394e+02
1.120000e-06	4.391435e-06	3.681862e-09	3.113806e+01	2.414672e+02
1.130000e-06	4.518886e-06	3.784899e-09	3.204177e+01	2.482439e+02
1.140000e-06	4.644823e-06	3.882408e-09	3.293474e+01	2.546871e+02
1.150000e-06	4.769153e-06	3.972880e-09	3.381632e+01	2.608117e+02
1.160000e-06	4.891829e-06	4.059597e-09	3.468617e+01	2.666321e+02
1.170000e-06	5.012830e-06	4.143198e-09	3.554415e+01	2.721631e+02
1.180000e-06	5.131996e-06	4.222981e-09	3.638911e+01	2.774210e+02
1.190000e-06	5.249246e-06	4.299160e-09	3.722049e+01	2.824240e+02
1.200000e-06	5.364517e-06	4.372507e-09	3.803783e+01	2.871920e+02
1.210000e-06	5.477674e-06	4.443626e-09	3.884019e+01	2.917457e+02
1.220000e-06	5.588719e-06	4.511423e-09	3.962756e+01	2.961054e+02
1.230000e-06	5.697804e-06	4.574696e-09	4.040105e+01	3.002894e+02
1.240000e-06	5.804938e-06	4.635306e-09	4.116069e+01	3.043128e+02
1.250000e-06	5.909962e-06	4.693917e-09	4.190538e+01	3.081862e+02
1.260000e-06	6.012763e-06	4.750006e-09	4.263431e+01	3.119154e+02
1.270000e-06	6.113334e-06	4.802290e-09	4.334742e+01	3.155010e+02
1.280000e-06	6.211586e-06	4.851563e-09	4.404409e+01	3.189396e+02
1.290000e-06	6.307476e-06	4.899776e-09	4.472401e+01	3.222246e+02
1.300000e-06	6.401145e-06	4.945006e-09	4.538819e+01	3.253483e+02
1.310000e-06	6.492588e-06	4.987504e-09	4.603657e+01	3.283034e+02
1.320000e-06	6.581688e-06	5.028770e-09	4.666834e+01	3.310846e+02
1.330000e-06	6.668441e-06	5.068174e-09	4.728348e+01	3.336903e+02
1.340000e-06	6.752899e-06	5.105334e-09	4.788234e+01	3.361231e+02
1.350000e-06	6.834972e-06	5.139551e-09	4.846429e+01	3.383901e+02
1.360000e-06	6.914501e-06	5.172137e-09	4.902820e+01	3.405026e+02
1.370000e-06	6.991498e-06	5.202775e-09	4.957416e+01	3.424745e+02
1.380000e-06	7.065913e-06	5.230629e-09	5.010181e+01	3.443214e+02
1.390000e-06	7.137653e-06	5.257318e-09	5.061049e+01	3.460588e+02
1.400000e-06	7.206862e-06	5.284059e-09	5.110123e+01	3.477002e+02
1.410000e-06	7.273530e-06	5.309133e-09	5.157395e+01	3.492563e+02
1.420000e-06	7.337541e-06	5.331257e-09	5.202783e+01	3.507339e+02
1.430000e-06	7.399064e-06	5.351057e-09	5.246406e+01	3.521360e+02
1.440000e-06	7.458111e-06	5.370159e-09	5.288274e+01	3.534616e+02
1.450000e-06	7.514506e-06	5.388502e-09	5.328262e+01	3.547073e+02
1.460000e-06	7.568154e-06	5.405477e-09	5.366301e+01	3.558682e+02
1.470000e-06	7.618789e-06	5.421948e-09	5.402205e+01	3.569394e+02
1.480000e-06	7.666311e-06	5.437739e-09	5.435901e+01	3.579175e+02
1.490000e-06	7.711036e-06	5.453609e-09	5.467614e+01	3.588013e+02
1.500000e-06	7.753018e-06	5.467193e-09	5.497382e+01	3.595930e+02
1.510000e-06	7.792236e-06	5.477232e-09	5.525190e+01	3.602976e+02
1.520000e-06	7.828830e-06	5.486083e-09	5.551137e+01	3.609230e+02
1.530000e-06	7.862656e-06	5.494636e-09	5.575122e+01	3.614790e+02
1.540000e-06	7.893638e-06	5.503734e-09	5.597090e+01	3.619756e+02
1.550000e-06	7.921876e-06	5.513621e-09	5.617113e+01	3.624220e+02
1.560000e-06	7.947207e-06	5.522676e-09	5.635074e+01	3.628253e+02
1.570000e-06	7.969592e-06	5.529653e-09	5.650947e+01	3.631896e+02
1.580000e-06	7.989291e-06	5.535311e-09	5.664914e+01	3.635152e+02
1.590000e-06	8.006159e-06	5.540449e-09	5.676875e+01	3.637989e+02
1.600000e-06	8.019944e-06	5.544722e-09	5.686650e+01	3.640347e+02
1.610000e-06	8.030574e-06	5.547947e-09	5.694186e+01	3.642144e+02
1.620000e-06	8.038107e-06	5.550263e-09	5.699528e+01	3.643296e+02
1.630000e-06	8.042790e-06	5.552030e-09	5.702849e+01	3.643728e+02
1.640000e-06	8.044625e-06	5.554707e-09	5.704150e+01	3.643387e+02
1.650000e-06	8.043632e-06	5.553115e-09	5.703446e+01	3.642258e+02
1.660000e-06	8.039976e-06	5.548814e-09	5.700853e+01	3.640365e+02
1.670000e-06	8.033668e-06	5.545022e-09	5.696381e+01	3.637771e+02
1.680000e-06	8.024725e-06	5.540689e-09	5.690039e+01	3.634579e+02
1.690000e-06	8.013069e-06	5.536532e-09	5.681775e+01	3.630914e+02
1.700000e-06	7.998566e-06	5.534070e-09	5.671491e+01	3.626913e+02
1.710000e-06	7.981445e-06	5.531131e-09	5.659351e+01	3.622711e+02
1.720000e-06	7.962058e-06	5.505894e-09	5.645605e+01	3.618417e+02
1.730000e-06	7.940183e-06	5.450126e-09	5.630094e+01	3.614111e+02
1.740000e-06	7.915022e-06	5.445803e-09	5.612253e+01	3.609828e+02
1.750000e-06	7.886096e-06	5.461856e-09	5.591743e+01	3.605554e+02
1.760000e-06	7.853829e-06	5.460816e-09	5.568863e+01	3.601230e+02
1.770000e-06	7.819022e-06	5.476184e-09	5.544183e+01	3.596758e+02
1.780000e-06	7.781898e-06	5.515356e-09	5.517860e+01	3.592010e+02
1.790000e-06	7.742600e-06	5.474613e-09	5.489995e+01	3.586843e+02
1.800000e-06	7.701202e-06	5.465113e-09	5.460641e+01	3.581114e+02
1.810000e-06	7.657324e-06	5.471258e-09	5.429529e+01	3.574692e+02
1.820000e-06	7.610876e-06	5.414852e-09	5.396594e+01	3.567471e+02
1.830000e-06	7.561579e-06	5.443658e-09	5.361640e+01	3.559377e+02
1.840000e-06	7.509181e-06	5.396298e-09	5.324486e+01	3.550371e+02
1.850000e-06	7.453887e-06	5.392158e-09	5.285279e+01	3.540449e+02
1.860000e-06	7.395812e-06	5.406003e-09	5.244100e+01	3.529638e+02
1.870000e-06	7.335120e-06	5.374013e-09	5.201065e+01	3.517984e+02
1.880000e-06	7.271710e-06	5.416195e-09	5.156104e+01	3.505550e+02
1.890000e-06	7.205464e-06	5.349208e-09	5.109131e+01	3.492401e+02
1.900000e-06	7.136431e-06	5.286904e-09	5.060182e+01	3.478596e+02
1.910000e-06	7.064597e-06	5.273818e-09	5.009248e+01	3.464184e+02
1.920000e-06	6.990076e-06	5.258055e-09	4.956408e+01	3.449198e+02
1.930000e-06	6.912767e-06	5.257826e-09	4.901590e+01	3.433650e+02
1.940000e-06	6.832717e-06	5.225298e-09	4.844830e+01	3.417538e+02
1.950000e-06	6.750191e-06	5.224837e-09	4.786314e+01	3.400843e+02
1.960000e-06	6.665206e-06	5.175792e-09	4.726054e+01	3.383534e+02
1.970000e-06	6.577754e-06	5.131412e-09	4.664045e+01	3.365575e+02
1.980000e-06	6.487936e-06	5.114626e-09	4.600359e+01	3.346923e+02
1.990000e-06	6.395909e-06	5.090353e-09	4.535106e+01	3.327540e+02
2.000000e-06	6.301546e-06	5.051757e-09	4.468196e+01	3.307388e+02
2.010000e-06	6.204829e-06	5.004617e-09	4.399618e+01	3.286437e+02
2.020000e-06	6.105920e-06	4.991491e-09	4.329485e+01	3.264659e+02
2.030000e-06	6.004872e-06	4.955332e-09	4.257836e+01	3.242036e+02
2.040000e-06	5.901646e-06	4.912678e-09	4.184642e+01	3.218552e+02
2.050000e-06	5.796370e-06	4.870682e-09	4.109994e+01	3.194197e+02
2.060000e-06	5.689211e-06	4.843784e-09	4.034012e+01	3.168965e+02
2.070000e-06	5.580081e-06	4.805498e-09	3.956632e+01	3.142854e+02
2.080000e-06	5.468963e-06	4.763942e-09	3.877842e+01	3.115860e+02
2.090000e-06	5.355780e-06	4.731670e-09	3.797588e+01	3.087983e+02
2.100000e-06	5.240544e-06	4.683380e-09	3.715878e+01	3.059222e+02
2.110000e-06	5.123276e-06	4.625710e-09	3.632728e+01	3.029572e+02
2.120000e-06	5.003988e-06	4.574038e-09	3.548146e+01	2.999026e+02
2.130000e-06	4.882841e-06	4.538407e-09	3.462244e+01	2.967570e+02
2.140000e-06	4.759939e-06	4.495839e-09	3.375099e+01	2.935183e+02
2.150000e-06	4.635315e-06	4.446809e-09	3.286732e+01	2.901835e+02
2.160000e-06	4.508952e-06	4.391757e-09	3.197133e+01	2.867488e+02
2.170000e-06	4.380918e-06	4.336765e-09	3.106349e+01	2.832097e+02
2.180000e-06	4.251311e-06	4.275886e-09	3.014449e+01	2.795611e+02
2.190000e-06	4.120186e-06	4.217025e-09	2.921474e+01	2.757974e+02
2.200000e-06	3.987560e-06	4.160259e-09	2.827433e+01	2.719134e+02
2.210000e-06	3.853439e-06	4.100542e-09	2.732333e+01	2.679041e+02
2.220000e-06	3.717796e-06	4.037808e-09	2.636154e+01	2.637653e+02
2.230000e-06	3.580761e-06	3.974161e-09	2.538987e+01	2.594937e+02
2.240000e-06	3.442378e-06	3.912405e-09	2.440865e+01	2.550871e+02
2.250000e-06	3.302611e-06	3.845034e-09	2.341761e+01	2.505440e+02
2.260000e-06	3.161587e-06	3.772732e-09	2.241766e+01	2.458631e+02
2.270000e-06	3.019275e-06	3.695155e-09	2.140857e+01	2.410434e+02
2.280000e-06	2.875735e-06	3.617629e-09	2.039079e+01	2.360827e+02
2.290000e-06	2.731166e-06	3.540106e-09	1.936570e+01	2.309777e+02
2.300000e-06	2.585707e-06	3.459937e-09	1.833430e+01	2.257231e+02
2.310000e-06	2.439413e-06	3.376839e-09	1.729699e+01	2.203113e+02
2.320000e-06	2.292267e-06	3.290893e-09	1.625363e+01	2.147324e+02
2.330000e-06	2.144288e-06	3.203312e-09	1.520436e+01	2.089747e+02
2.340000e-06	1.995584e-06	3.114190e-09	1.414996e+01	2.030253e+02
2.350000e-06	1.846249e-06	3.021780e-09	1.309108e+01	1.968708e+02
2.360000e-06	1.696335e-06	2.924928e-09	1.202809e+01	1.904983e+02
2.370000e-06	1.545920e-06	2.822927e-09	1.096155e+01	1.838968e+02
2.380000e-06	1.395030e-06	2.718982e-09	9.891645e+00	1.770577e+02
2.390000e-06	1.243715e-06	2.610218e-09	8.818732e+00	1.699750e+02
2.400000e-06	1.091948e-06	2.495295e-09	7.742602e+00	1.626457e+02
2.410000e-06	9.397365e-07	2.377244e-09	6.663328e+00	1.550689e+02
2.420000e-06	7.871662e-07	2.256271e-09	5.581508e+00	1.472444e+02
2.430000e-06	6.342915e-07	2.134928e-09	4.497529e+00	1.391716e+02
2.440000e-06	4.812443e-07	2.010946e-09	3.412328e+00	1.308471e+02
2.450000e-06	3.280456e-07	1.883928e-09	2.326052e+00	1.222633e+02
2.460000e-06	1.746686e-07	1.752857e-09	1.238511e+00	1.134067e+02
2.470000e-06	2.112543e-08	1.613599e-09	1.497927e-01	1.042573e+02
2.480000e-06	-1.324686e-07	1.467707e-09	-9.392863e-01	9.478844e+01
2.490000e-06	-2.859822e-07	1.317761e-09	-2.027795e+00	8.496799e+01
2.500000e-06	-4.394268e-07	1.162101e-09	-3.115815e+00	7.476062e+01
2.510000e-06	-5.927741e-07	9.994617e-10	-4.203145e+00	6.413094e+01
2.520000e-06	-7.458884e-07	8.292731e-10	-5.288822e+00	5.304750e+01
2.530000e-06	-8.987186e-07	6.495327e-10	-6.372485e+00	4.148714e+01
2.540000e-06	-1.051193e-06	4.635476e-10	-7.453625e+00	2.943936e+01
2.550000e-06	-1.203169e-06	2.730175e-10	-8.531230e+00	1.691014e+01
2.560000e-06	-1.354670e-06	7.691502e-11	-9.605470e+00	3.924803e+00
2.570000e-06	-1.505758e-06	-1.253782e-10	-1.067678e+01	-9.470482e+00
2.580000e-06	-1.656344e-06	-3.361321e-10	-1.174453e+01	-2.320884e+01
2.590000e-06	-1.806301e-06	-5.527162e-10	-1.280782e+01	-3.720451e+01
2.600000e-06	-1.955569e-06	-7.722868e-10	-1.386622e+01	-5.135632e+01
2.610000e-06	-2.104156e-06	-9.931545e-10	-1.491980e+01	-6.555251e+01
2.620000e-06	-2.251949e-06	-1.214877e-09	-1.596775e+01	-7.967652e+01
2.630000e-06	-2.398786e-06	-1.434649e-09	-1.700892e+01	-9.361321e+01
2.640000e-06	-2.544766e-06	-1.647261e-09	-1.804401e+01	-1.072549e+02
2.650000e-06	-2.689880e-06	-1.850215e-09	-1.907296e+01	-1.205067e+02
2.660000e-06	-2.833851e-06	-2.042317e-09	-2.009380e+01	-1.332909e+02
2.670000e-06	-2.976693e-06	-2.226219e-09	-2.110664e+01	-1.455493e+02
2.680000e-06	-3.118417e-06	-2.402592e-09	-2.211156e+01	-1.572447e+02
2.690000e-06	-3.258928e-06	-2.569928e-09	-2.310787e+01	-1.683596e+02
2.700000e-06	-3.398181e-06	-2.729954e-09	-2.409526e+01	-1.788947e+02
2.710000e-06	-3.536103e-06	-2.883503e-09	-2.507322e+01	-1.888652e+02
2.720000e-06	-3.672663e-06	-3.031806e-09	-2.604151e+01	-1.982970e+02
2.730000e-06	-3.807824e-06	-3.172834e-09	-2.699989e+01	-2.072225e+02
2.740000e-06	-3.941650e-06	-3.303745e-09	-2.794880e+01	-2.156767e+02
2.750000e-06	-4.074144e-06	-3.425127e-09	-2.888827e+01	-2.236937e+02
2.760000e-06	-4.205190e-06	-3.537438e-09	-2.981747e+01	-2.313048e+02
2.770000e-06	-4.334811e-06	-3.646065e-09	-3.073656e+01	-2.385369e+02
2.780000e-06	-4.462958e-06	-3.752292e-09	-3.164520e+01	-2.454124e+02
2.790000e-06	-4.589527e-06	-3.854824e-09	-3.254266e+01	-2.519497e+02
2.800000e-06	-4.714537e-06	-3.951723e-09	-3.342906e+01	-2.581642e+02
2.810000e-06	-4.837885e-06	-4.041026e-09	-3.430367e+01	-2.640705e+02
2.820000e-06	-4.959519e-06	-4.126917e-09	-3.516614e+01	-2.696830e+02
2.830000e-06	-5.079352e-06	-4.208497e-09	-3.601583e+01	-2.750175e+02
2.840000e-06	-5.197154e-06	-4.284320e-09	-3.685112e+01	-2.800918e+02
2.850000e-06	-5.312842e-06	-4.354828e-09	-3.767142e+01	-2.849252e+02
2.860000e-06	-5.426348e-06	-4.423407e-09	-3.847625e+01	-2.895384e+02
2.870000e-06	-5.537671e-06	-4.493105e-09	-3.926560e+01	-2.939520e+02
2.880000e-06	-5.646969e-06	-4.560462e-09	-4.004060e+01	-2.981849e+02
2.890000e-06	-5.754346e-06	-4.625179e-09	-4.080197e+01	-3.022533e+02
2.900000e-06	-5.859790e-06	-4.687916e-09	-4.154963e+01	-3.061692e+02
2.910000e-06	-5.963069e-06	-4.748561e-09	-4.228195e+01	-3.099396e+02
2.920000e-06	-6.064032e-06	-4.805747e-09	-4.299784e+01	-3.135668e+02
2.930000e-06	-6.162799e-06	-4.857970e-09	-4.369816e+01	-3.170484e+02
2.940000e-06	-6.259475e-06	-4.907237e-09	-4.438365e+01	-3.203784e+02
