# Temperatura_=_31.17
# Concentracion g/m^3_=_5000.0
# C_Vs_to_Am_M_A/Vsm_=_65563218390.804596
# pendiente_HvsI_1/m_=_3716.3
# ordenada_HvsI_A/m_=_1297.0
# frecuencia_Hz_=_302511.4462295552

Tiempo_(s)	Campo_(V.s)	Magnetizacion_(V.s)	Campo_(kA/m)	Magnetizacion_(A/m)
0.000000e+00	-8.012122e-06	-5.535296e-09	-5.686236e+01	-3.619528e+02
1.000000e-08	-8.007787e-06	-5.532577e-09	-5.683159e+01	-3.617098e+02
2.000000e-08	-8.000912e-06	-5.525153e-09	-5.678280e+01	-3.613990e+02
3.000000e-08	-7.991317e-06	-5.518613e-09	-5.671470e+01	-3.610367e+02
4.000000e-08	-7.978824e-06	-5.513852e-09	-5.662604e+01	-3.606406e+02
5.000000e-08	-7.963303e-06	-5.507114e-09	-5.651589e+01	-3.602280e+02
6.000000e-08	-7.945085e-06	-5.497928e-09	-5.638659e+01	-3.598130e+02
7.000000e-08	-7.924661e-06	-5.495835e-09	-5.624164e+01	-3.594054e+02
8.000000e-08	-7.901612e-06	-5.531163e-09	-5.607806e+01	-3.590086e+02
9.000000e-08	-7.875371e-06	-5.550182e-09	-5.589182e+01	-3.586199e+02
1.000000e-07	-7.845920e-06	-5.516924e-09	-5.568281e+01	-3.582300e+02
1.100000e-07	-7.813571e-06	-5.486177e-09	-5.545323e+01	-3.578249e+02
1.200000e-07	-7.778485e-06	-5.467338e-09	-5.520422e+01	-3.573868e+02
1.300000e-07	-7.740913e-06	-5.426545e-09	-5.493758e+01	-3.568967e+02
1.400000e-07	-7.701193e-06	-5.378377e-09	-5.465568e+01	-3.563364e+02
1.500000e-07	-7.659209e-06	-5.428258e-09	-5.435772e+01	-3.556903e+02
1.600000e-07	-7.614531e-06	-5.438973e-09	-5.404064e+01	-3.549473e+02
1.700000e-07	-7.567111e-06	-5.394022e-09	-5.370409e+01	-3.541017e+02
1.800000e-07	-7.516820e-06	-5.419513e-09	-5.334717e+01	-3.531530e+02
1.900000e-07	-7.463438e-06	-5.371761e-09	-5.296832e+01	-3.521061e+02
2.000000e-07	-7.407270e-06	-5.317805e-09	-5.256969e+01	-3.509697e+02
2.100000e-07	-7.348444e-06	-5.296632e-09	-5.215220e+01	-3.497551e+02
2.200000e-07	-7.286981e-06	-5.272785e-09	-5.171600e+01	-3.484744e+02
2.300000e-07	-7.222879e-06	-5.271397e-09	-5.126106e+01	-3.471388e+02
2.400000e-07	-7.156001e-06	-5.247722e-09	-5.078643e+01	-3.457573e+02
2.500000e-07	-7.086407e-06	-5.250315e-09	-5.029252e+01	-3.443357e+02
2.600000e-07	-7.014035e-06	-5.242467e-09	-4.977889e+01	-3.428760e+02
2.700000e-07	-6.938812e-06	-5.202389e-09	-4.924503e+01	-3.413768e+02
2.800000e-07	-6.860730e-06	-5.167497e-09	-4.869088e+01	-3.398337e+02
2.900000e-07	-6.779862e-06	-5.161360e-09	-4.811696e+01	-3.382398e+02
3.000000e-07	-6.696613e-06	-5.152546e-09	-4.752614e+01	-3.365875e+02
3.100000e-07	-6.611171e-06	-5.099397e-09	-4.691975e+01	-3.348692e+02
3.200000e-07	-6.523422e-06	-5.071786e-09	-4.629699e+01	-3.330781e+02
3.300000e-07	-6.433299e-06	-5.047694e-09	-4.565738e+01	-3.312091e+02
3.400000e-07	-6.340863e-06	-5.004785e-09	-4.500136e+01	-3.292592e+02
3.500000e-07	-6.246101e-06	-4.968240e-09	-4.432883e+01	-3.272273e+02
3.600000e-07	-6.149030e-06	-4.948087e-09	-4.363992e+01	-3.251136e+02
3.700000e-07	-6.049793e-06	-4.925999e-09	-4.293562e+01	-3.229197e+02
3.800000e-07	-5.948432e-06	-4.882770e-09	-4.221626e+01	-3.206474e+02
3.900000e-07	-5.844921e-06	-4.852305e-09	-4.148164e+01	-3.182982e+02
4.000000e-07	-5.739295e-06	-4.821014e-09	-4.073201e+01	-3.158728e+02
4.100000e-07	-5.631624e-06	-4.776629e-09	-3.996786e+01	-3.133709e+02
4.200000e-07	-5.521987e-06	-4.725134e-09	-3.918976e+01	-3.107908e+02
4.300000e-07	-5.410381e-06	-4.689175e-09	-3.839769e+01	-3.081297e+02
4.400000e-07	-5.296667e-06	-4.657159e-09	-3.759066e+01	-3.053843e+02
4.500000e-07	-5.180863e-06	-4.612285e-09	-3.676880e+01	-3.025503e+02
4.600000e-07	-5.063114e-06	-4.565316e-09	-3.593313e+01	-2.996238e+02
4.700000e-07	-4.943517e-06	-4.519097e-09	-3.508434e+01	-2.966009e+02
4.800000e-07	-4.822163e-06	-4.467247e-09	-3.422309e+01	-2.934781e+02
4.900000e-07	-4.699061e-06	-4.410738e-09	-3.334942e+01	-2.902526e+02
5.000000e-07	-4.574250e-06	-4.361999e-09	-3.246364e+01	-2.869217e+02
5.100000e-07	-4.447834e-06	-4.313433e-09	-3.156646e+01	-2.834833e+02
5.200000e-07	-4.319770e-06	-4.260153e-09	-3.065759e+01	-2.799349e+02
5.300000e-07	-4.190142e-06	-4.201498e-09	-2.973761e+01	-2.762742e+02
5.400000e-07	-4.058939e-06	-4.142053e-09	-2.880645e+01	-2.724983e+02
5.500000e-07	-3.926133e-06	-4.082049e-09	-2.786393e+01	-2.686040e+02
5.600000e-07	-3.791833e-06	-4.019182e-09	-2.691079e+01	-2.645880e+02
5.700000e-07	-3.656090e-06	-3.953032e-09	-2.594742e+01	-2.604464e+02
5.800000e-07	-3.518960e-06	-3.886310e-09	-2.497420e+01	-2.561758e+02
5.900000e-07	-3.380431e-06	-3.819922e-09	-2.399106e+01	-2.517727e+02
6.000000e-07	-3.240447e-06	-3.750090e-09	-2.299758e+01	-2.472339e+02
6.100000e-07	-3.098998e-06	-3.678213e-09	-2.199372e+01	-2.425564e+02
6.200000e-07	-2.956291e-06	-3.604272e-09	-2.098092e+01	-2.377373e+02
6.300000e-07	-2.812522e-06	-3.529856e-09	-1.996058e+01	-2.327731e+02
6.400000e-07	-2.667686e-06	-3.452591e-09	-1.893268e+01	-2.276598e+02
6.500000e-07	-2.521888e-06	-3.373018e-09	-1.789794e+01	-2.223921e+02
6.600000e-07	-2.375266e-06	-3.288981e-09	-1.685736e+01	-2.169632e+02
6.700000e-07	-2.227917e-06	-3.202491e-09	-1.581162e+01	-2.113645e+02
6.800000e-07	-2.079897e-06	-3.116442e-09	-1.476111e+01	-2.055862e+02
6.900000e-07	-1.931204e-06	-3.024686e-09	-1.370584e+01	-1.996169e+02
7.000000e-07	-1.781849e-06	-2.928314e-09	-1.264586e+01	-1.934449e+02
7.100000e-07	-1.631851e-06	-2.827522e-09	-1.158131e+01	-1.870584e+02
7.200000e-07	-1.481325e-06	-2.724862e-09	-1.051302e+01	-1.804466e+02
7.300000e-07	-1.330381e-06	-2.619272e-09	-9.441768e+00	-1.736007e+02
7.400000e-07	-1.179012e-06	-2.510965e-09	-8.367497e+00	-1.665138e+02
7.500000e-07	-1.027253e-06	-2.402621e-09	-7.290459e+00	-1.591811e+02
7.600000e-07	-8.751134e-07	-2.292992e-09	-6.210715e+00	-1.515998e+02
7.700000e-07	-7.226384e-07	-2.175892e-09	-5.128594e+00	-1.437680e+02
7.800000e-07	-5.699571e-07	-2.050655e-09	-4.045008e+00	-1.356830e+02
7.900000e-07	-4.171043e-07	-1.921331e-09	-2.960206e+00	-1.273404e+02
8.000000e-07	-2.640734e-07	-1.787355e-09	-1.874140e+00	-1.187321e+02
8.100000e-07	-1.108940e-07	-1.649228e-09	-7.870195e-01	-1.098448e+02
8.200000e-07	4.234758e-08	-1.506052e-09	3.005425e-01	-1.006597e+02
8.300000e-07	1.956518e-07	-1.358803e-09	1.388549e+00	-9.115185e+01
8.400000e-07	3.489396e-07	-1.205903e-09	2.476439e+00	-8.129177e+01
8.500000e-07	5.021292e-07	-1.048678e-09	3.563631e+00	-7.104703e+01
8.600000e-07	6.551979e-07	-8.880757e-10	4.649966e+00	-6.038538e+01
8.700000e-07	8.080851e-07	-7.205476e-10	5.735013e+00	-4.927852e+01
8.800000e-07	9.607089e-07	-5.436503e-10	6.818190e+00	-3.770622e+01
8.900000e-07	1.112940e-06	-3.601636e-10	7.898580e+00	-2.566053e+01
9.000000e-07	1.264741e-06	-1.733035e-10	8.975915e+00	-1.314953e+01
9.100000e-07	1.416148e-06	2.013737e-11	1.005046e+01	-2.000499e-01
9.200000e-07	1.567081e-06	2.209274e-10	1.112164e+01	1.314081e+01
9.300000e-07	1.717412e-06	4.274004e-10	1.218854e+01	2.680583e+01
9.400000e-07	1.867127e-06	6.386829e-10	1.325107e+01	4.070948e+01
9.500000e-07	2.016181e-06	8.534279e-10	1.430892e+01	5.475137e+01
9.600000e-07	2.164519e-06	1.067002e-09	1.536168e+01	6.882102e+01
9.700000e-07	2.312024e-06	1.277557e-09	1.640853e+01	8.280365e+01
9.800000e-07	2.458733e-06	1.487024e-09	1.744973e+01	9.658627e+01
9.900000e-07	2.604557e-06	1.691850e-09	1.848464e+01	1.100638e+02
1.000000e-06	2.749326e-06	1.888546e-09	1.951207e+01	1.231441e+02
1.010000e-06	2.893040e-06	2.076252e-09	2.053202e+01	1.357524e+02
1.020000e-06	3.035622e-06	2.256499e-09	2.154393e+01	1.478335e+02
1.030000e-06	3.177084e-06	2.429721e-09	2.254790e+01	1.593531e+02
1.040000e-06	3.317276e-06	2.596161e-09	2.354284e+01	1.702963e+02
1.050000e-06	3.456065e-06	2.755588e-09	2.452783e+01	1.806659e+02
1.060000e-06	3.593532e-06	2.907755e-09	2.550344e+01	1.904787e+02
1.070000e-06	3.729663e-06	3.052739e-09	2.646957e+01	1.997619e+02
1.080000e-06	3.864375e-06	3.188194e-09	2.742563e+01	2.085481e+02
1.090000e-06	3.997706e-06	3.313382e-09	2.837188e+01	2.168723e+02
1.100000e-06	4.129606e-06	3.431165e-09	2.930798e+01	2.247683e+02
1.110000e-06	4.259985e-06	3.545313e-09	3.023329e+01	2.322666e+02
1.120000e-06	4.388866e-06	3.655124e-09	3.114796e+01	2.393932e+02
1.130000e-06	4.516276e-06	3.758505e-09	3.205219e+01	2.461699e+02
1.140000e-06	4.642174e-06	3.855304e-09	3.294570e+01	2.526145e+02
1.150000e-06	4.766457e-06	3.947834e-09	3.382774e+01	2.587424e+02
1.160000e-06	4.889033e-06	4.035958e-09	3.469766e+01	2.645681e+02
1.170000e-06	5.009810e-06	4.118389e-09	3.555482e+01	2.701063e+02
1.180000e-06	5.128810e-06	4.197252e-09	3.639937e+01	2.753732e+02
1.190000e-06	5.245943e-06	4.273472e-09	3.723067e+01	2.803870e+02
1.200000e-06	5.361017e-06	4.347373e-09	3.804735e+01	2.851670e+02
1.210000e-06	5.473972e-06	4.417959e-09	3.884900e+01	2.897335e+02
1.220000e-06	5.584913e-06	4.485138e-09	3.963636e+01	2.941061e+02
1.230000e-06	5.693956e-06	4.549794e-09	4.041024e+01	2.983025e+02
1.240000e-06	5.800948e-06	4.612046e-09	4.116956e+01	3.023367e+02
1.250000e-06	5.905789e-06	4.672467e-09	4.191362e+01	3.062188e+02
1.260000e-06	6.008499e-06	4.730064e-09	4.264256e+01	3.099536e+02
1.270000e-06	6.108993e-06	4.783291e-09	4.335577e+01	3.135415e+02
1.280000e-06	6.207146e-06	4.831740e-09	4.405237e+01	3.169788e+02
1.290000e-06	6.302956e-06	4.877899e-09	4.473233e+01	3.202595e+02
1.300000e-06	6.396501e-06	4.923539e-09	4.539622e+01	3.233768e+02
1.310000e-06	6.487794e-06	4.966875e-09	4.604414e+01	3.263246e+02
1.320000e-06	6.576812e-06	5.007401e-09	4.667590e+01	3.290998e+02
1.330000e-06	6.663489e-06	5.046202e-09	4.729105e+01	3.317029e+02
1.340000e-06	6.747851e-06	5.083196e-09	4.788977e+01	3.341389e+02
1.350000e-06	6.829870e-06	5.118113e-09	4.847187e+01	3.364170e+02
1.360000e-06	6.909407e-06	5.151449e-09	4.903634e+01	3.385499e+02
1.370000e-06	6.986375e-06	5.182961e-09	4.958259e+01	3.405526e+02
1.380000e-06	7.060660e-06	5.210850e-09	5.010979e+01	3.424404e+02
1.390000e-06	7.132306e-06	5.235368e-09	5.061826e+01	3.442276e+02
1.400000e-06	7.201461e-06	5.260274e-09	5.110906e+01	3.459256e+02
1.410000e-06	7.268042e-06	5.286852e-09	5.158159e+01	3.475420e+02
1.420000e-06	7.331956e-06	5.312465e-09	5.203519e+01	3.490801e+02
1.430000e-06	7.393376e-06	5.337092e-09	5.247109e+01	3.505389e+02
1.440000e-06	7.452317e-06	5.358893e-09	5.288940e+01	3.519143e+02
1.450000e-06	7.508615e-06	5.377245e-09	5.328895e+01	3.532001e+02
1.460000e-06	7.562161e-06	5.394755e-09	5.366896e+01	3.543898e+02
1.470000e-06	7.612658e-06	5.411041e-09	5.402734e+01	3.554784e+02
1.480000e-06	7.660068e-06	5.425964e-09	5.436381e+01	3.564635e+02
1.490000e-06	7.704795e-06	5.438716e-09	5.468124e+01	3.573466e+02
1.500000e-06	7.746801e-06	5.449309e-09	5.497936e+01	3.581330e+02
1.510000e-06	7.785920e-06	5.461591e-09	5.525699e+01	3.588320e+02
1.520000e-06	7.822382e-06	5.475101e-09	5.551576e+01	3.594552e+02
1.530000e-06	7.856105e-06	5.486834e-09	5.575510e+01	3.600157e+02
1.540000e-06	7.886966e-06	5.496836e-09	5.597412e+01	3.605258e+02
1.550000e-06	7.915095e-06	5.506282e-09	5.617375e+01	3.609955e+02
1.560000e-06	7.940331e-06	5.515401e-09	5.635285e+01	3.614311e+02
1.570000e-06	7.962644e-06	5.522136e-09	5.651121e+01	3.618343e+02
1.580000e-06	7.982281e-06	5.526572e-09	5.665057e+01	3.622019e+02
1.590000e-06	7.999079e-06	5.529570e-09	5.676979e+01	3.625264e+02
1.600000e-06	8.012784e-06	5.531981e-09	5.686705e+01	3.627971e+02
1.610000e-06	8.023324e-06	5.536092e-09	5.694185e+01	3.630021e+02
1.620000e-06	8.030778e-06	5.541160e-09	5.699475e+01	3.631301e+02
1.630000e-06	8.035467e-06	5.545797e-09	5.702804e+01	3.631722e+02
1.640000e-06	8.037364e-06	5.550146e-09	5.704150e+01	3.631238e+02
1.650000e-06	8.036367e-06	5.548852e-09	5.703442e+01	3.629856e+02
1.660000e-06	8.032728e-06	5.543443e-09	5.700859e+01	3.627641e+02
1.670000e-06	8.026452e-06	5.539239e-09	5.696405e+01	3.624706e+02
1.680000e-06	8.017493e-06	5.533621e-09	5.690047e+01	3.621208e+02
1.690000e-06	8.005814e-06	5.527410e-09	5.681759e+01	3.617321e+02
1.700000e-06	7.991256e-06	5.524618e-09	5.671427e+01	3.613221e+02
1.710000e-06	7.974065e-06	5.525920e-09	5.659226e+01	3.609061e+02
1.720000e-06	7.954642e-06	5.508417e-09	5.645442e+01	3.604952e+02
1.730000e-06	7.932708e-06	5.443649e-09	5.629875e+01	3.600949e+02
1.740000e-06	7.907489e-06	5.430542e-09	5.611977e+01	3.597041e+02
1.750000e-06	7.878612e-06	5.455906e-09	5.591483e+01	3.593153e+02
1.760000e-06	7.846414e-06	5.450501e-09	5.568632e+01	3.589158e+02
1.770000e-06	7.811651e-06	5.459531e-09	5.543960e+01	3.584886e+02
1.780000e-06	7.774607e-06	5.513977e-09	5.517670e+01	3.580148e+02
1.790000e-06	7.735363e-06	5.474185e-09	5.489818e+01	3.574758e+02
1.800000e-06	7.693985e-06	5.422422e-09	5.460453e+01	3.568550e+02
1.810000e-06	7.650102e-06	5.438357e-09	5.429308e+01	3.561401e+02
1.820000e-06	7.603623e-06	5.384169e-09	5.396322e+01	3.553236e+02
1.830000e-06	7.554370e-06	5.414974e-09	5.361367e+01	3.544036e+02
1.840000e-06	7.502106e-06	5.410224e-09	5.324275e+01	3.533836e+02
1.850000e-06	7.446944e-06	5.389028e-09	5.285126e+01	3.522712e+02
1.860000e-06	7.388931e-06	5.407201e-09	5.243954e+01	3.510773e+02
1.870000e-06	7.328281e-06	5.325104e-09	5.200911e+01	3.498138e+02
1.880000e-06	7.264912e-06	5.321506e-09	5.155938e+01	3.484923e+02
1.890000e-06	7.198669e-06	5.281801e-09	5.108924e+01	3.471227e+02
1.900000e-06	7.129686e-06	5.231611e-09	5.059967e+01	3.457117e+02
1.910000e-06	7.057897e-06	5.259117e-09	5.009018e+01	3.442624e+02
1.920000e-06	6.983407e-06	5.232769e-09	4.956152e+01	3.427744e+02
1.930000e-06	6.906157e-06	5.218550e-09	4.901328e+01	3.412440e+02
1.940000e-06	6.826170e-06	5.167337e-09	4.844560e+01	3.396649e+02
1.950000e-06	6.743767e-06	5.149802e-09	4.786079e+01	3.380296e+02
1.960000e-06	6.658910e-06	5.130295e-09	4.725856e+01	3.363304e+02
1.970000e-06	6.571505e-06	5.082700e-09	4.663824e+01	3.345602e+02
1.980000e-06	6.481679e-06	5.082264e-09	4.600074e+01	3.327134e+02
1.990000e-06	6.389652e-06	5.054909e-09	4.534762e+01	3.307864e+02
2.000000e-06	6.295373e-06	5.016428e-09	4.467852e+01	3.287774e+02
2.010000e-06	6.198753e-06	4.966032e-09	4.399280e+01	3.266865e+02
2.020000e-06	6.099928e-06	4.942142e-09	4.329144e+01	3.245149e+02
2.030000e-06	5.998972e-06	4.911296e-09	4.257495e+01	3.222644e+02
2.040000e-06	5.895796e-06	4.874396e-09	4.184270e+01	3.199366e+02
2.050000e-06	5.790519e-06	4.849759e-09	4.109555e+01	3.175325e+02
2.060000e-06	5.683405e-06	4.815833e-09	4.033536e+01	3.150520e+02
2.070000e-06	5.574386e-06	4.772285e-09	3.956164e+01	3.124940e+02
2.080000e-06	5.463329e-06	4.714876e-09	3.877347e+01	3.098559e+02
2.090000e-06	5.350202e-06	4.675016e-09	3.797060e+01	3.071345e+02
2.100000e-06	5.235003e-06	4.632088e-09	3.715303e+01	3.043258e+02
2.110000e-06	5.117800e-06	4.591826e-09	3.632123e+01	3.014257e+02
2.120000e-06	4.998613e-06	4.555194e-09	3.547536e+01	2.984302e+02
2.130000e-06	4.877516e-06	4.518842e-09	3.461593e+01	2.953358e+02
2.140000e-06	4.754684e-06	4.469516e-09	3.374418e+01	2.921394e+02
2.150000e-06	4.630164e-06	4.412815e-09	3.286046e+01	2.888384e+02
2.160000e-06	4.503939e-06	4.357574e-09	3.196464e+01	2.854305e+02
2.170000e-06	4.376044e-06	4.302642e-09	3.105696e+01	2.819133e+02
2.180000e-06	4.246519e-06	4.246755e-09	3.013771e+01	2.782845e+02
2.190000e-06	4.115438e-06	4.188833e-09	2.920743e+01	2.745413e+02
2.200000e-06	3.982817e-06	4.134163e-09	2.826621e+01	2.706808e+02
2.210000e-06	3.848748e-06	4.076380e-09	2.731472e+01	2.666994e+02
2.220000e-06	3.713230e-06	4.019800e-09	2.635294e+01	2.625936e+02
2.230000e-06	3.576244e-06	3.957835e-09	2.538075e+01	2.583598e+02
2.240000e-06	3.437893e-06	3.894080e-09	2.439886e+01	2.539944e+02
2.250000e-06	3.298271e-06	3.825269e-09	2.340797e+01	2.494942e+02
2.260000e-06	3.157367e-06	3.752334e-09	2.240796e+01	2.448562e+02
2.270000e-06	3.015176e-06	3.673703e-09	2.139883e+01	2.400773e+02
2.280000e-06	2.871805e-06	3.592993e-09	2.038131e+01	2.351545e+02
2.290000e-06	2.727363e-06	3.511976e-09	1.935620e+01	2.300838e+02
2.300000e-06	2.581983e-06	3.430902e-09	1.832444e+01	2.248604e+02
2.310000e-06	2.435739e-06	3.353648e-09	1.728654e+01	2.194778e+02
2.320000e-06	2.288711e-06	3.275686e-09	1.624307e+01	2.139282e+02
2.330000e-06	2.140901e-06	3.193709e-09	1.519406e+01	2.082018e+02
2.340000e-06	1.992317e-06	3.103600e-09	1.413955e+01	2.022878e+02
2.350000e-06	1.843051e-06	3.008545e-09	1.308021e+01	1.961744e+02
2.360000e-06	1.693245e-06	2.909535e-09	1.201703e+01	1.898499e+02
2.370000e-06	1.542956e-06	2.807250e-09	1.095042e+01	1.833030e+02
2.380000e-06	1.392136e-06	2.703232e-09	9.880047e+00	1.765244e+02
2.390000e-06	1.240884e-06	2.593463e-09	8.806602e+00	1.695064e+02
2.400000e-06	1.089246e-06	2.478386e-09	7.730421e+00	1.622438e+02
2.410000e-06	9.371992e-07	2.363591e-09	6.651341e+00	1.547333e+02
2.420000e-06	7.848861e-07	2.248300e-09	5.570368e+00	1.469728e+02
2.430000e-06	6.323231e-07	2.130792e-09	4.487622e+00	1.389600e+02
2.440000e-06	4.794751e-07	2.007650e-09	3.402854e+00	1.306912e+02
2.450000e-06	3.264184e-07	1.878952e-09	2.316605e+00	1.221594e+02
2.460000e-06	1.731836e-07	1.745711e-09	1.229091e+00	1.133531e+02
2.470000e-06	1.981031e-08	1.605353e-09	1.405946e-01	1.042548e+02
2.480000e-06	-1.335587e-07	1.459485e-09	-9.478711e-01	9.484155e+01
2.490000e-06	-2.868753e-07	1.309564e-09	-2.035966e+00	8.508487e+01
2.500000e-06	-4.401411e-07	1.154789e-09	-3.123699e+00	7.495292e+01
2.510000e-06	-5.932884e-07	9.948037e-10	-4.210592e+00	6.441305e+01
2.520000e-06	-7.462486e-07	8.284475e-10	-5.296157e+00	5.343542e+01
2.530000e-06	-8.989004e-07	6.530266e-10	-6.379532e+00	4.199705e+01
2.540000e-06	-1.051152e-06	4.708212e-10	-7.460067e+00	3.008609e+01
2.550000e-06	-1.202974e-06	2.837037e-10	-8.537555e+00	1.770568e+01
2.560000e-06	-1.354355e-06	8.756748e-11	-9.611913e+00	4.877102e+00
2.570000e-06	-1.505323e-06	-1.165226e-10	-1.068334e+01	-8.358405e+00
2.580000e-06	-1.655810e-06	-3.256134e-10	-1.175135e+01	-2.193926e+01
2.590000e-06	-1.805666e-06	-5.388195e-10	-1.281488e+01	-3.578487e+01
2.600000e-06	-1.954825e-06	-7.563803e-10	-1.387347e+01	-4.979867e+01
2.610000e-06	-2.103256e-06	-9.748986e-10	-1.492689e+01	-6.387250e+01
2.620000e-06	-2.250947e-06	-1.191478e-09	-1.597506e+01	-7.789219e+01
2.630000e-06	-2.397829e-06	-1.405656e-09	-1.701749e+01	-9.174361e+01
2.640000e-06	-2.543802e-06	-1.616112e-09	-1.805347e+01	-1.053188e+02
2.650000e-06	-2.688799e-06	-1.820325e-09	-1.908251e+01	-1.185215e+02
2.660000e-06	-2.832690e-06	-2.014718e-09	-2.010371e+01	-1.312716e+02
2.670000e-06	-2.975449e-06	-2.201205e-09	-2.111689e+01	-1.435083e+02
2.680000e-06	-3.117022e-06	-2.379371e-09	-2.212163e+01	-1.551911e+02
2.690000e-06	-3.257345e-06	-2.547534e-09	-2.311751e+01	-1.662999e+02
2.700000e-06	-3.396442e-06	-2.706188e-09	-2.410469e+01	-1.768327e+02
2.710000e-06	-3.534309e-06	-2.857876e-09	-2.508313e+01	-1.868027e+02
2.720000e-06	-3.670847e-06	-3.003884e-09	-2.605215e+01	-1.962345e+02
2.730000e-06	-3.805988e-06	-3.141357e-09	-2.701125e+01	-2.051596e+02
2.740000e-06	-3.939754e-06	-3.270900e-09	-2.796060e+01	-2.136127e+02
2.750000e-06	-4.072111e-06	-3.394677e-09	-2.889993e+01	-2.216283e+02
2.760000e-06	-4.203054e-06	-3.512437e-09	-2.982925e+01	-2.292378e+02
2.770000e-06	-4.332563e-06	-3.623441e-09	-3.074838e+01	-2.364687e+02
2.780000e-06	-4.460588e-06	-3.729938e-09	-3.165697e+01	-2.433439e+02
2.790000e-06	-4.587087e-06	-3.831397e-09	-3.255474e+01	-2.498822e+02
2.800000e-06	-4.712024e-06	-3.924741e-09	-3.344143e+01	-2.560996e+02
2.810000e-06	-4.835249e-06	-4.011588e-09	-3.431596e+01	-2.620106e+02
2.820000e-06	-4.956680e-06	-4.095086e-09	-3.517776e+01	-2.676298e+02
2.830000e-06	-5.076285e-06	-4.175852e-09	-3.602660e+01	-2.729730e+02
2.840000e-06	-5.193948e-06	-4.253647e-09	-3.686166e+01	-2.780576e+02
2.850000e-06	-5.309552e-06	-4.326920e-09	-3.768211e+01	-2.829028e+02
2.860000e-06	-5.422908e-06	-4.397418e-09	-3.848660e+01	-2.875288e+02
2.870000e-06	-5.534010e-06	-4.467366e-09	-3.927510e+01	-2.919553e+02
2.880000e-06	-5.643124e-06	-4.535199e-09	-4.004948e+01	-2.962009e+02
2.890000e-06	-5.750399e-06	-4.600147e-09	-4.081081e+01	-3.002807e+02
2.900000e-06	-5.855710e-06	-4.660246e-09	-4.155821e+01	-3.042060e+02
2.910000e-06	-5.958816e-06	-4.716986e-09	-4.228996e+01	-3.079831e+02
2.920000e-06	-6.059667e-06	-4.772527e-09	-4.300570e+01	-3.116137e+02
2.930000e-06	-6.158338e-06	-4.826509e-09	-4.370598e+01	-3.150950e+02
2.940000e-06	-6.254865e-06	-4.878339e-09	-4.439103e+01	-3.184217e+02
