# Temperatura_=_38.11
# Concentracion g/m^3_=_5000.0
# C_Vs_to_Am_M_A/Vsm_=_65563218390.804596
# pendiente_HvsI_1/m_=_3716.3
# ordenada_HvsI_A/m_=_1297.0
# frecuencia_Hz_=_302509.2878660381

Tiempo_(s)	Campo_(V.s)	Magnetizacion_(V.s)	Campo_(kA/m)	Magnetizacion_(A/m)
0.000000e+00	-7.999142e-06	-5.265439e-09	-5.686347e+01	-3.435558e+02
1.000000e-08	-7.994826e-06	-5.259110e-09	-5.683279e+01	-3.433283e+02
2.000000e-08	-7.987965e-06	-5.253513e-09	-5.678402e+01	-3.430335e+02
3.000000e-08	-7.978350e-06	-5.246987e-09	-5.671567e+01	-3.426808e+02
4.000000e-08	-7.965783e-06	-5.240403e-09	-5.662633e+01	-3.422817e+02
5.000000e-08	-7.950290e-06	-5.234222e-09	-5.651619e+01	-3.418493e+02
6.000000e-08	-7.932192e-06	-5.229417e-09	-5.638754e+01	-3.413960e+02
7.000000e-08	-7.911794e-06	-5.231373e-09	-5.624254e+01	-3.409328e+02
8.000000e-08	-7.888762e-06	-5.240809e-09	-5.607881e+01	-3.404677e+02
9.000000e-08	-7.862575e-06	-5.226493e-09	-5.589265e+01	-3.400051e+02
1.000000e-07	-7.833187e-06	-5.226121e-09	-5.568374e+01	-3.395448e+02
1.100000e-07	-7.800876e-06	-5.214259e-09	-5.545405e+01	-3.390823e+02
1.200000e-07	-7.765798e-06	-5.184858e-09	-5.520470e+01	-3.386095e+02
1.300000e-07	-7.728255e-06	-5.157699e-09	-5.493781e+01	-3.381148e+02
1.400000e-07	-7.688544e-06	-5.131293e-09	-5.465552e+01	-3.375848e+02
1.500000e-07	-7.646628e-06	-5.145442e-09	-5.435756e+01	-3.370056e+02
1.600000e-07	-7.602127e-06	-5.097196e-09	-5.404121e+01	-3.363637e+02
1.700000e-07	-7.554893e-06	-5.113857e-09	-5.370544e+01	-3.356475e+02
1.800000e-07	-7.504784e-06	-5.111010e-09	-5.334923e+01	-3.348479e+02
1.900000e-07	-7.451604e-06	-5.071961e-09	-5.297119e+01	-3.339591e+02
2.000000e-07	-7.395630e-06	-5.087690e-09	-5.257329e+01	-3.329787e+02
2.100000e-07	-7.336960e-06	-5.041969e-09	-5.215622e+01	-3.319074e+02
2.200000e-07	-7.275594e-06	-5.030166e-09	-5.171998e+01	-3.307486e+02
2.300000e-07	-7.211581e-06	-4.998599e-09	-5.126494e+01	-3.295079e+02
2.400000e-07	-7.144807e-06	-4.975317e-09	-5.079026e+01	-3.281917e+02
2.500000e-07	-7.075339e-06	-4.971216e-09	-5.029644e+01	-3.268070e+02
2.600000e-07	-7.003128e-06	-4.939830e-09	-4.978311e+01	-3.253601e+02
2.700000e-07	-6.928084e-06	-4.911467e-09	-4.924964e+01	-3.238563e+02
2.800000e-07	-6.850188e-06	-4.881917e-09	-4.869591e+01	-3.222991e+02
2.900000e-07	-6.769595e-06	-4.880089e-09	-4.812299e+01	-3.206904e+02
3.000000e-07	-6.686628e-06	-4.849173e-09	-4.753320e+01	-3.190300e+02
3.100000e-07	-6.601383e-06	-4.815045e-09	-4.692723e+01	-3.173162e+02
3.200000e-07	-6.513826e-06	-4.803964e-09	-4.630481e+01	-3.155457e+02
3.300000e-07	-6.423914e-06	-4.764210e-09	-4.566565e+01	-3.137146e+02
3.400000e-07	-6.331677e-06	-4.730528e-09	-4.500997e+01	-3.118181e+02
3.500000e-07	-6.237182e-06	-4.700865e-09	-4.433823e+01	-3.098517e+02
3.600000e-07	-6.140407e-06	-4.680836e-09	-4.365028e+01	-3.078110e+02
3.700000e-07	-6.041356e-06	-4.644248e-09	-4.294616e+01	-3.056923e+02
3.800000e-07	-5.940128e-06	-4.598236e-09	-4.222657e+01	-3.034928e+02
3.900000e-07	-5.836779e-06	-4.572216e-09	-4.149189e+01	-3.012104e+02
4.000000e-07	-5.731414e-06	-4.541960e-09	-4.074288e+01	-2.988441e+02
4.100000e-07	-5.624049e-06	-4.501758e-09	-3.997966e+01	-2.963936e+02
4.200000e-07	-5.514657e-06	-4.453443e-09	-3.920202e+01	-2.938592e+02
4.300000e-07	-5.403287e-06	-4.422333e-09	-3.841032e+01	-2.912414e+02
4.400000e-07	-5.289846e-06	-4.383694e-09	-3.760390e+01	-2.885405e+02
4.500000e-07	-5.174282e-06	-4.335305e-09	-3.678240e+01	-2.857567e+02
4.600000e-07	-5.056779e-06	-4.293741e-09	-3.594711e+01	-2.828894e+02
4.700000e-07	-4.937480e-06	-4.255809e-09	-3.509904e+01	-2.799372e+02
4.800000e-07	-4.816419e-06	-4.206265e-09	-3.423846e+01	-2.768977e+02
4.900000e-07	-4.693622e-06	-4.150049e-09	-3.336553e+01	-2.737673e+02
5.000000e-07	-4.569044e-06	-4.104069e-09	-3.247995e+01	-2.705416e+02
5.100000e-07	-4.442745e-06	-4.055955e-09	-3.158212e+01	-2.672157e+02
5.200000e-07	-4.314843e-06	-3.999473e-09	-3.067291e+01	-2.637839e+02
5.300000e-07	-4.185388e-06	-3.937415e-09	-2.975265e+01	-2.602409e+02
5.400000e-07	-4.054384e-06	-3.880770e-09	-2.882139e+01	-2.565816e+02
5.500000e-07	-3.921849e-06	-3.826428e-09	-2.787923e+01	-2.528018e+02
5.600000e-07	-3.787833e-06	-3.769323e-09	-2.692655e+01	-2.488983e+02
5.700000e-07	-3.652367e-06	-3.710957e-09	-2.596357e+01	-2.448692e+02
5.800000e-07	-3.515522e-06	-3.648689e-09	-2.499078e+01	-2.407135e+02
5.900000e-07	-3.377297e-06	-3.581720e-09	-2.400818e+01	-2.364312e+02
6.000000e-07	-3.237642e-06	-3.510006e-09	-2.301541e+01	-2.320229e+02
6.100000e-07	-3.096551e-06	-3.440072e-09	-2.201244e+01	-2.274888e+02
6.200000e-07	-2.954162e-06	-3.370152e-09	-2.100024e+01	-2.228283e+02
6.300000e-07	-2.810678e-06	-3.296737e-09	-1.998025e+01	-2.180397e+02
6.400000e-07	-2.666134e-06	-3.218752e-09	-1.895274e+01	-2.131191e+02
6.500000e-07	-2.520621e-06	-3.139210e-09	-1.791833e+01	-2.080606e+02
6.600000e-07	-2.374294e-06	-3.060469e-09	-1.687813e+01	-2.028561e+02
6.700000e-07	-2.227186e-06	-2.980359e-09	-1.583239e+01	-1.974956e+02
6.800000e-07	-2.079320e-06	-2.898245e-09	-1.478125e+01	-1.919675e+02
6.900000e-07	-1.930845e-06	-2.810213e-09	-1.372579e+01	-1.862598e+02
7.000000e-07	-1.781772e-06	-2.719839e-09	-1.266607e+01	-1.803608e+02
7.100000e-07	-1.632048e-06	-2.626567e-09	-1.160173e+01	-1.742597e+02
7.200000e-07	-1.481786e-06	-2.532374e-09	-1.053357e+01	-1.679477e+02
7.300000e-07	-1.331097e-06	-2.431883e-09	-9.462361e+00	-1.614178e+02
7.400000e-07	-1.179942e-06	-2.324415e-09	-8.387849e+00	-1.546654e+02
7.500000e-07	-1.028343e-06	-2.216887e-09	-7.310177e+00	-1.476872e+02
7.600000e-07	-8.764068e-07	-2.109047e-09	-6.230109e+00	-1.404804e+02
7.700000e-07	-7.241902e-07	-1.998478e-09	-5.148048e+00	-1.330414e+02
7.800000e-07	-5.716970e-07	-1.881537e-09	-4.064020e+00	-1.253642e+02
7.900000e-07	-4.189907e-07	-1.762027e-09	-2.978478e+00	-1.174390e+02
8.000000e-07	-2.662317e-07	-1.636188e-09	-1.892560e+00	-1.092506e+02
8.100000e-07	-1.133608e-07	-1.502708e-09	-8.058473e-01	-1.007782e+02
8.200000e-07	3.966464e-08	-1.365293e-09	2.819639e-01	-9.199488e+01
8.300000e-07	1.927266e-07	-1.224200e-09	1.370035e+00	-8.286917e+01
8.400000e-07	3.457106e-07	-1.077552e-09	2.457551e+00	-7.336650e+01
8.500000e-07	4.985594e-07	-9.238920e-10	3.544107e+00	-6.345220e+01
8.600000e-07	6.512775e-07	-7.656447e-10	4.629734e+00	-5.309500e+01
8.700000e-07	8.038511e-07	-6.019572e-10	5.714333e+00	-4.227103e+01
8.800000e-07	9.562198e-07	-4.311058e-10	6.797476e+00	-3.096775e+01
8.900000e-07	1.108260e-06	-2.527510e-10	7.878282e+00	-1.918769e+01
9.000000e-07	1.259902e-06	-6.907560e-11	8.956259e+00	-6.951253e+00
9.100000e-07	1.411110e-06	1.198449e-10	1.003115e+01	5.701533e+00
9.200000e-07	1.561825e-06	3.137441e-10	1.110254e+01	1.871071e+01
9.300000e-07	1.711975e-06	5.118806e-10	1.216991e+01	3.199762e+01
9.400000e-07	1.861528e-06	7.152463e-10	1.323304e+01	4.546770e+01
9.500000e-07	2.010429e-06	9.216981e-10	1.429153e+01	5.901458e+01
9.600000e-07	2.158528e-06	1.126975e-09	1.534432e+01	7.252527e+01
9.700000e-07	2.305801e-06	1.328536e-09	1.639124e+01	8.588588e+01
9.800000e-07	2.452274e-06	1.527123e-09	1.743247e+01	9.898756e+01
9.900000e-07	2.597800e-06	1.719563e-09	1.846697e+01	1.117319e+02
1.000000e-06	2.742343e-06	1.901735e-09	1.949448e+01	1.240354e+02
1.010000e-06	2.885859e-06	2.076414e-09	2.051469e+01	1.358330e+02
1.020000e-06	3.028237e-06	2.244749e-09	2.152682e+01	1.470798e+02
1.030000e-06	3.169414e-06	2.405680e-09	2.253040e+01	1.577512e+02
1.040000e-06	3.309274e-06	2.559175e-09	2.352462e+01	1.678418e+02
1.050000e-06	3.447782e-06	2.704832e-09	2.450924e+01	1.773628e+02
1.060000e-06	3.584968e-06	2.841873e-09	2.548445e+01	1.863384e+02
1.070000e-06	3.720837e-06	2.972174e-09	2.645030e+01	1.948021e+02
1.080000e-06	3.855349e-06	3.094385e-09	2.740650e+01	2.027925e+02
1.090000e-06	3.988455e-06	3.210329e-09	2.835272e+01	2.103495e+02
1.100000e-06	4.120131e-06	3.319195e-09	2.928876e+01	2.175115e+02
1.110000e-06	4.250368e-06	3.423230e-09	3.021457e+01	2.243129e+02
1.120000e-06	4.379147e-06	3.524018e-09	3.113002e+01	2.307833e+02
1.130000e-06	4.506354e-06	3.617621e-09	3.203430e+01	2.369469e+02
1.140000e-06	4.632051e-06	3.704815e-09	3.292784e+01	2.428229e+02
1.150000e-06	4.756206e-06	3.787048e-09	3.381042e+01	2.484271e+02
1.160000e-06	4.878596e-06	3.865955e-09	3.468046e+01	2.537728e+02
1.170000e-06	4.999237e-06	3.941231e-09	3.553806e+01	2.588722e+02
1.180000e-06	5.118129e-06	4.014246e-09	3.638323e+01	2.637373e+02
1.190000e-06	5.235146e-06	4.084086e-09	3.721506e+01	2.683812e+02
1.200000e-06	5.350153e-06	4.151213e-09	3.803261e+01	2.728175e+02
1.210000e-06	5.463060e-06	4.215764e-09	3.883524e+01	2.770606e+02
1.220000e-06	5.573899e-06	4.279289e-09	3.962315e+01	2.811243e+02
1.230000e-06	5.682808e-06	4.342293e-09	4.039736e+01	2.850219e+02
1.240000e-06	5.789705e-06	4.401413e-09	4.115725e+01	2.887642e+02
1.250000e-06	5.894414e-06	4.455368e-09	4.190160e+01	2.923594e+02
1.260000e-06	5.996924e-06	4.505880e-09	4.263031e+01	2.958124e+02
1.270000e-06	6.097274e-06	4.551937e-09	4.334367e+01	2.991249e+02
1.280000e-06	6.195388e-06	4.594392e-09	4.404113e+01	3.022955e+02
1.290000e-06	6.291118e-06	4.635536e-09	4.472164e+01	3.053211e+02
1.300000e-06	6.384606e-06	4.675989e-09	4.538622e+01	3.081974e+02
1.310000e-06	6.475885e-06	4.716247e-09	4.603510e+01	3.109208e+02
1.320000e-06	6.564794e-06	4.756766e-09	4.666712e+01	3.134890e+02
1.330000e-06	6.651322e-06	4.796209e-09	4.728223e+01	3.159023e+02
1.340000e-06	6.735561e-06	4.831394e-09	4.788106e+01	3.181641e+02
1.350000e-06	6.817450e-06	4.862158e-09	4.846318e+01	3.202811e+02
1.360000e-06	6.896840e-06	4.890638e-09	4.902754e+01	3.222628e+02
1.370000e-06	6.973705e-06	4.916842e-09	4.957395e+01	3.241206e+02
1.380000e-06	7.047938e-06	4.941954e-09	5.010165e+01	3.258670e+02
1.390000e-06	7.119494e-06	4.966958e-09	5.061032e+01	3.275141e+02
1.400000e-06	7.188535e-06	4.993021e-09	5.110111e+01	3.290726e+02
1.410000e-06	7.255042e-06	5.018600e-09	5.157389e+01	3.305507e+02
1.420000e-06	7.318900e-06	5.040817e-09	5.202784e+01	3.319536e+02
1.430000e-06	7.380260e-06	5.061135e-09	5.246403e+01	3.332833e+02
1.440000e-06	7.439136e-06	5.079122e-09	5.288256e+01	3.345391e+02
1.450000e-06	7.495353e-06	5.094994e-09	5.328219e+01	3.357182e+02
1.460000e-06	7.548827e-06	5.110299e-09	5.366232e+01	3.368165e+02
1.470000e-06	7.599253e-06	5.125302e-09	5.402078e+01	3.378302e+02
1.480000e-06	7.646613e-06	5.139448e-09	5.435745e+01	3.387565e+02
1.490000e-06	7.691275e-06	5.153826e-09	5.467493e+01	3.395947e+02
1.500000e-06	7.733236e-06	5.167998e-09	5.497322e+01	3.403465e+02
1.510000e-06	7.772377e-06	5.180992e-09	5.525146e+01	3.410164e+02
1.520000e-06	7.808854e-06	5.192669e-09	5.551077e+01	3.416109e+02
1.530000e-06	7.842638e-06	5.201815e-09	5.575093e+01	3.421383e+02
1.540000e-06	7.873556e-06	5.209779e-09	5.597072e+01	3.426069e+02
1.550000e-06	7.901720e-06	5.217422e-09	5.617093e+01	3.430248e+02
1.560000e-06	7.927002e-06	5.223487e-09	5.635065e+01	3.433983e+02
1.570000e-06	7.949333e-06	5.228844e-09	5.650940e+01	3.437308e+02
1.580000e-06	7.968958e-06	5.234447e-09	5.664890e+01	3.440232e+02
1.590000e-06	7.985754e-06	5.239104e-09	5.676830e+01	3.442729e+02
1.600000e-06	7.999512e-06	5.242391e-09	5.686610e+01	3.444749e+02
1.610000e-06	8.010113e-06	5.245379e-09	5.694146e+01	3.446225e+02
1.620000e-06	8.017627e-06	5.248345e-09	5.699487e+01	3.447081e+02
1.630000e-06	8.022326e-06	5.251355e-09	5.702827e+01	3.447249e+02
1.640000e-06	8.024186e-06	5.253076e-09	5.704150e+01	3.446679e+02
1.650000e-06	8.023212e-06	5.248892e-09	5.703458e+01	3.445351e+02
1.660000e-06	8.019597e-06	5.247587e-09	5.700888e+01	3.443277e+02
1.670000e-06	8.013281e-06	5.241783e-09	5.696398e+01	3.440509e+02
1.680000e-06	8.004293e-06	5.234697e-09	5.690008e+01	3.437131e+02
1.690000e-06	7.992588e-06	5.230393e-09	5.681688e+01	3.433256e+02
1.700000e-06	7.978081e-06	5.226578e-09	5.671376e+01	3.429009e+02
1.710000e-06	7.961030e-06	5.221489e-09	5.659254e+01	3.424519e+02
1.720000e-06	7.941673e-06	5.198562e-09	5.645494e+01	3.419901e+02
1.730000e-06	7.919735e-06	5.183564e-09	5.629899e+01	3.415245e+02
1.740000e-06	7.894557e-06	5.176677e-09	5.612001e+01	3.410606e+02
1.750000e-06	7.865756e-06	5.154152e-09	5.591527e+01	3.405994e+02
1.760000e-06	7.833671e-06	5.152297e-09	5.568719e+01	3.401378e+02
1.770000e-06	7.799026e-06	5.161317e-09	5.544091e+01	3.396686e+02
1.780000e-06	7.762059e-06	5.170689e-09	5.517812e+01	3.391809e+02
1.790000e-06	7.722889e-06	5.149316e-09	5.489967e+01	3.386620e+02
1.800000e-06	7.681621e-06	5.183959e-09	5.460631e+01	3.380979e+02
1.810000e-06	7.637880e-06	5.133866e-09	5.429537e+01	3.374748e+02
1.820000e-06	7.591466e-06	5.102549e-09	5.396543e+01	3.367804e+02
1.830000e-06	7.542235e-06	5.140141e-09	5.361545e+01	3.360049e+02
1.840000e-06	7.490022e-06	5.082998e-09	5.324429e+01	3.351416e+02
1.850000e-06	7.434962e-06	5.114185e-09	5.285288e+01	3.341869e+02
1.860000e-06	7.377168e-06	5.067010e-09	5.244204e+01	3.331409e+02
1.870000e-06	7.316743e-06	5.055615e-09	5.201250e+01	3.320062e+02
1.880000e-06	7.253507e-06	5.068243e-09	5.156298e+01	3.307878e+02
1.890000e-06	7.187426e-06	5.002316e-09	5.109323e+01	3.294920e+02
1.900000e-06	7.118627e-06	5.004069e-09	5.060416e+01	3.281257e+02
1.910000e-06	7.047010e-06	4.977686e-09	5.009505e+01	3.266956e+02
1.920000e-06	6.972725e-06	4.977486e-09	4.956698e+01	3.252072e+02
1.930000e-06	6.895732e-06	4.932461e-09	4.901966e+01	3.236646e+02
1.940000e-06	6.815936e-06	4.908645e-09	4.845241e+01	3.220701e+02
1.950000e-06	6.733609e-06	4.905287e-09	4.786718e+01	3.204241e+02
1.960000e-06	6.648861e-06	4.851502e-09	4.726473e+01	3.187254e+02
1.970000e-06	6.561701e-06	4.846116e-09	4.664514e+01	3.169710e+02
1.980000e-06	6.472162e-06	4.810235e-09	4.600863e+01	3.151572e+02
1.990000e-06	6.380345e-06	4.792863e-09	4.535593e+01	3.132795e+02
2.000000e-06	6.286308e-06	4.739185e-09	4.468746e+01	3.113331e+02
2.010000e-06	6.189986e-06	4.711159e-09	4.400273e+01	3.093136e+02
2.020000e-06	6.091390e-06	4.695877e-09	4.330184e+01	3.072170e+02
2.030000e-06	5.990616e-06	4.655470e-09	4.258547e+01	3.050404e+02
2.040000e-06	5.887716e-06	4.620399e-09	4.185398e+01	3.027814e+02
2.050000e-06	5.782724e-06	4.581950e-09	4.110763e+01	3.004387e+02
2.060000e-06	5.675822e-06	4.561374e-09	4.034770e+01	2.980118e+02
2.070000e-06	5.567003e-06	4.508173e-09	3.957413e+01	2.955009e+02
2.080000e-06	5.456152e-06	4.469952e-09	3.878612e+01	2.929064e+02
2.090000e-06	5.343212e-06	4.431464e-09	3.798327e+01	2.902288e+02
2.100000e-06	5.228220e-06	4.394669e-09	3.716583e+01	2.874682e+02
2.110000e-06	5.111268e-06	4.344188e-09	3.633445e+01	2.846245e+02
2.120000e-06	4.992333e-06	4.302246e-09	3.548898e+01	2.816963e+02
2.130000e-06	4.871462e-06	4.260854e-09	3.462974e+01	2.786816e+02
2.140000e-06	4.748842e-06	4.212520e-09	3.375807e+01	2.755771e+02
2.150000e-06	4.624553e-06	4.164887e-09	3.287454e+01	2.723787e+02
2.160000e-06	4.498585e-06	4.115424e-09	3.197907e+01	2.690816e+02
2.170000e-06	4.370960e-06	4.070556e-09	3.107182e+01	2.656801e+02
2.180000e-06	4.241682e-06	4.012348e-09	3.015283e+01	2.621690e+02
2.190000e-06	4.110867e-06	3.956786e-09	2.922290e+01	2.585430e+02
2.200000e-06	3.978523e-06	3.896223e-09	2.828211e+01	2.547975e+02
2.210000e-06	3.844692e-06	3.838066e-09	2.733075e+01	2.509292e+02
2.220000e-06	3.709426e-06	3.777457e-09	2.636918e+01	2.469356e+02
2.230000e-06	3.572700e-06	3.718421e-09	2.539724e+01	2.428157e+02
2.240000e-06	3.434567e-06	3.655665e-09	2.441529e+01	2.385691e+02
2.250000e-06	3.295218e-06	3.589202e-09	2.342470e+01	2.341963e+02
2.260000e-06	3.154634e-06	3.520627e-09	2.242533e+01	2.296977e+02
2.270000e-06	3.012725e-06	3.449561e-09	2.141655e+01	2.250730e+02
2.280000e-06	2.869608e-06	3.377607e-09	2.039917e+01	2.203209e+02
2.290000e-06	2.725445e-06	3.304032e-09	1.937436e+01	2.154381e+02
2.300000e-06	2.580345e-06	3.229208e-09	1.834289e+01	2.104193e+02
2.310000e-06	2.434372e-06	3.150733e-09	1.730521e+01	2.052570e+02
2.320000e-06	2.287665e-06	3.070182e-09	1.626231e+01	1.999417e+02
2.330000e-06	2.140113e-06	2.985055e-09	1.521341e+01	1.944622e+02
2.340000e-06	1.991739e-06	2.895067e-09	1.415866e+01	1.888067e+02
2.350000e-06	1.842741e-06	2.802827e-09	1.309949e+01	1.829630e+02
2.360000e-06	1.693238e-06	2.711732e-09	1.203671e+01	1.769202e+02
2.370000e-06	1.543245e-06	2.619203e-09	1.097046e+01	1.706688e+02
2.380000e-06	1.392738e-06	2.522658e-09	9.900554e+00	1.642013e+02
2.390000e-06	1.241780e-06	2.420793e-09	8.827440e+00	1.575125e+02
2.400000e-06	1.090321e-06	2.313972e-09	7.750761e+00	1.505986e+02
2.410000e-06	9.384674e-07	2.203031e-09	6.671280e+00	1.434570e+02
2.420000e-06	7.863570e-07	2.089157e-09	5.589973e+00	1.360844e+02
2.430000e-06	6.339573e-07	1.975487e-09	4.506610e+00	1.284756e+02
2.440000e-06	4.813083e-07	1.858656e-09	3.421474e+00	1.206221e+02
2.450000e-06	3.284577e-07	1.736517e-09	2.334906e+00	1.125103e+02
2.460000e-06	1.755070e-07	1.609453e-09	1.247626e+00	1.041211e+02
2.470000e-06	2.249538e-08	1.476117e-09	1.599128e-01	9.542920e+01
2.480000e-06	-1.305790e-07	1.338079e-09	-9.282467e-01	8.640433e+01
2.490000e-06	-2.836433e-07	1.194479e-09	-2.016334e+00	7.701251e+01
2.500000e-06	-4.366149e-07	1.043506e-09	-3.103763e+00	6.721879e+01
2.510000e-06	-5.894176e-07	8.875262e-10	-4.189990e+00	5.699053e+01
2.520000e-06	-7.420500e-07	7.242766e-10	-5.275008e+00	4.630132e+01
2.530000e-06	-8.944518e-07	5.534043e-10	-6.358386e+00	3.513501e+01
2.540000e-06	-1.046509e-06	3.766969e-10	-7.439318e+00	2.348947e+01
2.550000e-06	-1.198171e-06	1.927656e-10	-8.517434e+00	1.137978e+01
2.560000e-06	-1.349444e-06	1.350913e-12	-9.592786e+00	-1.159747e+00
2.570000e-06	-1.500266e-06	-1.962700e-10	-1.066494e+01	-1.407479e+01
2.580000e-06	-1.650484e-06	-3.984232e-10	-1.173279e+01	-2.729181e+01
2.590000e-06	-1.800011e-06	-6.064465e-10	-1.279573e+01	-4.072042e+01
2.600000e-06	-1.948913e-06	-8.181150e-10	-1.385423e+01	-5.425715e+01
2.610000e-06	-2.097165e-06	-1.030295e-09	-1.490811e+01	-6.779031e+01
2.620000e-06	-2.244577e-06	-1.241229e-09	-1.595602e+01	-8.120568e+01
2.630000e-06	-2.391088e-06	-1.448676e-09	-1.699752e+01	-9.439238e+01
2.640000e-06	-2.536771e-06	-1.649662e-09	-1.803314e+01	-1.072485e+02
2.650000e-06	-2.681519e-06	-1.839928e-09	-1.906211e+01	-1.196859e+02
2.660000e-06	-2.825170e-06	-2.019877e-09	-2.008327e+01	-1.316339e+02
2.670000e-06	-2.967703e-06	-2.189655e-09	-2.109650e+01	-1.430419e+02
2.680000e-06	-3.109056e-06	-2.349755e-09	-2.210133e+01	-1.538796e+02
2.690000e-06	-3.249192e-06	-2.503605e-09	-2.309752e+01	-1.641361e+02
2.700000e-06	-3.388065e-06	-2.652158e-09	-2.408473e+01	-1.738183e+02
2.710000e-06	-3.525695e-06	-2.795517e-09	-2.506309e+01	-1.829470e+02
2.720000e-06	-3.662004e-06	-2.930516e-09	-2.603207e+01	-1.915536e+02
2.730000e-06	-3.796922e-06	-3.056611e-09	-2.699117e+01	-1.996756e+02
2.740000e-06	-3.930535e-06	-3.175302e-09	-2.794098e+01	-2.073529e+02
2.750000e-06	-4.062733e-06	-3.285998e-09	-2.888073e+01	-2.146244e+02
2.760000e-06	-4.193457e-06	-3.389605e-09	-2.981001e+01	-2.215261e+02
2.770000e-06	-4.322792e-06	-3.487198e-09	-3.072941e+01	-2.280889e+02
2.780000e-06	-4.450658e-06	-3.583056e-09	-3.163838e+01	-2.343383e+02
2.790000e-06	-4.576982e-06	-3.677743e-09	-3.253638e+01	-2.402952e+02
2.800000e-06	-4.701734e-06	-3.766474e-09	-3.342320e+01	-2.459761e+02
2.810000e-06	-4.824805e-06	-3.848486e-09	-3.429807e+01	-2.513949e+02
2.820000e-06	-4.946180e-06	-3.925474e-09	-3.516089e+01	-2.565638e+02
2.830000e-06	-5.065732e-06	-3.999413e-09	-3.601075e+01	-2.614950e+02
2.840000e-06	-5.183238e-06	-4.070388e-09	-3.684607e+01	-2.662012e+02
2.850000e-06	-5.298626e-06	-4.137650e-09	-3.766632e+01	-2.706959e+02
2.860000e-06	-5.411829e-06	-4.202907e-09	-3.847105e+01	-2.749931e+02
2.870000e-06	-5.522830e-06	-4.268030e-09	-3.926012e+01	-2.791071e+02
2.880000e-06	-5.631854e-06	-4.331787e-09	-4.003514e+01	-2.830514e+02
2.890000e-06	-5.739024e-06	-4.393474e-09	-4.079698e+01	-2.868375e+02
2.900000e-06	-5.844223e-06	-4.452390e-09	-4.154481e+01	-2.904745e+02
2.910000e-06	-5.947269e-06	-4.508775e-09	-4.227733e+01	-2.939683e+02
2.920000e-06	-6.048016e-06	-4.561303e-09	-4.299351e+01	-2.973214e+02
2.930000e-06	-6.146588e-06	-4.608924e-09	-4.369423e+01	-3.005333e+02
2.940000e-06	-6.243027e-06	-4.654945e-09	-4.437978e+01	-3.036011e+02
