# Temperatura_=_42.72
# Concentracion g/m^3_=_5000.0
# C_Vs_to_Am_M_A/Vsm_=_65563218390.804596
# pendiente_HvsI_1/m_=_3716.3
# ordenada_HvsI_A/m_=_1297.0
# frecuencia_Hz_=_302509.1305662635

Tiempo_(s)	Campo_(V.s)	Magnetizacion_(V.s)	Campo_(kA/m)	Magnetizacion_(A/m)
0.000000e+00	-8.018548e-06	-5.580313e-09	-5.686886e+01	-3.653403e+02
1.000000e-08	-8.014717e-06	-5.583774e-09	-5.684169e+01	-3.651077e+02
2.000000e-08	-8.008335e-06	-5.579071e-09	-5.679643e+01	-3.647984e+02
3.000000e-08	-7.999309e-06	-5.574276e-09	-5.673241e+01	-3.644231e+02
4.000000e-08	-7.987426e-06	-5.570467e-09	-5.664814e+01	-3.639943e+02
5.000000e-08	-7.972562e-06	-5.563380e-09	-5.654272e+01	-3.635254e+02
6.000000e-08	-7.954905e-06	-5.550755e-09	-5.641749e+01	-3.630289e+02
7.000000e-08	-7.934893e-06	-5.536828e-09	-5.627556e+01	-3.625153e+02
8.000000e-08	-7.912386e-06	-5.532265e-09	-5.611594e+01	-3.619918e+02
9.000000e-08	-7.886752e-06	-5.598033e-09	-5.593414e+01	-3.614618e+02
1.000000e-07	-7.857885e-06	-5.591534e-09	-5.572941e+01	-3.609244e+02
1.100000e-07	-7.826134e-06	-5.524257e-09	-5.550423e+01	-3.603748e+02
1.200000e-07	-7.791578e-06	-5.504474e-09	-5.525915e+01	-3.598048e+02
1.300000e-07	-7.754459e-06	-5.497156e-09	-5.499589e+01	-3.592034e+02
1.400000e-07	-7.715186e-06	-5.448185e-09	-5.471736e+01	-3.585583e+02
1.500000e-07	-7.673677e-06	-5.381823e-09	-5.442298e+01	-3.578569e+02
1.600000e-07	-7.629536e-06	-5.483771e-09	-5.410992e+01	-3.570872e+02
1.700000e-07	-7.582693e-06	-5.417462e-09	-5.377770e+01	-3.562386e+02
1.800000e-07	-7.533063e-06	-5.349952e-09	-5.342572e+01	-3.553030e+02
1.900000e-07	-7.480391e-06	-5.452308e-09	-5.305216e+01	-3.542746e+02
2.000000e-07	-7.424854e-06	-5.376358e-09	-5.265828e+01	-3.531505e+02
2.100000e-07	-7.366561e-06	-5.357533e-09	-5.224486e+01	-3.519300e+02
2.200000e-07	-7.305552e-06	-5.338205e-09	-5.181218e+01	-3.506147e+02
2.300000e-07	-7.241936e-06	-5.297080e-09	-5.136100e+01	-3.492079e+02
2.400000e-07	-7.175577e-06	-5.291000e-09	-5.089037e+01	-3.477140e+02
2.500000e-07	-7.106509e-06	-5.236124e-09	-5.040053e+01	-3.461379e+02
2.600000e-07	-7.034760e-06	-5.246534e-09	-4.989168e+01	-3.444848e+02
2.700000e-07	-6.960193e-06	-5.209703e-09	-4.936283e+01	-3.427595e+02
2.800000e-07	-6.882799e-06	-5.171323e-09	-4.881394e+01	-3.409663e+02
2.900000e-07	-6.802574e-06	-5.134628e-09	-4.824497e+01	-3.391083e+02
3.000000e-07	-6.719822e-06	-5.126285e-09	-4.765808e+01	-3.371879e+02
3.100000e-07	-6.634856e-06	-5.126933e-09	-4.705549e+01	-3.352058e+02
3.200000e-07	-6.547563e-06	-5.051895e-09	-4.643640e+01	-3.331619e+02
3.300000e-07	-6.457841e-06	-5.039794e-09	-4.580007e+01	-3.310546e+02
3.400000e-07	-6.365820e-06	-5.012256e-09	-4.514744e+01	-3.288814e+02
3.500000e-07	-6.271565e-06	-4.973268e-09	-4.447897e+01	-3.266387e+02
3.600000e-07	-6.174959e-06	-4.925101e-09	-4.379382e+01	-3.243226e+02
3.700000e-07	-6.076075e-06	-4.893524e-09	-4.309252e+01	-3.219286e+02
3.800000e-07	-5.975032e-06	-4.870737e-09	-4.237591e+01	-3.194526e+02
3.900000e-07	-5.871920e-06	-4.816257e-09	-4.164462e+01	-3.168909e+02
4.000000e-07	-5.766704e-06	-4.782162e-09	-4.089841e+01	-3.142406e+02
4.100000e-07	-5.659415e-06	-4.740714e-09	-4.013750e+01	-3.114999e+02
4.200000e-07	-5.550192e-06	-4.705307e-09	-3.936288e+01	-3.086680e+02
4.300000e-07	-5.438996e-06	-4.642342e-09	-3.857426e+01	-3.057453e+02
4.400000e-07	-5.325719e-06	-4.595983e-09	-3.777088e+01	-3.027328e+02
4.500000e-07	-5.210283e-06	-4.558840e-09	-3.695218e+01	-2.996319e+02
4.600000e-07	-5.092807e-06	-4.514760e-09	-3.611902e+01	-2.964438e+02
4.700000e-07	-4.973528e-06	-4.462176e-09	-3.527308e+01	-2.931691e+02
4.800000e-07	-4.852493e-06	-4.406517e-09	-3.441468e+01	-2.898071e+02
4.900000e-07	-4.729727e-06	-4.355157e-09	-3.354400e+01	-2.863554e+02
5.000000e-07	-4.605194e-06	-4.295004e-09	-3.266079e+01	-2.828100e+02
5.100000e-07	-4.478970e-06	-4.243669e-09	-3.176559e+01	-2.791652e+02
5.200000e-07	-4.351164e-06	-4.185834e-09	-3.085917e+01	-2.754141e+02
5.300000e-07	-4.221702e-06	-4.126364e-09	-2.994101e+01	-2.715490e+02
5.400000e-07	-4.090688e-06	-4.057097e-09	-2.901183e+01	-2.675623e+02
5.500000e-07	-3.958109e-06	-3.995922e-09	-2.807156e+01	-2.634474e+02
5.600000e-07	-3.824021e-06	-3.937937e-09	-2.712058e+01	-2.591991e+02
5.700000e-07	-3.688609e-06	-3.874495e-09	-2.616022e+01	-2.548144e+02
5.800000e-07	-3.551752e-06	-3.805797e-09	-2.518961e+01	-2.502925e+02
5.900000e-07	-3.413410e-06	-3.733015e-09	-2.420846e+01	-2.456347e+02
6.000000e-07	-3.273665e-06	-3.660327e-09	-2.321737e+01	-2.408440e+02
6.100000e-07	-3.132511e-06	-3.581851e-09	-2.221628e+01	-2.359238e+02
6.200000e-07	-2.990000e-06	-3.505918e-09	-2.120557e+01	-2.308775e+02
6.300000e-07	-2.846306e-06	-3.425452e-09	-2.018647e+01	-2.257065e+02
6.400000e-07	-2.701587e-06	-3.341943e-09	-1.916010e+01	-2.204099e+02
6.500000e-07	-2.555918e-06	-3.256804e-09	-1.812699e+01	-2.149832e+02
6.600000e-07	-2.409403e-06	-3.173435e-09	-1.708788e+01	-2.094183e+02
6.700000e-07	-2.262183e-06	-3.088954e-09	-1.604377e+01	-2.037035e+02
6.800000e-07	-2.114238e-06	-3.000394e-09	-1.499452e+01	-1.978244e+02
6.900000e-07	-1.965568e-06	-2.909066e-09	-1.394013e+01	-1.917647e+02
7.000000e-07	-1.816291e-06	-2.811164e-09	-1.288143e+01	-1.855077e+02
7.100000e-07	-1.666468e-06	-2.710746e-09	-1.181887e+01	-1.790382e+02
7.200000e-07	-1.516117e-06	-2.608167e-09	-1.075255e+01	-1.723435e+02
7.300000e-07	-1.365251e-06	-2.504583e-09	-9.682582e+00	-1.654141e+02
7.400000e-07	-1.213953e-06	-2.391859e-09	-8.609558e+00	-1.582447e+02
7.500000e-07	-1.062213e-06	-2.275897e-09	-7.533389e+00	-1.508331e+02
7.600000e-07	-9.099765e-07	-2.164003e-09	-6.453703e+00	-1.431797e+02
7.700000e-07	-7.573668e-07	-2.048793e-09	-5.371369e+00	-1.352852e+02
7.800000e-07	-6.045059e-07	-1.926690e-09	-4.287255e+00	-1.271487e+02
7.900000e-07	-4.513990e-07	-1.798475e-09	-3.201396e+00	-1.187655e+02
8.000000e-07	-2.980732e-07	-1.667204e-09	-2.113984e+00	-1.101246e+02
8.100000e-07	-1.446296e-07	-1.526317e-09	-1.025737e+00	-1.012078e+02
8.200000e-07	8.851226e-09	-1.379205e-09	6.277435e-02	-9.198905e+01
8.300000e-07	1.623927e-07	-1.229895e-09	1.151716e+00	-8.243497e+01
8.400000e-07	3.159071e-07	-1.075964e-09	2.240465e+00	-7.250721e+01
8.500000e-07	4.693233e-07	-9.156672e-10	3.328518e+00	-6.216550e+01
8.600000e-07	6.226861e-07	-7.507630e-10	4.416192e+00	-5.137194e+01
8.700000e-07	7.758868e-07	-5.826462e-10	5.502716e+00	-4.009591e+01
8.800000e-07	9.287758e-07	-4.056762e-10	6.587031e+00	-2.831903e+01
8.900000e-07	1.081279e-06	-2.200210e-10	7.668606e+00	-1.603974e+01
9.000000e-07	1.233356e-06	-2.819718e-11	8.747162e+00	-3.276898e+00
9.100000e-07	1.384971e-06	1.680179e-10	9.822440e+00	9.928074e+00
9.200000e-07	1.536107e-06	3.725875e-10	1.089432e+01	2.351078e+01
9.300000e-07	1.686652e-06	5.832314e-10	1.196201e+01	3.738543e+01
9.400000e-07	1.836523e-06	7.962132e-10	1.302493e+01	5.144823e+01
9.500000e-07	1.985791e-06	1.011151e-09	1.408355e+01	6.558248e+01
9.600000e-07	2.134421e-06	1.225589e-09	1.513767e+01	7.966477e+01
9.700000e-07	2.282231e-06	1.437822e-09	1.618596e+01	9.357185e+01
9.800000e-07	2.429115e-06	1.645427e-09	1.722768e+01	1.071874e+02
9.900000e-07	2.575119e-06	1.846517e-09	1.826317e+01	1.204084e+02
1.000000e-06	2.720217e-06	2.036688e-09	1.929223e+01	1.331496e+02
1.010000e-06	2.864310e-06	2.217186e-09	2.031416e+01	1.453473e+02
1.020000e-06	3.007346e-06	2.390789e-09	2.132859e+01	1.569608e+02
1.030000e-06	3.149214e-06	2.556795e-09	2.233474e+01	1.679716e+02
1.040000e-06	3.289785e-06	2.713978e-09	2.333170e+01	1.783814e+02
1.050000e-06	3.428940e-06	2.862368e-09	2.431861e+01	1.882087e+02
1.060000e-06	3.566707e-06	3.006608e-09	2.529567e+01	1.974844e+02
1.070000e-06	3.703136e-06	3.145041e-09	2.626325e+01	2.062470e+02
1.080000e-06	3.838177e-06	3.274489e-09	2.722098e+01	2.145381e+02
1.090000e-06	3.971842e-06	3.393299e-09	2.816896e+01	2.223984e+02
1.100000e-06	4.104097e-06	3.504537e-09	2.910693e+01	2.298649e+02
1.110000e-06	4.234889e-06	3.611249e-09	3.003453e+01	2.369694e+02
1.120000e-06	4.364203e-06	3.715040e-09	3.095165e+01	2.437374e+02
1.130000e-06	4.491979e-06	3.814763e-09	3.185785e+01	2.501892e+02
1.140000e-06	4.618202e-06	3.907177e-09	3.275305e+01	2.563406e+02
1.150000e-06	4.742896e-06	3.994447e-09	3.363740e+01	2.622051e+02
1.160000e-06	4.865912e-06	4.077878e-09	3.450984e+01	2.677953e+02
1.170000e-06	4.987200e-06	4.159273e-09	3.537004e+01	2.731243e+02
1.180000e-06	5.106698e-06	4.237018e-09	3.621754e+01	2.782072e+02
1.190000e-06	5.224323e-06	4.310700e-09	3.705176e+01	2.830609e+02
1.200000e-06	5.340021e-06	4.380397e-09	3.787231e+01	2.877039e+02
1.210000e-06	5.453620e-06	4.447999e-09	3.867797e+01	2.921553e+02
1.220000e-06	5.565098e-06	4.514988e-09	3.946859e+01	2.964334e+02
1.230000e-06	5.674610e-06	4.580303e-09	4.024527e+01	3.005544e+02
1.240000e-06	5.782233e-06	4.643407e-09	4.100855e+01	3.045310e+02
1.250000e-06	5.887722e-06	4.702016e-09	4.175669e+01	3.083713e+02
1.260000e-06	5.990949e-06	4.757986e-09	4.248879e+01	3.120786e+02
1.270000e-06	6.092000e-06	4.810119e-09	4.320546e+01	3.156518e+02
1.280000e-06	6.190795e-06	4.858312e-09	4.390613e+01	3.190857e+02
1.290000e-06	6.287210e-06	4.905446e-09	4.458993e+01	3.223732e+02
1.300000e-06	6.381327e-06	4.951495e-09	4.525742e+01	3.255062e+02
1.310000e-06	6.473249e-06	4.995851e-09	4.590934e+01	3.284780e+02
1.320000e-06	6.562832e-06	5.037080e-09	4.654468e+01	3.312842e+02
1.330000e-06	6.649993e-06	5.077259e-09	4.716284e+01	3.339244e+02
1.340000e-06	6.734871e-06	5.116483e-09	4.776481e+01	3.364022e+02
1.350000e-06	6.817413e-06	5.150657e-09	4.835022e+01	3.387255e+02
1.360000e-06	6.897468e-06	5.181830e-09	4.891798e+01	3.409055e+02
1.370000e-06	6.975031e-06	5.213614e-09	4.946807e+01	3.429556e+02
1.380000e-06	7.049935e-06	5.243802e-09	4.999930e+01	3.448900e+02
1.390000e-06	7.122126e-06	5.272643e-09	5.051128e+01	3.467218e+02
1.400000e-06	7.191811e-06	5.300076e-09	5.100550e+01	3.484623e+02
1.410000e-06	7.259032e-06	5.326432e-09	5.148225e+01	3.501190e+02
1.420000e-06	7.323623e-06	5.350279e-09	5.194034e+01	3.516961e+02
1.430000e-06	7.385617e-06	5.372153e-09	5.238001e+01	3.531939e+02
1.440000e-06	7.445137e-06	5.394193e-09	5.280213e+01	3.546099e+02
1.450000e-06	7.502029e-06	5.414385e-09	5.320563e+01	3.559396e+02
1.460000e-06	7.556208e-06	5.432298e-09	5.358987e+01	3.571778e+02
1.470000e-06	7.607386e-06	5.449147e-09	5.395283e+01	3.583202e+02
1.480000e-06	7.655433e-06	5.466432e-09	5.429359e+01	3.593644e+02
1.490000e-06	7.700762e-06	5.483280e-09	5.461507e+01	3.603109e+02
1.500000e-06	7.743433e-06	5.497428e-09	5.491770e+01	3.611633e+02
1.510000e-06	7.783232e-06	5.508916e-09	5.519996e+01	3.619280e+02
1.520000e-06	7.820287e-06	5.519105e-09	5.546276e+01	3.626138e+02
1.530000e-06	7.854591e-06	5.528637e-09	5.570605e+01	3.632307e+02
1.540000e-06	7.886025e-06	5.538567e-09	5.592898e+01	3.637884e+02
1.550000e-06	7.914726e-06	5.550550e-09	5.613254e+01	3.642953e+02
1.560000e-06	7.940617e-06	5.561866e-09	5.631616e+01	3.647571e+02
1.570000e-06	7.963598e-06	5.569587e-09	5.647914e+01	3.651761e+02
1.580000e-06	7.983845e-06	5.575761e-09	5.662274e+01	3.655512e+02
1.590000e-06	8.001286e-06	5.582986e-09	5.674644e+01	3.658775e+02
1.600000e-06	8.015709e-06	5.588480e-09	5.684873e+01	3.661478e+02
1.610000e-06	8.027007e-06	5.591050e-09	5.692885e+01	3.663533e+02
1.620000e-06	8.035184e-06	5.592680e-09	5.698685e+01	3.664850e+02
1.630000e-06	8.040452e-06	5.594439e-09	5.702420e+01	3.665353e+02
1.640000e-06	8.042890e-06	5.596552e-09	5.704150e+01	3.664992e+02
1.650000e-06	8.042476e-06	5.598772e-09	5.703856e+01	3.663751e+02
1.660000e-06	8.039375e-06	5.591788e-09	5.701657e+01	3.661654e+02
1.670000e-06	8.033583e-06	5.585806e-09	5.697549e+01	3.658766e+02
1.680000e-06	8.025072e-06	5.581719e-09	5.691513e+01	3.655185e+02
1.690000e-06	8.013897e-06	5.576501e-09	5.683587e+01	3.651032e+02
1.700000e-06	7.999900e-06	5.572399e-09	5.673661e+01	3.646440e+02
1.710000e-06	7.983258e-06	5.571433e-09	5.661858e+01	3.641538e+02
1.720000e-06	7.964293e-06	5.572019e-09	5.648407e+01	3.636437e+02
1.730000e-06	7.942886e-06	5.530032e-09	5.633225e+01	3.631221e+02
1.740000e-06	7.918393e-06	5.439924e-09	5.615855e+01	3.625934e+02
1.750000e-06	7.890313e-06	5.473727e-09	5.595939e+01	3.620580e+02
1.760000e-06	7.858781e-06	5.501679e-09	5.573577e+01	3.615122e+02
1.770000e-06	7.824458e-06	5.467331e-09	5.549234e+01	3.609486e+02
1.780000e-06	7.787844e-06	5.491933e-09	5.523267e+01	3.603569e+02
1.790000e-06	7.749025e-06	5.581756e-09	5.495735e+01	3.597252e+02
1.800000e-06	7.708145e-06	5.455552e-09	5.466743e+01	3.590407e+02
1.810000e-06	7.664853e-06	5.435284e-09	5.436039e+01	3.582912e+02
1.820000e-06	7.618843e-06	5.506513e-09	5.403409e+01	3.574657e+02
1.830000e-06	7.570098e-06	5.366543e-09	5.368838e+01	3.565552e+02
1.840000e-06	7.518357e-06	5.460685e-09	5.332142e+01	3.555533e+02
1.850000e-06	7.463671e-06	5.375463e-09	5.293358e+01	3.544563e+02
1.860000e-06	7.406233e-06	5.378936e-09	5.252622e+01	3.532628e+02
1.870000e-06	7.346190e-06	5.418290e-09	5.210039e+01	3.519739e+02
1.880000e-06	7.283458e-06	5.301616e-09	5.165548e+01	3.505924e+02
1.890000e-06	7.217829e-06	5.396030e-09	5.119003e+01	3.491225e+02
1.900000e-06	7.149387e-06	5.286545e-09	5.070463e+01	3.475689e+02
1.910000e-06	7.078118e-06	5.265886e-09	5.019918e+01	3.459368e+02
1.920000e-06	7.004128e-06	5.255337e-09	4.967443e+01	3.442313e+02
1.930000e-06	6.927473e-06	5.223228e-09	4.913078e+01	3.424567e+02
1.940000e-06	6.848063e-06	5.247631e-09	4.856759e+01	3.406165e+02
1.950000e-06	6.766090e-06	5.131506e-09	4.798622e+01	3.387133e+02
1.960000e-06	6.681649e-06	5.172296e-09	4.738735e+01	3.367484e+02
1.970000e-06	6.594722e-06	5.103574e-09	4.677085e+01	3.347218e+02
1.980000e-06	6.505348e-06	5.069035e-09	4.613700e+01	3.326324e+02
1.990000e-06	6.413731e-06	5.057112e-09	4.548723e+01	3.304779e+02
2.000000e-06	6.319874e-06	5.015975e-09	4.482158e+01	3.282550e+02
2.010000e-06	6.223662e-06	4.990780e-09	4.413924e+01	3.259599e+02
2.020000e-06	6.125242e-06	4.907165e-09	4.344123e+01	3.235882e+02
2.030000e-06	6.024700e-06	4.903120e-09	4.272816e+01	3.211356e+02
2.040000e-06	5.921987e-06	4.856443e-09	4.199970e+01	3.185983e+02
2.050000e-06	5.817133e-06	4.835095e-09	4.125606e+01	3.159731e+02
2.060000e-06	5.710360e-06	4.780141e-09	4.049881e+01	3.132579e+02
2.070000e-06	5.601718e-06	4.747122e-09	3.972831e+01	3.104517e+02
2.080000e-06	5.491080e-06	4.701563e-09	3.894364e+01	3.075544e+02
2.090000e-06	5.378368e-06	4.645107e-09	3.814427e+01	3.045669e+02
2.100000e-06	5.263606e-06	4.609820e-09	3.733036e+01	3.014907e+02
2.110000e-06	5.146778e-06	4.561354e-09	3.650179e+01	2.983270e+02
2.120000e-06	5.027900e-06	4.512337e-09	3.565869e+01	2.950767e+02
2.130000e-06	4.907138e-06	4.447546e-09	3.480223e+01	2.917393e+02
2.140000e-06	4.784588e-06	4.411983e-09	3.393309e+01	2.883131e+02
2.150000e-06	4.660360e-06	4.360671e-09	3.305204e+01	2.847946e+02
2.160000e-06	4.534469e-06	4.309791e-09	3.215920e+01	2.811784e+02
2.170000e-06	4.406903e-06	4.242093e-09	3.125448e+01	2.774580e+02
2.180000e-06	4.277665e-06	4.186988e-09	3.033790e+01	2.736258e+02
2.190000e-06	4.146874e-06	4.125126e-09	2.941031e+01	2.696741e+02
2.200000e-06	4.014625e-06	4.064183e-09	2.847238e+01	2.655960e+02
2.210000e-06	3.880857e-06	4.001839e-09	2.752367e+01	2.613858e+02
2.220000e-06	3.745549e-06	3.933891e-09	2.656405e+01	2.570399e+02
2.230000e-06	3.608765e-06	3.862532e-09	2.559396e+01	2.525567e+02
2.240000e-06	3.470635e-06	3.789661e-09	2.461431e+01	2.479370e+02
2.250000e-06	3.331242e-06	3.724778e-09	2.362572e+01	2.431835e+02
2.260000e-06	3.190564e-06	3.652499e-09	2.262800e+01	2.382995e+02
2.270000e-06	3.048574e-06	3.576438e-09	2.162099e+01	2.332886e+02
2.280000e-06	2.905399e-06	3.493243e-09	2.060556e+01	2.281527e+02
2.290000e-06	2.761083e-06	3.414272e-09	1.958205e+01	2.228918e+02
2.300000e-06	2.615794e-06	3.331803e-09	1.855164e+01	2.175025e+02
2.310000e-06	2.469679e-06	3.253605e-09	1.751537e+01	2.119777e+02
2.320000e-06	2.322748e-06	3.170647e-09	1.647331e+01	2.063068e+02
2.330000e-06	2.175093e-06	3.076747e-09	1.542612e+01	2.004758e+02
2.340000e-06	2.026736e-06	2.977562e-09	1.437394e+01	1.944689e+02
2.350000e-06	1.877567e-06	2.882120e-09	1.331602e+01	1.882695e+02
2.360000e-06	1.727699e-06	2.788708e-09	1.225313e+01	1.818618e+02
2.370000e-06	1.577387e-06	2.688062e-09	1.118709e+01	1.752320e+02
2.380000e-06	1.426631e-06	2.582617e-09	1.011790e+01	1.683700e+02
2.390000e-06	1.275407e-06	2.473784e-09	9.045395e+00	1.612690e+02
2.400000e-06	1.123792e-06	2.359763e-09	7.970117e+00	1.539263e+02
2.410000e-06	9.717201e-07	2.243098e-09	6.891598e+00	1.463414e+02
2.420000e-06	8.192000e-07	2.125727e-09	5.809901e+00	1.385154e+02
2.430000e-06	6.663746e-07	2.004640e-09	4.726038e+00	1.304479e+02
2.440000e-06	5.133362e-07	1.876364e-09	3.640664e+00	1.221355e+02
2.450000e-06	3.601108e-07	1.746747e-09	2.553965e+00	1.135693e+02
2.460000e-06	2.067261e-07	1.617938e-09	1.466136e+00	1.047333e+02
2.470000e-06	5.326097e-08	1.479874e-09	3.777355e-01	9.560343e+01
2.480000e-06	-1.002274e-07	1.331520e-09	-7.108288e-01	8.614847e+01
2.490000e-06	-2.536677e-07	1.178741e-09	-1.799053e+00	7.633114e+01
2.500000e-06	-4.070285e-07	1.023317e-09	-2.886713e+00	6.611132e+01
2.510000e-06	-5.602818e-07	8.626244e-10	-3.973610e+00	5.544996e+01
2.520000e-06	-7.134023e-07	6.938942e-10	-5.059567e+00	4.431385e+01
2.530000e-06	-8.662989e-07	5.167653e-10	-6.143934e+00	3.268061e+01
2.540000e-06	-1.018863e-06	3.296432e-10	-7.225942e+00	2.054346e+01
2.550000e-06	-1.171026e-06	1.353036e-10	-8.305108e+00	7.915116e+00
2.560000e-06	-1.322679e-06	-6.220820e-11	-9.380658e+00	-5.169548e+00
2.570000e-06	-1.473784e-06	-2.658664e-10	-1.045232e+01	-1.865263e+01
2.580000e-06	-1.624418e-06	-4.779351e-10	-1.152064e+01	-3.245419e+01
2.590000e-06	-1.774565e-06	-6.978202e-10	-1.258551e+01	-4.647512e+01
2.600000e-06	-1.924105e-06	-9.197511e-10	-1.364607e+01	-6.060182e+01
2.610000e-06	-2.072849e-06	-1.139497e-09	-1.470099e+01	-7.471211e+01
2.620000e-06	-2.220719e-06	-1.357390e-09	-1.574970e+01	-8.868197e+01
2.630000e-06	-2.367700e-06	-1.570020e-09	-1.679212e+01	-1.023925e+02
2.640000e-06	-2.513813e-06	-1.777046e-09	-1.782838e+01	-1.157361e+02
2.650000e-06	-2.659101e-06	-1.975467e-09	-1.885878e+01	-1.286223e+02
2.660000e-06	-2.803391e-06	-2.162608e-09	-1.988211e+01	-1.409810e+02
2.670000e-06	-2.946497e-06	-2.339349e-09	-2.089704e+01	-1.527647e+02
2.680000e-06	-3.088407e-06	-2.507026e-09	-2.190349e+01	-1.639487e+02
2.690000e-06	-3.229084e-06	-2.668059e-09	-2.290119e+01	-1.745294e+02
2.700000e-06	-3.368486e-06	-2.821867e-09	-2.388985e+01	-1.845209e+02
2.710000e-06	-3.506667e-06	-2.967819e-09	-2.486986e+01	-1.939510e+02
2.720000e-06	-3.643554e-06	-3.105817e-09	-2.584068e+01	-2.028564e+02
2.730000e-06	-3.779023e-06	-3.235631e-09	-2.680145e+01	-2.112784e+02
2.740000e-06	-3.913110e-06	-3.358887e-09	-2.775242e+01	-2.192582e+02
2.750000e-06	-4.045839e-06	-3.477231e-09	-2.869375e+01	-2.268342e+02
2.760000e-06	-4.177142e-06	-3.588599e-09	-2.962498e+01	-2.340397e+02
2.770000e-06	-4.307073e-06	-3.691864e-09	-3.054647e+01	-2.409020e+02
2.780000e-06	-4.435552e-06	-3.789737e-09	-3.145766e+01	-2.474428e+02
2.790000e-06	-4.562414e-06	-3.884387e-09	-3.235739e+01	-2.536790e+02
2.800000e-06	-4.687705e-06	-3.975455e-09	-3.324597e+01	-2.596247e+02
2.810000e-06	-4.811366e-06	-4.061637e-09	-3.412300e+01	-2.652923e+02
2.820000e-06	-4.933321e-06	-4.143294e-09	-3.498793e+01	-2.706949e+02
2.830000e-06	-5.053467e-06	-4.221741e-09	-3.584002e+01	-2.758470e+02
2.840000e-06	-5.171619e-06	-4.296190e-09	-3.667797e+01	-2.807648e+02
2.850000e-06	-5.287735e-06	-4.366889e-09	-3.750148e+01	-2.854665e+02
2.860000e-06	-5.401687e-06	-4.435162e-09	-3.830965e+01	-2.899711e+02
2.870000e-06	-5.513377e-06	-4.501777e-09	-3.910177e+01	-2.942973e+02
2.880000e-06	-5.622974e-06	-4.566910e-09	-3.987905e+01	-2.984622e+02
2.890000e-06	-5.730691e-06	-4.631223e-09	-4.064300e+01	-3.024794e+02
2.900000e-06	-5.836542e-06	-4.693825e-09	-4.139372e+01	-3.063586e+02
2.910000e-06	-5.940248e-06	-4.752745e-09	-4.212921e+01	-3.101043e+02
2.920000e-06	-6.041683e-06	-4.807483e-09	-4.284861e+01	-3.137166e+02
2.930000e-06	-6.140917e-06	-4.859053e-09	-4.355239e+01	-3.171914e+02
2.940000e-06	-6.238002e-06	-4.909742e-09	-4.424094e+01	-3.205219e+02
