# Temperatura_=_44.6
# Concentracion g/m^3_=_5000.0
# C_Vs_to_Am_M_A/Vsm_=_65563218390.804596
# pendiente_HvsI_1/m_=_3716.3
# ordenada_HvsI_A/m_=_1297.0
# frecuencia_Hz_=_302508.88620982517

Tiempo_(s)	Campo_(V.s)	Magnetizacion_(V.s)	Campo_(kA/m)	Magnetizacion_(A/m)
0.000000e+00	-8.024205e-06	-5.654826e-09	-5.686572e+01	-3.694909e+02
1.000000e-08	-8.020270e-06	-5.655047e-09	-5.683783e+01	-3.692495e+02
2.000000e-08	-8.013788e-06	-5.647789e-09	-5.679189e+01	-3.689294e+02
3.000000e-08	-8.004610e-06	-5.640052e-09	-5.672686e+01	-3.685421e+02
4.000000e-08	-7.992495e-06	-5.635002e-09	-5.664100e+01	-3.681013e+02
5.000000e-08	-7.977357e-06	-5.629094e-09	-5.653372e+01	-3.676212e+02
6.000000e-08	-7.959490e-06	-5.620605e-09	-5.640710e+01	-3.671151e+02
7.000000e-08	-7.939334e-06	-5.612830e-09	-5.626426e+01	-3.665939e+02
8.000000e-08	-7.916684e-06	-5.608213e-09	-5.610374e+01	-3.660647e+02
9.000000e-08	-7.890949e-06	-5.659179e-09	-5.592136e+01	-3.655307e+02
1.000000e-07	-7.861950e-06	-5.652648e-09	-5.571585e+01	-3.649901e+02
1.100000e-07	-7.830019e-06	-5.591917e-09	-5.548957e+01	-3.644371e+02
1.200000e-07	-7.795306e-06	-5.566830e-09	-5.524356e+01	-3.638625e+02
1.300000e-07	-7.758036e-06	-5.557055e-09	-5.497944e+01	-3.632543e+02
1.400000e-07	-7.718569e-06	-5.516610e-09	-5.469975e+01	-3.625995e+02
1.500000e-07	-7.676902e-06	-5.456821e-09	-5.440446e+01	-3.618850e+02
1.600000e-07	-7.632671e-06	-5.557871e-09	-5.409100e+01	-3.610986e+02
1.700000e-07	-7.585599e-06	-5.501247e-09	-5.375742e+01	-3.602301e+02
1.800000e-07	-7.535657e-06	-5.423428e-09	-5.340349e+01	-3.592719e+02
1.900000e-07	-7.482729e-06	-5.500044e-09	-5.302840e+01	-3.582190e+02
2.000000e-07	-7.426932e-06	-5.411006e-09	-5.263298e+01	-3.570690e+02
2.100000e-07	-7.368439e-06	-5.391725e-09	-5.221846e+01	-3.558221e+02
2.200000e-07	-7.307275e-06	-5.390854e-09	-5.178500e+01	-3.544803e+02
2.300000e-07	-7.243487e-06	-5.356548e-09	-5.133295e+01	-3.530472e+02
2.400000e-07	-7.176940e-06	-5.350788e-09	-5.086134e+01	-3.515270e+02
2.500000e-07	-7.107617e-06	-5.309055e-09	-5.037007e+01	-3.499245e+02
2.600000e-07	-7.035566e-06	-5.306979e-09	-4.985946e+01	-3.482440e+02
2.700000e-07	-6.960700e-06	-5.265953e-09	-4.932890e+01	-3.464899e+02
2.800000e-07	-6.883029e-06	-5.240628e-09	-4.877846e+01	-3.446654e+02
2.900000e-07	-6.802618e-06	-5.200744e-09	-4.820861e+01	-3.427732e+02
3.000000e-07	-6.719705e-06	-5.175402e-09	-4.762103e+01	-3.408148e+02
3.100000e-07	-6.634557e-06	-5.176695e-09	-4.701760e+01	-3.387908e+02
3.200000e-07	-6.547084e-06	-5.107275e-09	-4.639770e+01	-3.367007e+02
3.300000e-07	-6.457232e-06	-5.082853e-09	-4.576094e+01	-3.345431e+02
3.400000e-07	-6.365046e-06	-5.054439e-09	-4.510764e+01	-3.323155e+02
3.500000e-07	-6.270556e-06	-5.017666e-09	-4.443801e+01	-3.300147e+02
3.600000e-07	-6.173794e-06	-4.977114e-09	-4.375228e+01	-3.276371e+02
3.700000e-07	-6.074718e-06	-4.948199e-09	-4.305015e+01	-3.251786e+02
3.800000e-07	-5.973445e-06	-4.922180e-09	-4.233245e+01	-3.226354e+02
3.900000e-07	-5.870091e-06	-4.868136e-09	-4.160001e+01	-3.200041e+02
4.000000e-07	-5.764681e-06	-4.828725e-09	-4.085298e+01	-3.172820e+02
4.100000e-07	-5.657282e-06	-4.777855e-09	-4.009187e+01	-3.144677e+02
4.200000e-07	-5.547899e-06	-4.742374e-09	-3.931670e+01	-3.115607e+02
4.300000e-07	-5.436525e-06	-4.691039e-09	-3.852742e+01	-3.085619e+02
4.400000e-07	-5.323043e-06	-4.641576e-09	-3.772320e+01	-3.054728e+02
4.500000e-07	-5.207401e-06	-4.596523e-09	-3.690367e+01	-3.022956e+02
4.600000e-07	-5.089813e-06	-4.550133e-09	-3.607035e+01	-2.990324e+02
4.700000e-07	-4.970423e-06	-4.495917e-09	-3.522426e+01	-2.956845e+02
4.800000e-07	-4.849188e-06	-4.439554e-09	-3.436509e+01	-2.922521e+02
4.900000e-07	-4.726139e-06	-4.392215e-09	-3.349307e+01	-2.887336e+02
5.000000e-07	-4.601394e-06	-4.334284e-09	-3.260903e+01	-2.851255e+02
5.100000e-07	-4.475012e-06	-4.278058e-09	-3.171340e+01	-2.814223e+02
5.200000e-07	-4.347015e-06	-4.216525e-09	-3.080631e+01	-2.776170e+02
5.300000e-07	-4.217366e-06	-4.156234e-09	-2.988751e+01	-2.737014e+02
5.400000e-07	-4.086161e-06	-4.087462e-09	-2.895770e+01	-2.696673e+02
5.500000e-07	-3.953450e-06	-4.020854e-09	-2.801720e+01	-2.655068e+02
5.600000e-07	-3.819270e-06	-3.958758e-09	-2.706630e+01	-2.612137e+02
5.700000e-07	-3.683679e-06	-3.896294e-09	-2.610540e+01	-2.567836e+02
5.800000e-07	-3.546572e-06	-3.829482e-09	-2.513375e+01	-2.522144e+02
5.900000e-07	-3.407979e-06	-3.756362e-09	-2.415158e+01	-2.475065e+02
6.000000e-07	-3.267975e-06	-3.681577e-09	-2.315940e+01	-2.426618e+02
6.100000e-07	-3.126614e-06	-3.600324e-09	-2.215760e+01	-2.376834e+02
6.200000e-07	-2.983925e-06	-3.520547e-09	-2.114640e+01	-2.325742e+02
6.300000e-07	-2.840054e-06	-3.440612e-09	-2.012682e+01	-2.273356e+02
6.400000e-07	-2.695182e-06	-3.361592e-09	-1.910014e+01	-2.219670e+02
6.500000e-07	-2.549371e-06	-3.278507e-09	-1.806681e+01	-2.164641e+02
6.600000e-07	-2.402711e-06	-3.192473e-09	-1.702747e+01	-2.108194e+02
6.700000e-07	-2.255319e-06	-3.104152e-09	-1.598293e+01	-2.050216e+02
6.800000e-07	-2.107225e-06	-3.011536e-09	-1.493343e+01	-1.990565e+02
6.900000e-07	-1.958464e-06	-2.916809e-09	-1.387919e+01	-1.929082e+02
7.000000e-07	-1.809063e-06	-2.815834e-09	-1.282042e+01	-1.865604e+02
7.100000e-07	-1.659037e-06	-2.712779e-09	-1.175722e+01	-1.799981e+02
7.200000e-07	-1.508468e-06	-2.608972e-09	-1.069017e+01	-1.732086e+02
7.300000e-07	-1.357391e-06	-2.504894e-09	-9.619520e+00	-1.661827e+02
7.400000e-07	-1.205859e-06	-2.394516e-09	-8.545653e+00	-1.589150e+02
7.500000e-07	-1.053883e-06	-2.280513e-09	-7.468631e+00	-1.514033e+02
7.600000e-07	-9.014911e-07	-2.166845e-09	-6.388663e+00	-1.436477e+02
7.700000e-07	-7.487446e-07	-2.048992e-09	-5.306183e+00	-1.356487e+02
7.800000e-07	-5.957258e-07	-1.924749e-09	-4.221773e+00	-1.274047e+02
7.900000e-07	-4.424665e-07	-1.793485e-09	-3.135659e+00	-1.189101e+02
8.000000e-07	-2.890060e-07	-1.656211e-09	-2.048120e+00	-1.101530e+02
8.100000e-07	-1.354353e-07	-1.511305e-09	-9.597995e-01	-1.011136e+02
8.200000e-07	1.819976e-08	-1.363956e-09	1.289775e-01	-9.176444e+01
8.300000e-07	1.718638e-07	-1.214318e-09	1.217960e+00	-8.207083e+01
8.400000e-07	3.255189e-07	-1.060425e-09	2.306878e+00	-7.199318e+01
8.500000e-07	4.790644e-07	-8.997853e-10	3.395021e+00	-6.149053e+01
8.600000e-07	6.324559e-07	-7.325912e-10	4.482071e+00	-5.052503e+01
8.700000e-07	7.856408e-07	-5.614389e-10	5.567658e+00	-3.906698e+01
8.800000e-07	9.385761e-07	-3.818373e-10	6.651476e+00	-2.709995e+01
8.900000e-07	1.091248e-06	-1.942176e-10	7.733424e+00	-1.462541e+01
9.000000e-07	1.243539e-06	8.437549e-13	8.812681e+00	-1.666214e+00
9.100000e-07	1.395312e-06	2.027751e-10	9.888260e+00	1.173145e+01
9.200000e-07	1.546480e-06	4.122659e-10	1.095955e+01	2.549800e+01
9.300000e-07	1.697021e-06	6.256960e-10	1.202640e+01	3.954242e+01
9.400000e-07	1.846964e-06	8.395350e-10	1.308902e+01	5.375618e+01
9.500000e-07	1.996266e-06	1.054697e-09	1.414709e+01	6.801871e+01
9.600000e-07	2.144857e-06	1.270033e-09	1.520011e+01	8.220409e+01
9.700000e-07	2.292674e-06	1.483963e-09	1.624766e+01	9.618818e+01
9.800000e-07	2.439659e-06	1.691989e-09	1.728931e+01	1.098556e+02
9.900000e-07	2.585811e-06	1.892236e-09	1.832506e+01	1.231058e+02
1.000000e-06	2.731051e-06	2.082334e-09	1.935434e+01	1.358580e+02
1.010000e-06	2.875229e-06	2.263333e-09	2.037610e+01	1.480538e+02
1.020000e-06	3.018261e-06	2.435879e-09	2.138973e+01	1.596586e+02
1.030000e-06	3.160113e-06	2.600588e-09	2.239501e+01	1.706599e+02
1.040000e-06	3.300721e-06	2.757554e-09	2.339146e+01	1.810653e+02
1.050000e-06	3.439965e-06	2.906833e-09	2.437825e+01	1.908978e+02
1.060000e-06	3.577846e-06	3.050676e-09	2.535538e+01	2.001917e+02
1.070000e-06	3.714376e-06	3.188523e-09	2.632294e+01	2.089870e+02
1.080000e-06	3.849482e-06	3.317978e-09	2.728040e+01	2.173249e+02
1.090000e-06	3.983181e-06	3.437600e-09	2.822790e+01	2.252445e+02
1.100000e-06	4.115501e-06	3.550918e-09	2.916562e+01	2.327797e+02
1.110000e-06	4.246360e-06	3.659574e-09	3.009299e+01	2.399583e+02
1.120000e-06	4.375707e-06	3.765245e-09	3.100964e+01	2.468017e+02
1.130000e-06	4.503454e-06	3.864538e-09	3.191496e+01	2.533261e+02
1.140000e-06	4.629606e-06	3.956657e-09	3.280897e+01	2.595443e+02
1.150000e-06	4.754258e-06	4.045595e-09	3.369235e+01	2.654674e+02
1.160000e-06	4.877290e-06	4.130841e-09	3.456425e+01	2.711072e+02
1.170000e-06	4.998593e-06	4.212557e-09	3.542389e+01	2.764773e+02
1.180000e-06	5.118080e-06	4.288125e-09	3.627067e+01	2.815942e+02
1.190000e-06	5.235699e-06	4.358768e-09	3.710421e+01	2.864772e+02
1.200000e-06	5.351354e-06	4.428673e-09	3.792383e+01	2.911474e+02
1.210000e-06	5.464885e-06	4.498981e-09	3.872840e+01	2.956267e+02
1.220000e-06	5.576313e-06	4.567663e-09	3.951807e+01	2.999358e+02
1.230000e-06	5.685808e-06	4.632008e-09	4.029403e+01	3.040922e+02
1.240000e-06	5.793350e-06	4.695091e-09	4.105616e+01	3.081091e+02
1.250000e-06	5.898783e-06	4.754458e-09	4.180334e+01	3.119941e+02
1.260000e-06	6.001977e-06	4.810078e-09	4.253465e+01	3.157492e+02
1.270000e-06	6.102982e-06	4.861813e-09	4.325045e+01	3.193708e+02
1.280000e-06	6.201720e-06	4.910438e-09	4.395019e+01	3.228516e+02
1.290000e-06	6.298042e-06	4.957361e-09	4.463279e+01	3.261818e+02
1.300000e-06	6.392075e-06	5.002038e-09	4.529918e+01	3.293515e+02
1.310000e-06	6.483872e-06	5.046466e-09	4.594973e+01	3.323527e+02
1.320000e-06	6.573357e-06	5.090267e-09	4.658389e+01	3.351808e+02
1.330000e-06	6.660452e-06	5.133149e-09	4.720111e+01	3.378361e+02
1.340000e-06	6.745263e-06	5.171260e-09	4.780215e+01	3.403239e+02
1.350000e-06	6.827768e-06	5.204237e-09	4.838684e+01	3.426544e+02
1.360000e-06	6.907808e-06	5.235987e-09	4.895407e+01	3.448414e+02
1.370000e-06	6.985304e-06	5.267383e-09	4.950326e+01	3.469013e+02
1.380000e-06	7.060104e-06	5.296709e-09	5.003336e+01	3.488502e+02
1.390000e-06	7.132193e-06	5.324922e-09	5.054424e+01	3.507031e+02
1.400000e-06	7.201763e-06	5.353551e-09	5.103726e+01	3.524715e+02
1.410000e-06	7.268818e-06	5.381706e-09	5.151246e+01	3.541628e+02
1.420000e-06	7.333251e-06	5.408127e-09	5.196908e+01	3.557795e+02
1.430000e-06	7.395151e-06	5.432945e-09	5.240775e+01	3.573198e+02
1.440000e-06	7.454546e-06	5.455565e-09	5.282867e+01	3.587783e+02
1.450000e-06	7.511278e-06	5.473027e-09	5.323072e+01	3.601476e+02
1.460000e-06	7.565274e-06	5.488421e-09	5.361338e+01	3.614197e+02
1.470000e-06	7.616281e-06	5.505213e-09	5.397485e+01	3.625882e+02
1.480000e-06	7.664197e-06	5.521889e-09	5.431442e+01	3.636493e+02
1.490000e-06	7.709372e-06	5.538643e-09	5.463457e+01	3.646030e+02
1.500000e-06	7.751870e-06	5.553791e-09	5.493574e+01	3.654534e+02
1.510000e-06	7.791536e-06	5.566461e-09	5.521685e+01	3.662085e+02
1.520000e-06	7.828469e-06	5.577100e-09	5.547859e+01	3.668791e+02
1.530000e-06	7.862702e-06	5.587131e-09	5.572118e+01	3.674774e+02
1.540000e-06	7.894089e-06	5.597443e-09	5.594362e+01	3.680157e+02
1.550000e-06	7.922688e-06	5.607405e-09	5.614629e+01	3.685046e+02
1.560000e-06	7.948388e-06	5.615584e-09	5.632842e+01	3.689512e+02
1.570000e-06	7.971124e-06	5.621513e-09	5.648955e+01	3.693591e+02
1.580000e-06	7.991188e-06	5.626731e-09	5.663174e+01	3.697270e+02
1.590000e-06	8.008466e-06	5.632101e-09	5.675418e+01	3.700500e+02
1.600000e-06	8.022699e-06	5.636916e-09	5.685505e+01	3.703197e+02
1.610000e-06	8.033770e-06	5.640598e-09	5.693351e+01	3.705260e+02
1.620000e-06	8.041690e-06	5.644238e-09	5.698963e+01	3.706584e+02
1.630000e-06	8.046746e-06	5.647990e-09	5.702547e+01	3.707083e+02
1.640000e-06	8.049009e-06	5.651365e-09	5.704150e+01	3.706694e+02
1.650000e-06	8.048431e-06	5.651927e-09	5.703740e+01	3.705399e+02
1.660000e-06	8.045212e-06	5.642543e-09	5.701459e+01	3.703221e+02
1.670000e-06	8.039366e-06	5.634864e-09	5.697316e+01	3.700231e+02
1.680000e-06	8.030802e-06	5.630983e-09	5.691247e+01	3.696532e+02
1.690000e-06	8.019513e-06	5.628503e-09	5.683247e+01	3.692258e+02
1.700000e-06	8.005325e-06	5.625293e-09	5.673192e+01	3.687550e+02
1.710000e-06	7.988481e-06	5.622881e-09	5.661255e+01	3.682546e+02
1.720000e-06	7.969411e-06	5.620452e-09	5.647741e+01	3.677364e+02
1.730000e-06	7.947860e-06	5.585371e-09	5.632468e+01	3.672085e+02
1.740000e-06	7.923124e-06	5.506130e-09	5.614938e+01	3.666754e+02
1.750000e-06	7.894778e-06	5.527442e-09	5.594850e+01	3.661366e+02
1.760000e-06	7.862999e-06	5.553513e-09	5.572329e+01	3.655876e+02
1.770000e-06	7.828561e-06	5.527120e-09	5.547924e+01	3.650198e+02
1.780000e-06	7.791844e-06	5.543633e-09	5.521903e+01	3.644220e+02
1.790000e-06	7.752808e-06	5.618325e-09	5.494239e+01	3.637815e+02
1.800000e-06	7.711666e-06	5.498414e-09	5.465083e+01	3.630849e+02
1.810000e-06	7.668130e-06	5.483895e-09	5.434230e+01	3.623197e+02
1.820000e-06	7.621921e-06	5.565822e-09	5.401482e+01	3.614752e+02
1.830000e-06	7.572963e-06	5.445240e-09	5.366787e+01	3.605428e+02
1.840000e-06	7.520986e-06	5.534127e-09	5.329952e+01	3.595168e+02
1.850000e-06	7.466087e-06	5.464541e-09	5.291047e+01	3.583941e+02
1.860000e-06	7.408451e-06	5.441040e-09	5.250201e+01	3.571743e+02
1.870000e-06	7.348191e-06	5.466668e-09	5.207496e+01	3.558589e+02
1.880000e-06	7.285190e-06	5.357928e-09	5.162849e+01	3.544510e+02
1.890000e-06	7.219293e-06	5.421470e-09	5.116149e+01	3.529548e+02
1.900000e-06	7.150676e-06	5.337583e-09	5.067522e+01	3.513749e+02
1.910000e-06	7.079242e-06	5.335980e-09	5.016898e+01	3.497158e+02
1.920000e-06	7.005065e-06	5.325592e-09	4.964330e+01	3.479819e+02
1.930000e-06	6.928173e-06	5.279752e-09	4.909839e+01	3.461767e+02
1.940000e-06	6.848493e-06	5.291557e-09	4.853372e+01	3.443032e+02
1.950000e-06	6.766307e-06	5.185179e-09	4.795128e+01	3.423632e+02
1.960000e-06	6.681622e-06	5.217661e-09	4.735114e+01	3.403575e+02
1.970000e-06	6.594437e-06	5.163923e-09	4.673328e+01	3.382859e+02
1.980000e-06	6.504868e-06	5.128507e-09	4.609853e+01	3.361473e+02
1.990000e-06	6.413062e-06	5.109849e-09	4.544791e+01	3.339395e+02
2.000000e-06	6.318998e-06	5.058695e-09	4.478130e+01	3.316596e+02
2.010000e-06	6.222605e-06	5.037880e-09	4.409819e+01	3.293039e+02
2.020000e-06	6.124001e-06	4.972656e-09	4.339940e+01	3.268684e+02
2.030000e-06	6.023216e-06	4.959921e-09	4.268516e+01	3.243494e+02
2.040000e-06	5.920302e-06	4.904540e-09	4.195583e+01	3.217431e+02
2.050000e-06	5.815338e-06	4.878797e-09	4.121198e+01	3.190467e+02
2.060000e-06	5.708458e-06	4.829573e-09	4.045454e+01	3.162584e+02
2.070000e-06	5.599560e-06	4.787882e-09	3.968281e+01	3.133774e+02
2.080000e-06	5.488656e-06	4.739520e-09	3.889686e+01	3.104042e+02
2.090000e-06	5.375774e-06	4.680483e-09	3.809689e+01	3.073403e+02
2.100000e-06	5.260788e-06	4.642419e-09	3.728201e+01	3.041876e+02
2.110000e-06	5.143693e-06	4.599971e-09	3.645219e+01	3.009483e+02
2.120000e-06	5.024616e-06	4.561814e-09	3.560831e+01	2.976241e+02
2.130000e-06	4.903706e-06	4.498521e-09	3.475145e+01	2.942155e+02
2.140000e-06	4.780998e-06	4.446916e-09	3.388185e+01	2.907214e+02
2.150000e-06	4.656553e-06	4.386106e-09	3.299994e+01	2.871389e+02
2.160000e-06	4.530363e-06	4.335651e-09	3.210565e+01	2.834631e+02
2.170000e-06	4.402539e-06	4.276123e-09	3.119980e+01	2.796872e+02
2.180000e-06	4.273056e-06	4.222417e-09	3.028218e+01	2.758036e+02
2.190000e-06	4.142017e-06	4.160527e-09	2.935354e+01	2.718037e+02
2.200000e-06	4.009494e-06	4.095059e-09	2.841437e+01	2.676796e+02
2.210000e-06	3.875394e-06	4.030564e-09	2.746404e+01	2.634245e+02
2.220000e-06	3.739903e-06	3.967487e-09	2.650385e+01	2.590334e+02
2.230000e-06	3.603092e-06	3.903084e-09	2.553430e+01	2.545035e+02
2.240000e-06	3.464840e-06	3.829266e-09	2.455454e+01	2.498347e+02
2.250000e-06	3.325220e-06	3.757713e-09	2.356508e+01	2.450283e+02
2.260000e-06	3.184300e-06	3.682453e-09	2.256641e+01	2.400874e+02
2.270000e-06	3.042062e-06	3.606174e-09	2.155841e+01	2.350148e+02
2.280000e-06	2.898715e-06	3.522047e-09	2.054253e+01	2.298127e+02
2.290000e-06	2.754284e-06	3.440569e-09	1.951899e+01	2.244811e+02
2.300000e-06	2.608845e-06	3.356298e-09	1.848830e+01	2.190167e+02
2.310000e-06	2.462587e-06	3.275669e-09	1.745180e+01	2.134131e+02
2.320000e-06	2.315553e-06	3.194425e-09	1.640980e+01	2.076599e+02
2.330000e-06	2.167733e-06	3.106182e-09	1.536223e+01	2.017437e+02
2.340000e-06	2.019133e-06	3.008727e-09	1.430913e+01	1.956489e+02
2.350000e-06	1.869735e-06	2.906834e-09	1.325039e+01	1.893594e+02
2.360000e-06	1.719652e-06	2.806998e-09	1.218678e+01	1.828593e+02
2.370000e-06	1.569089e-06	2.705665e-09	1.111978e+01	1.761354e+02
2.380000e-06	1.418051e-06	2.602141e-09	1.004941e+01	1.691773e+02
2.390000e-06	1.266618e-06	2.493780e-09	8.976235e+00	1.619785e+02
2.400000e-06	1.114872e-06	2.378200e-09	7.900844e+00	1.545361e+02
2.410000e-06	9.627635e-07	2.257903e-09	6.822886e+00	1.468497e+02
2.420000e-06	8.102556e-07	2.138519e-09	5.742097e+00	1.389198e+02
2.430000e-06	6.574281e-07	2.018038e-09	4.659044e+00	1.307458e+02
2.440000e-06	5.044224e-07	1.890515e-09	3.574727e+00	1.223232e+02
2.450000e-06	3.511890e-07	1.757156e-09	2.488797e+00	1.136423e+02
2.460000e-06	1.977013e-07	1.621032e-09	1.401064e+00	1.046856e+02
2.470000e-06	4.413154e-08	1.480287e-09	3.127502e-01	9.542774e+01
2.480000e-06	-1.094487e-07	1.332585e-09	-7.756379e-01	8.583597e+01
2.490000e-06	-2.630365e-07	1.180032e-09	-1.864080e+00	7.587178e+01
2.500000e-06	-4.164914e-07	1.021850e-09	-2.951580e+00	6.549420e+01
2.510000e-06	-5.698120e-07	8.563552e-10	-4.038128e+00	5.466398e+01
2.520000e-06	-7.229716e-07	6.844143e-10	-5.123536e+00	4.334856e+01
2.530000e-06	-8.758999e-07	5.052965e-10	-6.207304e+00	3.152721e+01
2.540000e-06	-1.028568e-06	3.173113e-10	-7.289230e+00	1.919587e+01
2.550000e-06	-1.180855e-06	1.204232e-10	-8.368451e+00	6.371021e+00
2.560000e-06	-1.332655e-06	-8.388949e-11	-9.444226e+00	-6.907918e+00
2.570000e-06	-1.483911e-06	-2.938190e-10	-1.051614e+01	-2.057793e+01
2.580000e-06	-1.634622e-06	-5.085649e-10	-1.158419e+01	-3.455381e+01
2.590000e-06	-1.784809e-06	-7.271900e-10	-1.264853e+01	-4.873153e+01
2.600000e-06	-1.934401e-06	-9.475309e-10	-1.370866e+01	-6.299333e+01
2.610000e-06	-2.083227e-06	-1.168841e-09	-1.476336e+01	-7.721408e+01
2.620000e-06	-2.231207e-06	-1.388685e-09	-1.581206e+01	-9.126842e+01
2.630000e-06	-2.378281e-06	-1.604224e-09	-1.685434e+01	-1.050378e+02
2.640000e-06	-2.524492e-06	-1.813010e-09	-1.789050e+01	-1.184168e+02
2.650000e-06	-2.669824e-06	-2.011849e-09	-1.892044e+01	-1.313187e+02
2.660000e-06	-2.814120e-06	-2.199250e-09	-1.994303e+01	-1.436786e+02
2.670000e-06	-2.957302e-06	-2.375697e-09	-2.095772e+01	-1.554548e+02
2.680000e-06	-3.099324e-06	-2.542874e-09	-2.196421e+01	-1.666290e+02
2.690000e-06	-3.240075e-06	-2.703104e-09	-2.296167e+01	-1.772034e+02
2.700000e-06	-3.379504e-06	-2.856308e-09	-2.394978e+01	-1.871970e+02
2.710000e-06	-3.517711e-06	-3.003252e-09	-2.492922e+01	-1.966413e+02
2.720000e-06	-3.654620e-06	-3.142559e-09	-2.589947e+01	-2.055752e+02
2.730000e-06	-3.790159e-06	-3.273469e-09	-2.686000e+01	-2.140401e+02
2.740000e-06	-3.924387e-06	-3.397309e-09	-2.781124e+01	-2.220760e+02
2.750000e-06	-4.057202e-06	-3.514399e-09	-2.875247e+01	-2.297183e+02
2.760000e-06	-4.188497e-06	-3.625428e-09	-2.968293e+01	-2.369968e+02
2.770000e-06	-4.318399e-06	-3.731493e-09	-3.060351e+01	-2.439346e+02
2.780000e-06	-4.446888e-06	-3.832874e-09	-3.151408e+01	-2.505492e+02
2.790000e-06	-4.573766e-06	-3.929222e-09	-3.241324e+01	-2.568542e+02
2.800000e-06	-4.699044e-06	-4.019957e-09	-3.330106e+01	-2.628609e+02
2.810000e-06	-4.822687e-06	-4.105663e-09	-3.417729e+01	-2.685808e+02
2.820000e-06	-4.944662e-06	-4.188585e-09	-3.504169e+01	-2.740269e+02
2.830000e-06	-5.064867e-06	-4.268479e-09	-3.589357e+01	-2.792147e+02
2.840000e-06	-5.183137e-06	-4.344742e-09	-3.673171e+01	-2.841629e+02
2.850000e-06	-5.299299e-06	-4.417875e-09	-3.755493e+01	-2.888921e+02
2.860000e-06	-5.413193e-06	-4.487235e-09	-3.836207e+01	-2.934242e+02
2.870000e-06	-5.524895e-06	-4.554031e-09	-3.915367e+01	-2.977804e+02
2.880000e-06	-5.634534e-06	-4.619566e-09	-3.993066e+01	-3.019793e+02
2.890000e-06	-5.742229e-06	-4.683201e-09	-4.069387e+01	-3.060355e+02
2.900000e-06	-5.848004e-06	-4.745866e-09	-4.144348e+01	-3.099582e+02
2.910000e-06	-5.951640e-06	-4.806745e-09	-4.217792e+01	-3.137510e+02
2.920000e-06	-6.053010e-06	-4.864280e-09	-4.289631e+01	-3.174118e+02
2.930000e-06	-6.152149e-06	-4.917742e-09	-4.359889e+01	-3.209342e+02
2.940000e-06	-6.249124e-06	-4.968409e-09	-4.428613e+01	-3.243089e+02
