# Temperatura_=_36.06
# Concentracion g/m^3_=_5000.0
# C_Vs_to_Am_M_A/Vsm_=_65563218390.804596
# pendiente_HvsI_1/m_=_3716.3
# ordenada_HvsI_A/m_=_1297.0
# frecuencia_Hz_=_302507.6299992547

Tiempo_(s)	Campo_(V.s)	Magnetizacion_(V.s)	Campo_(kA/m)	Magnetizacion_(A/m)
0.000000e+00	-7.992815e-06	-5.275382e-09	-5.686133e+01	-3.446071e+02
1.000000e-08	-7.988359e-06	-5.271529e-09	-5.682963e+01	-3.443767e+02
2.000000e-08	-7.981386e-06	-5.265798e-09	-5.678002e+01	-3.440841e+02
3.000000e-08	-7.971643e-06	-5.261046e-09	-5.671071e+01	-3.437421e+02
4.000000e-08	-7.958993e-06	-5.256050e-09	-5.662072e+01	-3.433645e+02
5.000000e-08	-7.943342e-06	-5.248798e-09	-5.650937e+01	-3.429649e+02
6.000000e-08	-7.925025e-06	-5.240995e-09	-5.637907e+01	-3.425546e+02
7.000000e-08	-7.904468e-06	-5.236775e-09	-5.623282e+01	-3.421419e+02
8.000000e-08	-7.881301e-06	-5.264224e-09	-5.606801e+01	-3.417311e+02
9.000000e-08	-7.854952e-06	-5.272987e-09	-5.588056e+01	-3.413219e+02
1.000000e-07	-7.825417e-06	-5.248545e-09	-5.567045e+01	-3.409095e+02
1.100000e-07	-7.793051e-06	-5.221723e-09	-5.544019e+01	-3.404857e+02
1.200000e-07	-7.757942e-06	-5.199164e-09	-5.519042e+01	-3.400395e+02
1.300000e-07	-7.720335e-06	-5.171181e-09	-5.492289e+01	-3.395584e+02
1.400000e-07	-7.680624e-06	-5.141238e-09	-5.464038e+01	-3.390297e+02
1.500000e-07	-7.638638e-06	-5.176557e-09	-5.434169e+01	-3.384419e+02
1.600000e-07	-7.593909e-06	-5.153533e-09	-5.402349e+01	-3.377853e+02
1.700000e-07	-7.546468e-06	-5.110086e-09	-5.368599e+01	-3.370529e+02
1.800000e-07	-7.496150e-06	-5.123048e-09	-5.332803e+01	-3.362407e+02
1.900000e-07	-7.442749e-06	-5.093316e-09	-5.294813e+01	-3.353471e+02
2.000000e-07	-7.386587e-06	-5.084623e-09	-5.254859e+01	-3.343732e+02
2.100000e-07	-7.327735e-06	-5.079016e-09	-5.212991e+01	-3.333217e+02
2.200000e-07	-7.266227e-06	-5.060011e-09	-5.169234e+01	-3.321963e+02
2.300000e-07	-7.202104e-06	-5.036374e-09	-5.123617e+01	-3.310009e+02
2.400000e-07	-7.135199e-06	-5.002149e-09	-5.076020e+01	-3.297391e+02
2.500000e-07	-7.065607e-06	-4.999370e-09	-5.026512e+01	-3.284140e+02
2.600000e-07	-6.993323e-06	-4.983855e-09	-4.975088e+01	-3.270273e+02
2.700000e-07	-6.918267e-06	-4.952904e-09	-4.921693e+01	-3.255800e+02
2.800000e-07	-6.840459e-06	-4.915110e-09	-4.866340e+01	-3.240720e+02
2.900000e-07	-6.759870e-06	-4.898837e-09	-4.809009e+01	-3.225025e+02
3.000000e-07	-6.676764e-06	-4.881655e-09	-4.749887e+01	-3.208702e+02
3.100000e-07	-6.591417e-06	-4.838745e-09	-4.689170e+01	-3.191734e+02
3.200000e-07	-6.503817e-06	-4.825682e-09	-4.626851e+01	-3.174105e+02
3.300000e-07	-6.413882e-06	-4.806770e-09	-4.562871e+01	-3.155800e+02
3.400000e-07	-6.321556e-06	-4.774307e-09	-4.497190e+01	-3.136801e+02
3.500000e-07	-6.226897e-06	-4.742192e-09	-4.429849e+01	-3.117092e+02
3.600000e-07	-6.129990e-06	-4.719682e-09	-4.360909e+01	-3.096659e+02
3.700000e-07	-6.030872e-06	-4.686019e-09	-4.290396e+01	-3.075483e+02
3.800000e-07	-5.929538e-06	-4.635781e-09	-4.218306e+01	-3.053549e+02
3.900000e-07	-5.826098e-06	-4.605482e-09	-4.144718e+01	-3.030839e+02
4.000000e-07	-5.720653e-06	-4.578017e-09	-4.069704e+01	-3.007337e+02
4.100000e-07	-5.613169e-06	-4.544390e-09	-3.993239e+01	-2.983030e+02
4.200000e-07	-5.503742e-06	-4.499916e-09	-3.915392e+01	-2.957905e+02
4.300000e-07	-5.392388e-06	-4.461050e-09	-3.836174e+01	-2.931955e+02
4.400000e-07	-5.278926e-06	-4.418037e-09	-3.755457e+01	-2.905176e+02
4.500000e-07	-5.163324e-06	-4.369633e-09	-3.673217e+01	-2.877563e+02
4.600000e-07	-5.045770e-06	-4.328380e-09	-3.589589e+01	-2.849114e+02
4.700000e-07	-4.926467e-06	-4.293074e-09	-3.504716e+01	-2.819819e+02
4.800000e-07	-4.805367e-06	-4.249870e-09	-3.418565e+01	-2.789666e+02
4.900000e-07	-4.682437e-06	-4.193357e-09	-3.331111e+01	-2.758630e+02
5.000000e-07	-4.557775e-06	-4.139240e-09	-3.242426e+01	-2.726676e+02
5.100000e-07	-4.431453e-06	-4.088179e-09	-3.152560e+01	-2.693757e+02
5.200000e-07	-4.303578e-06	-4.038150e-09	-3.061589e+01	-2.659817e+02
5.300000e-07	-4.174164e-06	-3.982006e-09	-2.969523e+01	-2.624793e+02
5.400000e-07	-4.043216e-06	-3.924934e-09	-2.876366e+01	-2.588619e+02
5.500000e-07	-3.910646e-06	-3.868498e-09	-2.782055e+01	-2.551234e+02
5.600000e-07	-3.776593e-06	-3.810848e-09	-2.686689e+01	-2.512585e+02
5.700000e-07	-3.641196e-06	-3.749560e-09	-2.590367e+01	-2.472634e+02
5.800000e-07	-3.504326e-06	-3.686001e-09	-2.492997e+01	-2.431359e+02
5.900000e-07	-3.366042e-06	-3.622488e-09	-2.394621e+01	-2.388752e+02
6.000000e-07	-3.226352e-06	-3.555456e-09	-2.295245e+01	-2.344821e+02
6.100000e-07	-3.085241e-06	-3.487574e-09	-2.194857e+01	-2.299579e+02
6.200000e-07	-2.942878e-06	-3.418382e-09	-2.093580e+01	-2.253037e+02
6.300000e-07	-2.799370e-06	-3.345169e-09	-1.991487e+01	-2.205198e+02
6.400000e-07	-2.654836e-06	-3.264614e-09	-1.888665e+01	-2.156046e+02
6.500000e-07	-2.509328e-06	-3.182124e-09	-1.785150e+01	-2.105537e+02
6.600000e-07	-2.362952e-06	-3.102353e-09	-1.681017e+01	-2.053599e+02
6.700000e-07	-2.215859e-06	-3.025299e-09	-1.576374e+01	-2.000131e+02
6.800000e-07	-2.068094e-06	-2.946839e-09	-1.471254e+01	-1.945008e+02
6.900000e-07	-1.919658e-06	-2.860821e-09	-1.365655e+01	-1.888085e+02
7.000000e-07	-1.770601e-06	-2.769427e-09	-1.259615e+01	-1.829216e+02
7.100000e-07	-1.621067e-06	-2.673085e-09	-1.153236e+01	-1.768258e+02
7.200000e-07	-1.471040e-06	-2.576950e-09	-1.046506e+01	-1.705089e+02
7.300000e-07	-1.320444e-06	-2.477301e-09	-9.393712e+00	-1.639613e+02
7.400000e-07	-1.169343e-06	-2.371303e-09	-8.318774e+00	-1.571765e+02
7.500000e-07	-1.017857e-06	-2.264367e-09	-7.241088e+00	-1.501510e+02
7.600000e-07	-8.660376e-07	-2.157280e-09	-6.161039e+00	-1.428831e+02
7.700000e-07	-7.139548e-07	-2.045736e-09	-5.079114e+00	-1.353720e+02
7.800000e-07	-5.616537e-07	-1.927469e-09	-3.995635e+00	-1.276155e+02
7.900000e-07	-4.091460e-07	-1.806242e-09	-2.910687e+00	-1.196085e+02
8.000000e-07	-2.564775e-07	-1.679544e-09	-1.824595e+00	-1.113410e+02
8.100000e-07	-1.037220e-07	-1.547143e-09	-7.378842e-01	-1.027965e+02
8.200000e-07	4.912853e-08	-1.409332e-09	3.495031e-01	-9.395228e+01
8.300000e-07	2.020449e-07	-1.265596e-09	1.437358e+00	-8.477910e+01
8.400000e-07	3.548851e-07	-1.116414e-09	2.524672e+00	-7.524332e+01
8.500000e-07	5.076000e-07	-9.631719e-10	3.611094e+00	-6.530947e+01
8.600000e-07	6.601928e-07	-8.069691e-10	4.696648e+00	-5.494397e+01
8.700000e-07	8.125917e-07	-6.453685e-10	5.780822e+00	-4.411939e+01
8.800000e-07	9.647056e-07	-4.762826e-10	6.862969e+00	-3.281891e+01
8.900000e-07	1.116495e-06	-2.987998e-10	7.942807e+00	-2.104048e+01
9.000000e-07	1.268012e-06	-1.138554e-10	9.020706e+00	-8.800227e+00
9.100000e-07	1.419125e-06	7.836278e-11	1.009573e+01	3.865401e+00
9.200000e-07	1.569673e-06	2.752150e-10	1.116674e+01	1.689903e+01
9.300000e-07	1.719589e-06	4.764787e-10	1.223325e+01	3.022347e+01
9.400000e-07	1.868879e-06	6.811817e-10	1.329531e+01	4.374449e+01
9.500000e-07	2.017557e-06	8.872293e-10	1.435301e+01	5.735518e+01
9.600000e-07	2.165489e-06	1.091894e-09	1.540541e+01	7.094133e+01
9.700000e-07	2.312674e-06	1.293457e-09	1.645249e+01	8.438761e+01
9.800000e-07	2.459070e-06	1.493786e-09	1.749396e+01	9.758368e+01
9.900000e-07	2.604444e-06	1.688205e-09	1.852816e+01	1.104299e+02
1.000000e-06	2.748767e-06	1.874327e-09	1.955488e+01	1.228422e+02
1.010000e-06	2.892089e-06	2.052234e-09	2.057448e+01	1.347550e+02
1.020000e-06	3.034303e-06	2.222811e-09	2.158620e+01	1.461232e+02
1.030000e-06	3.175317e-06	2.386355e-09	2.258938e+01	1.569224e+02
1.040000e-06	3.315043e-06	2.540658e-09	2.358340e+01	1.671466e+02
1.050000e-06	3.453407e-06	2.687470e-09	2.456773e+01	1.768064e+02
1.060000e-06	3.590438e-06	2.827810e-09	2.554257e+01	1.859245e+02
1.070000e-06	3.726085e-06	2.961293e-09	2.650757e+01	1.945320e+02
1.080000e-06	3.860290e-06	3.084830e-09	2.746232e+01	2.026647e+02
1.090000e-06	3.993160e-06	3.200183e-09	2.840756e+01	2.103589e+02
1.100000e-06	4.124650e-06	3.311322e-09	2.934298e+01	2.176494e+02
1.110000e-06	4.254686e-06	3.419689e-09	3.026807e+01	2.245672e+02
1.120000e-06	4.383288e-06	3.522620e-09	3.118295e+01	2.311392e+02
1.130000e-06	4.510357e-06	3.618198e-09	3.208693e+01	2.373877e+02
1.140000e-06	4.635875e-06	3.707964e-09	3.297987e+01	2.433318e+02
1.150000e-06	4.759836e-06	3.792778e-09	3.386173e+01	2.489882e+02
1.160000e-06	4.882070e-06	3.872351e-09	3.473132e+01	2.543725e+02
1.170000e-06	5.002571e-06	3.948225e-09	3.558857e+01	2.595003e+02
1.180000e-06	5.121255e-06	4.022535e-09	3.643289e+01	2.643877e+02
1.190000e-06	5.237981e-06	4.093082e-09	3.726329e+01	2.690517e+02
1.200000e-06	5.352742e-06	4.159196e-09	3.807970e+01	2.735094e+02
1.210000e-06	5.465459e-06	4.223495e-09	3.888158e+01	2.777777e+02
1.220000e-06	5.576122e-06	4.288733e-09	3.966884e+01	2.818719e+02
1.230000e-06	5.684816e-06	4.351659e-09	4.044210e+01	2.858048e+02
1.240000e-06	5.791500e-06	4.409893e-09	4.120105e+01	2.895857e+02
1.250000e-06	5.896031e-06	4.464205e-09	4.194469e+01	2.932199e+02
1.260000e-06	5.998390e-06	4.515193e-09	4.267288e+01	2.967087e+02
1.270000e-06	6.098567e-06	4.561962e-09	4.338554e+01	3.000502e+02
1.280000e-06	6.196421e-06	4.606058e-09	4.408168e+01	3.032396e+02
1.290000e-06	6.291935e-06	4.650439e-09	4.476117e+01	3.062715e+02
1.300000e-06	6.385227e-06	4.693103e-09	4.542485e+01	3.091407e+02
1.310000e-06	6.476275e-06	4.731848e-09	4.607258e+01	3.118439e+02
1.320000e-06	6.564983e-06	4.768590e-09	4.670365e+01	3.143811e+02
1.330000e-06	6.651350e-06	4.805045e-09	4.731807e+01	3.167559e+02
1.340000e-06	6.735459e-06	4.839815e-09	4.791643e+01	3.189759e+02
1.350000e-06	6.817187e-06	4.870238e-09	4.849784e+01	3.210521e+02
1.360000e-06	6.896382e-06	4.899143e-09	4.906124e+01	3.229981e+02
1.370000e-06	6.973020e-06	4.926904e-09	4.960645e+01	3.248287e+02
1.380000e-06	7.046988e-06	4.952945e-09	5.013266e+01	3.265581e+02
1.390000e-06	7.118357e-06	4.977934e-09	5.064038e+01	3.281990e+02
1.400000e-06	7.187210e-06	5.002855e-09	5.113021e+01	3.297610e+02
1.410000e-06	7.253470e-06	5.027834e-09	5.160158e+01	3.312498e+02
1.420000e-06	7.317130e-06	5.050657e-09	5.205447e+01	3.326675e+02
1.430000e-06	7.378326e-06	5.070620e-09	5.248982e+01	3.340126e+02
1.440000e-06	7.437007e-06	5.087569e-09	5.290728e+01	3.352812e+02
1.450000e-06	7.493031e-06	5.102807e-09	5.330583e+01	3.364680e+02
1.460000e-06	7.546297e-06	5.117975e-09	5.368477e+01	3.375677e+02
1.470000e-06	7.596480e-06	5.132577e-09	5.404178e+01	3.385766e+02
1.480000e-06	7.643635e-06	5.147027e-09	5.437724e+01	3.394936e+02
1.490000e-06	7.688117e-06	5.163240e-09	5.469369e+01	3.403206e+02
1.500000e-06	7.729889e-06	5.178388e-09	5.499086e+01	3.410626e+02
1.510000e-06	7.768846e-06	5.190095e-09	5.526800e+01	3.417276e+02
1.520000e-06	7.805111e-06	5.199223e-09	5.552599e+01	3.423252e+02
1.530000e-06	7.838600e-06	5.208622e-09	5.576423e+01	3.428656e+02
1.540000e-06	7.869260e-06	5.218122e-09	5.598235e+01	3.433583e+02
1.550000e-06	7.897244e-06	5.225983e-09	5.618143e+01	3.438103e+02
1.560000e-06	7.922354e-06	5.233104e-09	5.636006e+01	3.442259e+02
1.570000e-06	7.944509e-06	5.239229e-09	5.651767e+01	3.446054e+02
1.580000e-06	7.964008e-06	5.244738e-09	5.665639e+01	3.449454e+02
1.590000e-06	7.980672e-06	5.249878e-09	5.677494e+01	3.452395e+02
1.600000e-06	7.994209e-06	5.254692e-09	5.687125e+01	3.454792e+02
1.610000e-06	8.004606e-06	5.259302e-09	5.694521e+01	3.456551e+02
1.620000e-06	8.011953e-06	5.261957e-09	5.699748e+01	3.457588e+02
1.630000e-06	8.016475e-06	5.263049e-09	5.702965e+01	3.457839e+02
1.640000e-06	8.018141e-06	5.263357e-09	5.704150e+01	3.457277e+02
1.650000e-06	8.016990e-06	5.258584e-09	5.703331e+01	3.455914e+02
1.660000e-06	8.013307e-06	5.254288e-09	5.700711e+01	3.453803e+02
1.670000e-06	8.006946e-06	5.251673e-09	5.696185e+01	3.451038e+02
1.680000e-06	7.997847e-06	5.249576e-09	5.689712e+01	3.447741e+02
1.690000e-06	7.986030e-06	5.246916e-09	5.681306e+01	3.444048e+02
1.700000e-06	7.971368e-06	5.245185e-09	5.670875e+01	3.440097e+02
1.710000e-06	7.954134e-06	5.243547e-09	5.658615e+01	3.436010e+02
1.720000e-06	7.934649e-06	5.222212e-09	5.644753e+01	3.431879e+02
1.730000e-06	7.912663e-06	5.169797e-09	5.629112e+01	3.427760e+02
1.740000e-06	7.887403e-06	5.159724e-09	5.611142e+01	3.423661e+02
1.750000e-06	7.858446e-06	5.173357e-09	5.590542e+01	3.419549e+02
1.760000e-06	7.826217e-06	5.173604e-09	5.567614e+01	3.415350e+02
1.770000e-06	7.791474e-06	5.182346e-09	5.542898e+01	3.410959e+02
1.780000e-06	7.754390e-06	5.213707e-09	5.516516e+01	3.406256e+02
1.790000e-06	7.715105e-06	5.182443e-09	5.488568e+01	3.401113e+02
1.800000e-06	7.673740e-06	5.181049e-09	5.459141e+01	3.395410e+02
1.810000e-06	7.629866e-06	5.206557e-09	5.427929e+01	3.389045e+02
1.820000e-06	7.583365e-06	5.159535e-09	5.394848e+01	3.381938e+02
1.830000e-06	7.534101e-06	5.178435e-09	5.359801e+01	3.374042e+02
1.840000e-06	7.481781e-06	5.144895e-09	5.322580e+01	3.365334e+02
1.850000e-06	7.426549e-06	5.111977e-09	5.283288e+01	3.355818e+02
1.860000e-06	7.368605e-06	5.105855e-09	5.242066e+01	3.345517e+02
1.870000e-06	7.308075e-06	5.078043e-09	5.199005e+01	3.334465e+02
1.880000e-06	7.244733e-06	5.101637e-09	5.153943e+01	3.322702e+02
1.890000e-06	7.178513e-06	5.069782e-09	5.106834e+01	3.310267e+02
1.900000e-06	7.109558e-06	5.040493e-09	5.057779e+01	3.297189e+02
1.910000e-06	7.037770e-06	5.021683e-09	5.006708e+01	3.283493e+02
1.920000e-06	6.963362e-06	4.993105e-09	4.953774e+01	3.269188e+02
1.930000e-06	6.886234e-06	4.979836e-09	4.898905e+01	3.254277e+02
1.940000e-06	6.806343e-06	4.948176e-09	4.842070e+01	3.238755e+02
1.950000e-06	6.723988e-06	4.943942e-09	4.783482e+01	3.222608e+02
1.960000e-06	6.639150e-06	4.910053e-09	4.723128e+01	3.205821e+02
1.970000e-06	6.551807e-06	4.873465e-09	4.660991e+01	3.188379e+02
1.980000e-06	6.462104e-06	4.850717e-09	4.597176e+01	3.170264e+02
1.990000e-06	6.370187e-06	4.820759e-09	4.531786e+01	3.151460e+02
2.000000e-06	6.276011e-06	4.782398e-09	4.464789e+01	3.131951e+02
2.010000e-06	6.179573e-06	4.748410e-09	4.396182e+01	3.111722e+02
2.020000e-06	6.080981e-06	4.732865e-09	4.326043e+01	3.090755e+02
2.030000e-06	5.980208e-06	4.696773e-09	4.254353e+01	3.069035e+02
2.040000e-06	5.877205e-06	4.657174e-09	4.181076e+01	3.046544e+02
2.050000e-06	5.772147e-06	4.616358e-09	4.106337e+01	3.023265e+02
2.060000e-06	5.665226e-06	4.582249e-09	4.030273e+01	2.999185e+02
2.070000e-06	5.556377e-06	4.542955e-09	3.952837e+01	2.974290e+02
2.080000e-06	5.445473e-06	4.505618e-09	3.873939e+01	2.948572e+02
2.090000e-06	5.332538e-06	4.474026e-09	3.793597e+01	2.922026e+02
2.100000e-06	5.217578e-06	4.436148e-09	3.711814e+01	2.894647e+02
2.110000e-06	5.100525e-06	4.387895e-09	3.628542e+01	2.866432e+02
2.120000e-06	4.981478e-06	4.335073e-09	3.543851e+01	2.837376e+02
2.130000e-06	4.860529e-06	4.288227e-09	3.457807e+01	2.807465e+02
2.140000e-06	4.737849e-06	4.243726e-09	3.370532e+01	2.776680e+02
2.150000e-06	4.613495e-06	4.203771e-09	3.282065e+01	2.744988e+02
2.160000e-06	4.487467e-06	4.159190e-09	3.192409e+01	2.712345e+02
2.170000e-06	4.359830e-06	4.111280e-09	3.101607e+01	2.678699e+02
2.180000e-06	4.230571e-06	4.055129e-09	3.009652e+01	2.643987e+02
2.190000e-06	4.099798e-06	3.996566e-09	2.916619e+01	2.608143e+02
2.200000e-06	3.967522e-06	3.937425e-09	2.822517e+01	2.571105e+02
2.210000e-06	3.833781e-06	3.881534e-09	2.727373e+01	2.532818e+02
2.220000e-06	3.698543e-06	3.825443e-09	2.631164e+01	2.493238e+02
2.230000e-06	3.561818e-06	3.762044e-09	2.533897e+01	2.452337e+02
2.240000e-06	3.423794e-06	3.695185e-09	2.435706e+01	2.410107e+02
2.250000e-06	3.284526e-06	3.627121e-09	2.336630e+01	2.366548e+02
2.260000e-06	3.143933e-06	3.558779e-09	2.236612e+01	2.321674e+02
2.270000e-06	3.002031e-06	3.488093e-09	2.135662e+01	2.275499e+02
2.280000e-06	2.858968e-06	3.419219e-09	2.033885e+01	2.228027e+02
2.290000e-06	2.714815e-06	3.349009e-09	1.931335e+01	2.179248e+02
2.300000e-06	2.569701e-06	3.273140e-09	1.828100e+01	2.129128e+02
2.310000e-06	2.423773e-06	3.194567e-09	1.724286e+01	2.077603e+02
2.320000e-06	2.277128e-06	3.114054e-09	1.619962e+01	2.024580e+02
2.330000e-06	2.129706e-06	3.027676e-09	1.515084e+01	1.969939e+02
2.340000e-06	1.981544e-06	2.935141e-09	1.409681e+01	1.913541e+02
2.350000e-06	1.832755e-06	2.842733e-09	1.303832e+01	1.855238e+02
2.360000e-06	1.683396e-06	2.754535e-09	1.197577e+01	1.794886e+02
2.370000e-06	1.533474e-06	2.663956e-09	1.090922e+01	1.732355e+02
2.380000e-06	1.382980e-06	2.566199e-09	9.838599e+00	1.667542e+02
2.390000e-06	1.232070e-06	2.461258e-09	8.765016e+00	1.600372e+02
2.400000e-06	1.080788e-06	2.351617e-09	7.688788e+00	1.530802e+02
2.410000e-06	9.290657e-07	2.242645e-09	6.609425e+00	1.458812e+02
2.420000e-06	7.769169e-07	2.133316e-09	5.527030e+00	1.384393e+02
2.430000e-06	6.244559e-07	2.019484e-09	4.442414e+00	1.307528e+02
2.440000e-06	4.718103e-07	1.897256e-09	3.356484e+00	1.228177e+02
2.450000e-06	3.190540e-07	1.770132e-09	2.269767e+00	1.146255e+02
2.460000e-06	1.661481e-07	1.641511e-09	1.181987e+00	1.061618e+02
2.470000e-06	1.310570e-08	1.508586e-09	9.323469e-02	9.740547e+01
2.480000e-06	-1.399960e-07	1.370855e-09	-9.959391e-01	8.832909e+01
2.490000e-06	-2.930574e-07	1.227478e-09	-2.084826e+00	7.890006e+01
2.500000e-06	-4.460038e-07	1.076783e-09	-3.172896e+00	6.908307e+01
2.510000e-06	-5.988138e-07	9.194552e-10	-4.259994e+00	5.884360e+01
2.520000e-06	-7.514211e-07	7.565448e-10	-5.345651e+00	4.815199e+01
2.530000e-06	-9.037422e-07	5.863051e-10	-6.429272e+00	3.698795e+01
2.540000e-06	-1.055745e-06	4.093063e-10	-7.510628e+00	2.534483e+01
2.550000e-06	-1.207364e-06	2.263037e-10	-8.589256e+00	1.323327e+01
2.560000e-06	-1.358452e-06	3.614329e-11	-9.664101e+00	6.837747e-01
2.570000e-06	-1.508982e-06	-1.616957e-10	-1.073498e+01	-1.225222e+01
2.580000e-06	-1.659021e-06	-3.671990e-10	-1.180237e+01	-2.550296e+01
2.590000e-06	-1.808455e-06	-5.771952e-10	-1.286545e+01	-3.897872e+01
2.600000e-06	-1.957151e-06	-7.888560e-10	-1.392328e+01	-5.257569e+01
2.610000e-06	-2.105143e-06	-1.001528e-09	-1.497610e+01	-6.618114e+01
2.620000e-06	-2.252398e-06	-1.212549e-09	-1.602369e+01	-7.967943e+01
2.630000e-06	-2.398772e-06	-1.419306e-09	-1.706499e+01	-9.295817e+01
2.640000e-06	-2.544255e-06	-1.620155e-09	-1.809997e+01	-1.059142e+02
2.650000e-06	-2.688888e-06	-1.813569e-09	-1.912890e+01	-1.184584e+02
2.660000e-06	-2.832465e-06	-1.997924e-09	-2.015031e+01	-1.305199e+02
2.670000e-06	-2.974821e-06	-2.171796e-09	-2.116304e+01	-1.420476e+02
2.680000e-06	-3.115948e-06	-2.336294e-09	-2.216703e+01	-1.530111e+02
2.690000e-06	-3.255876e-06	-2.493038e-09	-2.316248e+01	-1.633997e+02
2.700000e-06	-3.394566e-06	-2.642752e-09	-2.414913e+01	-1.732193e+02
2.710000e-06	-3.531962e-06	-2.786835e-09	-2.512657e+01	-1.824897e+02
2.720000e-06	-3.668046e-06	-2.923889e-09	-2.609468e+01	-1.912401e+02
2.730000e-06	-3.802789e-06	-3.051967e-09	-2.705325e+01	-1.995051e+02
2.740000e-06	-3.936162e-06	-3.171825e-09	-2.800207e+01	-2.073214e+02
2.750000e-06	-4.068133e-06	-3.285136e-09	-2.894092e+01	-2.147244e+02
2.760000e-06	-4.198655e-06	-3.393037e-09	-2.986946e+01	-2.217462e+02
2.770000e-06	-4.327742e-06	-3.495237e-09	-3.078779e+01	-2.284149e+02
2.780000e-06	-4.455371e-06	-3.591395e-09	-3.169576e+01	-2.347542e+02
2.790000e-06	-4.581433e-06	-3.682648e-09	-3.259257e+01	-2.407840e+02
2.800000e-06	-4.705954e-06	-3.770267e-09	-3.347841e+01	-2.465214e+02
2.810000e-06	-4.828818e-06	-3.853395e-09	-3.435248e+01	-2.519824e+02
2.820000e-06	-4.949905e-06	-3.931668e-09	-3.521390e+01	-2.571823e+02
2.830000e-06	-5.069153e-06	-4.006152e-09	-3.606223e+01	-2.621372e+02
2.840000e-06	-5.186415e-06	-4.078707e-09	-3.689644e+01	-2.668637e+02
2.850000e-06	-5.301570e-06	-4.147551e-09	-3.771566e+01	-2.713790e+02
2.860000e-06	-5.414590e-06	-4.213588e-09	-3.851970e+01	-2.757003e+02
2.870000e-06	-5.525459e-06	-4.277978e-09	-3.930842e+01	-2.798432e+02
2.880000e-06	-5.634277e-06	-4.340379e-09	-4.008256e+01	-2.838216e+02
2.890000e-06	-5.741219e-06	-4.401791e-09	-4.084335e+01	-2.876456e+02
2.900000e-06	-5.846200e-06	-4.460193e-09	-4.159019e+01	-2.913219e+02
2.910000e-06	-5.948996e-06	-4.517333e-09	-4.232148e+01	-2.948528e+02
2.920000e-06	-6.049548e-06	-4.571652e-09	-4.303682e+01	-2.982371e+02
2.930000e-06	-6.147957e-06	-4.620317e-09	-4.373691e+01	-3.014710e+02
2.940000e-06	-6.244173e-06	-4.666341e-09	-4.442139e+01	-3.045490e+02
