# Temperatura_=_37.35
# Concentracion g/m^3_=_5000.0
# C_Vs_to_Am_M_A/Vsm_=_65563218390.804596
# pendiente_HvsI_1/m_=_3716.3
# ordenada_HvsI_A/m_=_1297.0
# frecuencia_Hz_=_302511.871762362

Tiempo_(s)	Campo_(V.s)	Magnetizacion_(V.s)	Campo_(kA/m)	Magnetizacion_(A/m)
0.000000e+00	-7.961927e-06	-5.226105e-09	-5.686132e+01	-3.413567e+02
1.000000e-08	-7.957591e-06	-5.220344e-09	-5.683036e+01	-3.411032e+02
2.000000e-08	-7.950682e-06	-5.214732e-09	-5.678102e+01	-3.407875e+02
3.000000e-08	-7.941090e-06	-5.210213e-09	-5.671251e+01	-3.404260e+02
4.000000e-08	-7.928651e-06	-5.205282e-09	-5.662367e+01	-3.400364e+02
5.000000e-08	-7.913250e-06	-5.198116e-09	-5.651369e+01	-3.396354e+02
6.000000e-08	-7.895171e-06	-5.191539e-09	-5.638457e+01	-3.392367e+02
7.000000e-08	-7.874814e-06	-5.192787e-09	-5.623919e+01	-3.388489e+02
8.000000e-08	-7.851811e-06	-5.218712e-09	-5.607491e+01	-3.384749e+02
9.000000e-08	-7.825642e-06	-5.222236e-09	-5.588802e+01	-3.381108e+02
1.000000e-07	-7.796285e-06	-5.201024e-09	-5.567837e+01	-3.377467e+02
1.100000e-07	-7.764090e-06	-5.174132e-09	-5.544844e+01	-3.373677e+02
1.200000e-07	-7.729166e-06	-5.146233e-09	-5.519902e+01	-3.369554e+02
1.300000e-07	-7.691749e-06	-5.109816e-09	-5.493181e+01	-3.364906e+02
1.400000e-07	-7.652260e-06	-5.087658e-09	-5.464979e+01	-3.359548e+02
1.500000e-07	-7.610520e-06	-5.136927e-09	-5.435169e+01	-3.353326e+02
1.600000e-07	-7.566048e-06	-5.109535e-09	-5.403409e+01	-3.346129e+02
1.700000e-07	-7.518899e-06	-5.099733e-09	-5.369737e+01	-3.337903e+02
1.800000e-07	-7.468962e-06	-5.098843e-09	-5.334074e+01	-3.328649e+02
1.900000e-07	-7.415942e-06	-5.036217e-09	-5.296208e+01	-3.318418e+02
2.000000e-07	-7.360094e-06	-5.011767e-09	-5.256324e+01	-3.307302e+02
2.100000e-07	-7.301591e-06	-4.982745e-09	-5.214543e+01	-3.295418e+02
2.200000e-07	-7.240519e-06	-4.978485e-09	-5.170928e+01	-3.282890e+02
2.300000e-07	-7.176763e-06	-4.964408e-09	-5.125396e+01	-3.269834e+02
2.400000e-07	-7.110145e-06	-4.951712e-09	-5.077819e+01	-3.256344e+02
2.500000e-07	-7.040931e-06	-4.951593e-09	-5.028389e+01	-3.242480e+02
2.600000e-07	-6.969118e-06	-4.929498e-09	-4.977103e+01	-3.228265e+02
2.700000e-07	-6.894478e-06	-4.897617e-09	-4.923797e+01	-3.213684e+02
2.800000e-07	-6.816971e-06	-4.870671e-09	-4.868444e+01	-3.198694e+02
2.900000e-07	-6.736692e-06	-4.865643e-09	-4.811112e+01	-3.183228e+02
3.000000e-07	-6.653980e-06	-4.836302e-09	-4.752042e+01	-3.167208e+02
3.100000e-07	-6.569050e-06	-4.788049e-09	-4.691388e+01	-3.150555e+02
3.200000e-07	-6.481830e-06	-4.769118e-09	-4.629098e+01	-3.133202e+02
3.300000e-07	-6.392250e-06	-4.741326e-09	-4.565123e+01	-3.115094e+02
3.400000e-07	-6.300351e-06	-4.706068e-09	-4.499492e+01	-3.096201e+02
3.500000e-07	-6.206198e-06	-4.677959e-09	-4.432251e+01	-3.076510e+02
3.600000e-07	-6.109773e-06	-4.659594e-09	-4.363388e+01	-3.056025e+02
3.700000e-07	-6.011074e-06	-4.626087e-09	-4.292901e+01	-3.034763e+02
3.800000e-07	-5.910239e-06	-4.579926e-09	-4.220888e+01	-3.012745e+02
3.900000e-07	-5.807322e-06	-4.554513e-09	-4.147388e+01	-2.989992e+02
4.000000e-07	-5.702341e-06	-4.525744e-09	-4.072414e+01	-2.966518e+02
4.100000e-07	-5.595362e-06	-4.485977e-09	-3.996013e+01	-2.942325e+02
4.200000e-07	-5.486471e-06	-4.443135e-09	-3.918247e+01	-2.917404e+02
4.300000e-07	-5.375633e-06	-4.412018e-09	-3.839091e+01	-2.891735e+02
4.400000e-07	-5.262683e-06	-4.371927e-09	-3.758425e+01	-2.865287e+02
4.500000e-07	-5.147612e-06	-4.319939e-09	-3.676246e+01	-2.838023e+02
4.600000e-07	-5.030616e-06	-4.276532e-09	-3.592691e+01	-2.809902e+02
4.700000e-07	-4.911828e-06	-4.237748e-09	-3.507857e+01	-2.780884e+02
4.800000e-07	-4.791287e-06	-4.190827e-09	-3.421771e+01	-2.750931e+02
4.900000e-07	-4.668956e-06	-4.137892e-09	-3.334406e+01	-2.720006e+02
5.000000e-07	-4.544858e-06	-4.090949e-09	-3.245780e+01	-2.688079e+02
5.100000e-07	-4.419160e-06	-4.041147e-09	-3.156011e+01	-2.655118e+02
5.200000e-07	-4.291818e-06	-3.987039e-09	-3.065067e+01	-2.621097e+02
5.300000e-07	-4.162928e-06	-3.931156e-09	-2.973019e+01	-2.585988e+02
5.400000e-07	-4.032540e-06	-3.877717e-09	-2.879900e+01	-2.549762e+02
5.500000e-07	-3.900587e-06	-3.824147e-09	-2.785664e+01	-2.512391e+02
5.600000e-07	-3.767168e-06	-3.767152e-09	-2.690381e+01	-2.473849e+02
5.700000e-07	-3.632327e-06	-3.704292e-09	-2.594082e+01	-2.434107e+02
5.800000e-07	-3.496138e-06	-3.634971e-09	-2.496821e+01	-2.393143e+02
5.900000e-07	-3.358590e-06	-3.565600e-09	-2.398588e+01	-2.350937e+02
6.000000e-07	-3.219544e-06	-3.496587e-09	-2.299287e+01	-2.307470e+02
6.100000e-07	-3.079068e-06	-3.430711e-09	-2.198963e+01	-2.262726e+02
6.200000e-07	-2.937381e-06	-3.364240e-09	-2.097776e+01	-2.216687e+02
6.300000e-07	-2.794561e-06	-3.296829e-09	-1.995779e+01	-2.169330e+02
6.400000e-07	-2.650609e-06	-3.224799e-09	-1.892973e+01	-2.120619e+02
6.500000e-07	-2.505612e-06	-3.147385e-09	-1.789421e+01	-2.070509e+02
6.600000e-07	-2.359751e-06	-3.066322e-09	-1.685252e+01	-2.018933e+02
6.700000e-07	-2.213200e-06	-2.983075e-09	-1.580591e+01	-1.965811e+02
6.800000e-07	-2.066000e-06	-2.900085e-09	-1.475465e+01	-1.911044e+02
6.900000e-07	-1.918121e-06	-2.810302e-09	-1.369855e+01	-1.854522e+02
7.000000e-07	-1.769623e-06	-2.718931e-09	-1.263804e+01	-1.796128e+02
7.100000e-07	-1.620665e-06	-2.624909e-09	-1.157422e+01	-1.735747e+02
7.200000e-07	-1.471278e-06	-2.528789e-09	-1.050736e+01	-1.673273e+02
7.300000e-07	-1.321422e-06	-2.430681e-09	-9.437137e+00	-1.608616e+02
7.400000e-07	-1.171061e-06	-2.329774e-09	-8.363313e+00	-1.541701e+02
7.500000e-07	-1.020211e-06	-2.229356e-09	-7.285990e+00	-1.472474e+02
7.600000e-07	-8.689836e-07	-2.124496e-09	-6.205980e+00	-1.400890e+02
7.700000e-07	-7.174771e-07	-2.011491e-09	-5.123973e+00	-1.326907e+02
7.800000e-07	-5.657335e-07	-1.889925e-09	-4.040273e+00	-1.250472e+02
7.900000e-07	-4.138235e-07	-1.766524e-09	-2.955384e+00	-1.171506e+02
8.000000e-07	-2.617933e-07	-1.640611e-09	-1.869637e+00	-1.089889e+02
8.100000e-07	-1.096562e-07	-1.510438e-09	-7.831269e-01	-1.005452e+02
8.200000e-07	4.257244e-08	-1.375520e-09	3.040376e-01	-9.179694e+01
8.300000e-07	1.948132e-07	-1.234049e-09	1.391288e+00	-8.271637e+01
8.400000e-07	3.470563e-07	-1.086539e-09	2.478556e+00	-7.327203e+01
8.500000e-07	4.993040e-07	-9.352508e-10	3.565856e+00	-6.343103e+01
8.600000e-07	6.514135e-07	-7.813058e-10	4.652170e+00	-5.316226e+01
8.700000e-07	8.033160e-07	-6.192532e-10	5.737005e+00	-4.244033e+01
8.800000e-07	9.549816e-07	-4.477042e-10	6.820148e+00	-3.124965e+01
8.900000e-07	1.106349e-06	-2.702266e-10	7.901163e+00	-1.958851e+01
9.000000e-07	1.257311e-06	-8.979300e-11	8.979282e+00	-7.472410e+00
9.100000e-07	1.407757e-06	9.572697e-11	1.005371e+01	5.063623e+00
9.200000e-07	1.557647e-06	2.900293e-10	1.112417e+01	1.796412e+01
9.300000e-07	1.706976e-06	4.904097e-10	1.219063e+01	3.115392e+01
9.400000e-07	1.855784e-06	6.929980e-10	1.325337e+01	4.454059e+01
9.500000e-07	2.004047e-06	8.965969e-10	1.431221e+01	5.801842e+01
9.600000e-07	2.151536e-06	1.099948e-09	1.536552e+01	7.147362e+01
9.700000e-07	2.298163e-06	1.302411e-09	1.641268e+01	8.479038e+01
9.800000e-07	2.443962e-06	1.502696e-09	1.745393e+01	9.785709e+01
9.900000e-07	2.588836e-06	1.696334e-09	1.848857e+01	1.105723e+02
1.000000e-06	2.732692e-06	1.879466e-09	1.951594e+01	1.228498e+02
1.010000e-06	2.875501e-06	2.052755e-09	2.053583e+01	1.346222e+02
1.020000e-06	3.017260e-06	2.218811e-09	2.154822e+01	1.458433e+02
1.030000e-06	3.157835e-06	2.379131e-09	2.255216e+01	1.564880e+02
1.040000e-06	3.297020e-06	2.532971e-09	2.354618e+01	1.665513e+02
1.050000e-06	3.434815e-06	2.678816e-09	2.453026e+01	1.760454e+02
1.060000e-06	3.571358e-06	2.816880e-09	2.550540e+01	1.849960e+02
1.070000e-06	3.706532e-06	2.949934e-09	2.647077e+01	1.934378e+02
1.080000e-06	3.840322e-06	3.075279e-09	2.742625e+01	2.014103e+02
1.090000e-06	3.972881e-06	3.191393e-09	2.837294e+01	2.089536e+02
1.100000e-06	4.103992e-06	3.299322e-09	2.930929e+01	2.161055e+02
1.110000e-06	4.233555e-06	3.401509e-09	3.023458e+01	2.228993e+02
1.120000e-06	4.361655e-06	3.499630e-09	3.114942e+01	2.293627e+02
1.130000e-06	4.488251e-06	3.592562e-09	3.205353e+01	2.355181e+02
1.140000e-06	4.613401e-06	3.680841e-09	3.294731e+01	2.413831e+02
1.150000e-06	4.736926e-06	3.765210e-09	3.382948e+01	2.469723e+02
1.160000e-06	4.858684e-06	3.845532e-09	3.469904e+01	2.522987e+02
1.170000e-06	4.978759e-06	3.921938e-09	3.555657e+01	2.573750e+02
1.180000e-06	5.097043e-06	3.995453e-09	3.640131e+01	2.622150e+02
1.190000e-06	5.213428e-06	4.065479e-09	3.723250e+01	2.668338e+02
1.200000e-06	5.327797e-06	4.131142e-09	3.804928e+01	2.712477e+02
1.210000e-06	5.440137e-06	4.194189e-09	3.885157e+01	2.754735e+02
1.220000e-06	5.550467e-06	4.256961e-09	3.963951e+01	2.795271e+02
1.230000e-06	5.658815e-06	4.318660e-09	4.041330e+01	2.834224e+02
1.240000e-06	5.765139e-06	4.377977e-09	4.117262e+01	2.871701e+02
1.250000e-06	5.869378e-06	4.433472e-09	4.191706e+01	2.907767e+02
1.260000e-06	5.971501e-06	4.486096e-09	4.264639e+01	2.942443e+02
1.270000e-06	6.071328e-06	4.534331e-09	4.335932e+01	2.975707e+02
1.280000e-06	6.168858e-06	4.578520e-09	4.405584e+01	3.007506e+02
1.290000e-06	6.264085e-06	4.622103e-09	4.473592e+01	3.037769e+02
1.300000e-06	6.357096e-06	4.664058e-09	4.540017e+01	3.066423e+02
1.310000e-06	6.447932e-06	4.702710e-09	4.604889e+01	3.093412e+02
1.320000e-06	6.536419e-06	4.739647e-09	4.668084e+01	3.118710e+02
1.330000e-06	6.622576e-06	4.775998e-09	4.729614e+01	3.142335e+02
1.340000e-06	6.706448e-06	4.809460e-09	4.789513e+01	3.164350e+02
1.350000e-06	6.787956e-06	4.839624e-09	4.847723e+01	3.184863e+02
1.360000e-06	6.866978e-06	4.869972e-09	4.904157e+01	3.204014e+02
1.370000e-06	6.943432e-06	4.899243e-09	4.958758e+01	3.221964e+02
1.380000e-06	7.017215e-06	4.925902e-09	5.011451e+01	3.238877e+02
1.390000e-06	7.088381e-06	4.951073e-09	5.062276e+01	3.254900e+02
1.400000e-06	7.157077e-06	4.974951e-09	5.111336e+01	3.270150e+02
1.410000e-06	7.223240e-06	4.997039e-09	5.158588e+01	3.284702e+02
1.420000e-06	7.286813e-06	5.017182e-09	5.203989e+01	3.298586e+02
1.430000e-06	7.347889e-06	5.036767e-09	5.247608e+01	3.311790e+02
1.440000e-06	7.406425e-06	5.055302e-09	5.289412e+01	3.324266e+02
1.450000e-06	7.462331e-06	5.071897e-09	5.329338e+01	3.335948e+02
1.460000e-06	7.515427e-06	5.086981e-09	5.367257e+01	3.346767e+02
1.470000e-06	7.565442e-06	5.100655e-09	5.402976e+01	3.356666e+02
1.480000e-06	7.612517e-06	5.114665e-09	5.436596e+01	3.365618e+02
1.490000e-06	7.656934e-06	5.129278e-09	5.468317e+01	3.373632e+02
1.500000e-06	7.698616e-06	5.141765e-09	5.498084e+01	3.380759e+02
1.510000e-06	7.737493e-06	5.152873e-09	5.525849e+01	3.387083e+02
1.520000e-06	7.773679e-06	5.162568e-09	5.551692e+01	3.392715e+02
1.530000e-06	7.807097e-06	5.169670e-09	5.575558e+01	3.397777e+02
1.540000e-06	7.837766e-06	5.175853e-09	5.597461e+01	3.402386e+02
1.550000e-06	7.865788e-06	5.183942e-09	5.617473e+01	3.406632e+02
1.560000e-06	7.890938e-06	5.191941e-09	5.635434e+01	3.410571e+02
1.570000e-06	7.913160e-06	5.197937e-09	5.651304e+01	3.414213e+02
1.580000e-06	7.932654e-06	5.203505e-09	5.665226e+01	3.417520e+02
1.590000e-06	7.949320e-06	5.208766e-09	5.677129e+01	3.420414e+02
1.600000e-06	7.962950e-06	5.212514e-09	5.686863e+01	3.422790e+02
1.610000e-06	7.973427e-06	5.214586e-09	5.694345e+01	3.424529e+02
1.620000e-06	7.980833e-06	5.215706e-09	5.699634e+01	3.425522e+02
1.630000e-06	7.985422e-06	5.216161e-09	5.702912e+01	3.425687e+02
1.640000e-06	7.987156e-06	5.218138e-09	5.704150e+01	3.424986e+02
1.650000e-06	7.986100e-06	5.215465e-09	5.703396e+01	3.423433e+02
1.660000e-06	7.982488e-06	5.213028e-09	5.700816e+01	3.421096e+02
1.670000e-06	7.976182e-06	5.210070e-09	5.696313e+01	3.418096e+02
1.680000e-06	7.967149e-06	5.206179e-09	5.689862e+01	3.414589e+02
1.690000e-06	7.955448e-06	5.203784e-09	5.681505e+01	3.410751e+02
1.700000e-06	7.940979e-06	5.203174e-09	5.671172e+01	3.406753e+02
1.710000e-06	7.923933e-06	5.202401e-09	5.658998e+01	3.402742e+02
1.720000e-06	7.904640e-06	5.179507e-09	5.645220e+01	3.398823e+02
1.730000e-06	7.882793e-06	5.135835e-09	5.629618e+01	3.395039e+02
1.740000e-06	7.857670e-06	5.123050e-09	5.611675e+01	3.391373e+02
1.750000e-06	7.828925e-06	5.128152e-09	5.591147e+01	3.387740e+02
1.760000e-06	7.796898e-06	5.131004e-09	5.568274e+01	3.384004e+02
1.770000e-06	7.762341e-06	5.152262e-09	5.543595e+01	3.379991e+02
1.780000e-06	7.725509e-06	5.176860e-09	5.517291e+01	3.375508e+02
1.790000e-06	7.686485e-06	5.133137e-09	5.489421e+01	3.370365e+02
1.800000e-06	7.645338e-06	5.134748e-09	5.460036e+01	3.364398e+02
1.810000e-06	7.601730e-06	5.116363e-09	5.428892e+01	3.357483e+02
1.820000e-06	7.555526e-06	5.091278e-09	5.395895e+01	3.349548e+02
1.830000e-06	7.506541e-06	5.132412e-09	5.360912e+01	3.340580e+02
1.840000e-06	7.454562e-06	5.102661e-09	5.323790e+01	3.330615e+02
1.850000e-06	7.399679e-06	5.108938e-09	5.284594e+01	3.319735e+02
1.860000e-06	7.342004e-06	5.079915e-09	5.243405e+01	3.308052e+02
1.870000e-06	7.281732e-06	5.031377e-09	5.200360e+01	3.295691e+02
1.880000e-06	7.218741e-06	5.019225e-09	5.155374e+01	3.282770e+02
1.890000e-06	7.152947e-06	4.969572e-09	5.108387e+01	3.269392e+02
1.900000e-06	7.084422e-06	4.962054e-09	5.059448e+01	3.255625e+02
1.910000e-06	7.013063e-06	4.960120e-09	5.008487e+01	3.241505e+02
1.920000e-06	6.939055e-06	4.937156e-09	4.955633e+01	3.227027e+02
1.930000e-06	6.862356e-06	4.903915e-09	4.900856e+01	3.212155e+02
1.940000e-06	6.782916e-06	4.872852e-09	4.844123e+01	3.196828e+02
1.950000e-06	6.701001e-06	4.867965e-09	4.785622e+01	3.180969e+02
1.960000e-06	6.616642e-06	4.836635e-09	4.725376e+01	3.164499e+02
1.970000e-06	6.529761e-06	4.810850e-09	4.663329e+01	3.147347e+02
1.980000e-06	6.440471e-06	4.787529e-09	4.599561e+01	3.129454e+02
1.990000e-06	6.348978e-06	4.754087e-09	4.534220e+01	3.110782e+02
2.000000e-06	6.255200e-06	4.707941e-09	4.467247e+01	3.091314e+02
2.010000e-06	6.159121e-06	4.684132e-09	4.398631e+01	3.071049e+02
2.020000e-06	6.060882e-06	4.671128e-09	4.328472e+01	3.050002e+02
2.030000e-06	5.960542e-06	4.632765e-09	4.256813e+01	3.028193e+02
2.040000e-06	5.858080e-06	4.593205e-09	4.183637e+01	3.005644e+02
2.050000e-06	5.753509e-06	4.559938e-09	4.108957e+01	2.982369e+02
2.060000e-06	5.646992e-06	4.525934e-09	4.032886e+01	2.958377e+02
2.070000e-06	5.538624e-06	4.476064e-09	3.955493e+01	2.933661e+02
2.080000e-06	5.428327e-06	4.434963e-09	3.876723e+01	2.908203e+02
2.090000e-06	5.315974e-06	4.403349e-09	3.796484e+01	2.881976e+02
2.100000e-06	5.201593e-06	4.366253e-09	3.714798e+01	2.854944e+02
2.110000e-06	5.085236e-06	4.322166e-09	3.631699e+01	2.827067e+02
2.120000e-06	4.966820e-06	4.282193e-09	3.547130e+01	2.798305e+02
2.130000e-06	4.846449e-06	4.236700e-09	3.461166e+01	2.768617e+02
2.140000e-06	4.724331e-06	4.184302e-09	3.373953e+01	2.737968e+02
2.150000e-06	4.600526e-06	4.137152e-09	3.285536e+01	2.706325e+02
2.160000e-06	4.475126e-06	4.094430e-09	3.195980e+01	2.673658e+02
2.170000e-06	4.348072e-06	4.048634e-09	3.105243e+01	2.639937e+02
2.180000e-06	4.219342e-06	3.990889e-09	3.013308e+01	2.605137e+02
2.190000e-06	4.089063e-06	3.930073e-09	2.920267e+01	2.569228e+02
2.200000e-06	3.957216e-06	3.868943e-09	2.826107e+01	2.532182e+02
2.210000e-06	3.823994e-06	3.813185e-09	2.730964e+01	2.493972e+02
2.220000e-06	3.689371e-06	3.762845e-09	2.634821e+01	2.454570e+02
2.230000e-06	3.553210e-06	3.709146e-09	2.537580e+01	2.413953e+02
2.240000e-06	3.415718e-06	3.646742e-09	2.439387e+01	2.372098e+02
2.250000e-06	3.277019e-06	3.576663e-09	2.340333e+01	2.328988e+02
2.260000e-06	3.137095e-06	3.503053e-09	2.240404e+01	2.284606e+02
2.270000e-06	2.995974e-06	3.427331e-09	2.139621e+01	2.238934e+02
2.280000e-06	2.853657e-06	3.354509e-09	2.037983e+01	2.191951e+02
2.290000e-06	2.710136e-06	3.283802e-09	1.935485e+01	2.143626e+02
2.300000e-06	2.565637e-06	3.209784e-09	1.832289e+01	2.093916e+02
2.310000e-06	2.420331e-06	3.133664e-09	1.728516e+01	2.042762e+02
2.320000e-06	2.274257e-06	3.056054e-09	1.624196e+01	1.990086e+02
2.330000e-06	2.127357e-06	2.974140e-09	1.519284e+01	1.935795e+02
2.340000e-06	1.979686e-06	2.884541e-09	1.413823e+01	1.879780e+02
2.350000e-06	1.831386e-06	2.792766e-09	1.307913e+01	1.821928e+02
2.360000e-06	1.682539e-06	2.703568e-09	1.201611e+01	1.762121e+02
2.370000e-06	1.533208e-06	2.612908e-09	1.094964e+01	1.700250e+02
2.380000e-06	1.383446e-06	2.517220e-09	9.880092e+00	1.636220e+02
2.390000e-06	1.233260e-06	2.413941e-09	8.807516e+00	1.569951e+02
2.400000e-06	1.082637e-06	2.303913e-09	7.731817e+00	1.501385e+02
2.410000e-06	9.316211e-07	2.192433e-09	6.653315e+00	1.430473e+02
2.420000e-06	7.802374e-07	2.082402e-09	5.572185e+00	1.357175e+02
2.430000e-06	6.285155e-07	1.973619e-09	4.488640e+00	1.281442e+02
2.440000e-06	4.764631e-07	1.859163e-09	3.402734e+00	1.203204e+02
2.450000e-06	3.241479e-07	1.736762e-09	2.314952e+00	1.122355e+02
2.460000e-06	1.716940e-07	1.608023e-09	1.226179e+00	1.038739e+02
2.470000e-06	1.917992e-08	1.473621e-09	1.369763e-01	9.521477e+01
2.480000e-06	-1.333882e-07	1.335575e-09	-9.526120e-01	8.623170e+01
2.490000e-06	-2.859574e-07	1.193199e-09	-2.042209e+00	7.689414e+01
2.500000e-06	-4.383988e-07	1.044964e-09	-3.130892e+00	6.716928e+01
2.510000e-06	-5.906835e-07	8.902595e-10	-4.218457e+00	5.702514e+01
2.520000e-06	-7.427649e-07	7.282626e-10	-5.304569e+00	4.643427e+01
2.530000e-06	-8.945262e-07	5.582365e-10	-6.388396e+00	3.537786e+01
2.540000e-06	-1.045886e-06	3.818351e-10	-7.469353e+00	2.384986e+01
2.550000e-06	-1.196771e-06	1.996493e-10	-8.546925e+00	1.186054e+01
2.560000e-06	-1.347143e-06	1.169774e-11	-9.620829e+00	-5.607869e-01
2.570000e-06	-1.497021e-06	-1.834369e-10	-1.069121e+01	-1.336450e+01
2.580000e-06	-1.646464e-06	-3.857508e-10	-1.175848e+01	-2.648089e+01
2.590000e-06	-1.795415e-06	-5.938221e-10	-1.282223e+01	-3.982212e+01
2.600000e-06	-1.943759e-06	-8.046126e-10	-1.388165e+01	-5.328578e+01
2.610000e-06	-2.091367e-06	-1.015715e-09	-1.493582e+01	-6.675980e+01
2.620000e-06	-2.238080e-06	-1.225163e-09	-1.598359e+01	-8.012831e+01
2.630000e-06	-2.383925e-06	-1.429197e-09	-1.702517e+01	-9.327787e+01
2.640000e-06	-2.529026e-06	-1.626671e-09	-1.806143e+01	-1.061036e+02
2.650000e-06	-2.673229e-06	-1.816927e-09	-1.909127e+01	-1.185144e+02
2.660000e-06	-2.816219e-06	-1.999648e-09	-2.011246e+01	-1.304373e+02
2.670000e-06	-2.957992e-06	-2.172251e-09	-2.112495e+01	-1.418199e+02
2.680000e-06	-3.098660e-06	-2.332821e-09	-2.212956e+01	-1.526311e+02
2.690000e-06	-3.238085e-06	-2.484675e-09	-2.312528e+01	-1.628605e+02
2.700000e-06	-3.376244e-06	-2.632115e-09	-2.411197e+01	-1.725156e+02
2.710000e-06	-3.513217e-06	-2.775663e-09	-2.509018e+01	-1.816188e+02
2.720000e-06	-3.648849e-06	-2.911336e-09	-2.605881e+01	-1.902026e+02
2.730000e-06	-3.783052e-06	-3.038145e-09	-2.701724e+01	-1.983055e+02
2.740000e-06	-3.915950e-06	-3.155410e-09	-2.796635e+01	-2.059679e+02
2.750000e-06	-4.047508e-06	-3.264778e-09	-2.890590e+01	-2.132285e+02
2.760000e-06	-4.177670e-06	-3.368259e-09	-2.983547e+01	-2.201221e+02
2.770000e-06	-4.306451e-06	-3.467148e-09	-3.075518e+01	-2.266779e+02
2.780000e-06	-4.433640e-06	-3.563353e-09	-3.166352e+01	-2.329199e+02
2.790000e-06	-4.559272e-06	-3.655423e-09	-3.256074e+01	-2.388668e+02
2.800000e-06	-4.683423e-06	-3.742233e-09	-3.344738e+01	-2.445339e+02
2.810000e-06	-4.805889e-06	-3.824170e-09	-3.432199e+01	-2.499346e+02
2.820000e-06	-4.926577e-06	-3.902404e-09	-3.518390e+01	-2.550815e+02
2.830000e-06	-5.045381e-06	-3.975581e-09	-3.603236e+01	-2.599880e+02
2.840000e-06	-5.162234e-06	-4.045108e-09	-3.686689e+01	-2.646689e+02
2.850000e-06	-5.276954e-06	-4.112301e-09	-3.768617e+01	-2.691402e+02
2.860000e-06	-5.389441e-06	-4.178199e-09	-3.848952e+01	-2.734186e+02
2.870000e-06	-5.499874e-06	-4.243628e-09	-3.927819e+01	-2.775203e+02
2.880000e-06	-5.608354e-06	-4.307166e-09	-4.005292e+01	-2.814601e+02
2.890000e-06	-5.715006e-06	-4.368492e-09	-4.081459e+01	-2.852497e+02
2.900000e-06	-5.819691e-06	-4.426673e-09	-4.156222e+01	-2.888967e+02
2.910000e-06	-5.922134e-06	-4.481166e-09	-4.229383e+01	-2.924045e+02
2.920000e-06	-6.022280e-06	-4.533269e-09	-4.300904e+01	-2.957722e+02
2.930000e-06	-6.120310e-06	-4.581673e-09	-4.370913e+01	-2.989952e+02
2.940000e-06	-6.216252e-06	-4.626132e-09	-4.439431e+01	-3.020667e+02
