# Temperatura_=_36.59
# Concentracion g/m^3_=_5000.0
# C_Vs_to_Am_M_A/Vsm_=_65563218390.804596
# pendiente_HvsI_1/m_=_3716.3
# ordenada_HvsI_A/m_=_1297.0
# frecuencia_Hz_=_302511.854561858

Tiempo_(s)	Campo_(V.s)	Magnetizacion_(V.s)	Campo_(kA/m)	Magnetizacion_(A/m)
0.000000e+00	-7.988120e-06	-5.279881e-09	-5.686196e+01	-3.448508e+02
1.000000e-08	-7.983661e-06	-5.277637e-09	-5.683022e+01	-3.446037e+02
2.000000e-08	-7.976734e-06	-5.274142e-09	-5.678091e+01	-3.442948e+02
3.000000e-08	-7.967100e-06	-5.270895e-09	-5.671233e+01	-3.439383e+02
4.000000e-08	-7.954549e-06	-5.265692e-09	-5.662299e+01	-3.435494e+02
5.000000e-08	-7.938967e-06	-5.257615e-09	-5.651207e+01	-3.431427e+02
6.000000e-08	-7.920677e-06	-5.249599e-09	-5.638187e+01	-3.427305e+02
7.000000e-08	-7.900201e-06	-5.245062e-09	-5.623612e+01	-3.423210e+02
8.000000e-08	-7.877174e-06	-5.285689e-09	-5.607221e+01	-3.419174e+02
9.000000e-08	-7.850923e-06	-5.297617e-09	-5.588534e+01	-3.415175e+02
1.000000e-07	-7.821464e-06	-5.258054e-09	-5.567565e+01	-3.411137e+02
1.100000e-07	-7.789109e-06	-5.228377e-09	-5.544533e+01	-3.406944e+02
1.200000e-07	-7.753993e-06	-5.211922e-09	-5.519537e+01	-3.402450e+02
1.300000e-07	-7.716472e-06	-5.175156e-09	-5.492828e+01	-3.397498e+02
1.400000e-07	-7.676866e-06	-5.129577e-09	-5.464636e+01	-3.391937e+02
1.500000e-07	-7.634952e-06	-5.197788e-09	-5.434800e+01	-3.385638e+02
1.600000e-07	-7.590303e-06	-5.168962e-09	-5.403017e+01	-3.378505e+02
1.700000e-07	-7.542966e-06	-5.110886e-09	-5.369321e+01	-3.370484e+02
1.800000e-07	-7.492801e-06	-5.154568e-09	-5.333612e+01	-3.361566e+02
1.900000e-07	-7.439598e-06	-5.104487e-09	-5.295741e+01	-3.351778e+02
2.000000e-07	-7.383617e-06	-5.073687e-09	-5.255892e+01	-3.341179e+02
2.100000e-07	-7.324885e-06	-5.060113e-09	-5.214085e+01	-3.329848e+02
2.200000e-07	-7.263500e-06	-5.046308e-09	-5.170388e+01	-3.317866e+02
2.300000e-07	-7.199485e-06	-5.041756e-09	-5.124820e+01	-3.305313e+02
2.400000e-07	-7.132673e-06	-5.004721e-09	-5.077262e+01	-3.292248e+02
2.500000e-07	-7.063142e-06	-5.003689e-09	-5.027767e+01	-3.278710e+02
2.600000e-07	-6.990910e-06	-4.981086e-09	-4.976350e+01	-3.264710e+02
2.700000e-07	-6.915913e-06	-4.940140e-09	-4.922965e+01	-3.250234e+02
2.800000e-07	-6.838083e-06	-4.907844e-09	-4.867563e+01	-3.235249e+02
2.900000e-07	-6.757470e-06	-4.907857e-09	-4.810180e+01	-3.219706e+02
3.000000e-07	-6.674384e-06	-4.902618e-09	-4.751037e+01	-3.203551e+02
3.100000e-07	-6.589049e-06	-4.846051e-09	-4.690293e+01	-3.186729e+02
3.200000e-07	-6.501464e-06	-4.828043e-09	-4.627948e+01	-3.169196e+02
3.300000e-07	-6.411534e-06	-4.805922e-09	-4.563933e+01	-3.150914e+02
3.400000e-07	-6.319313e-06	-4.767935e-09	-4.498286e+01	-3.131860e+02
3.500000e-07	-6.224857e-06	-4.732939e-09	-4.431050e+01	-3.112025e+02
3.600000e-07	-6.128095e-06	-4.712989e-09	-4.362171e+01	-3.091406e+02
3.700000e-07	-6.029032e-06	-4.686461e-09	-4.291655e+01	-3.070007e+02
3.800000e-07	-5.927757e-06	-4.635743e-09	-4.219565e+01	-3.047835e+02
3.900000e-07	-5.824419e-06	-4.608791e-09	-4.146005e+01	-3.024894e+02
4.000000e-07	-5.719082e-06	-4.580850e-09	-4.071023e+01	-3.001184e+02
4.100000e-07	-5.611697e-06	-4.541228e-09	-3.994583e+01	-2.976701e+02
4.200000e-07	-5.502310e-06	-4.488686e-09	-3.916718e+01	-2.951433e+02
4.300000e-07	-5.391022e-06	-4.453904e-09	-3.837500e+01	-2.925366e+02
4.400000e-07	-5.277711e-06	-4.420726e-09	-3.756841e+01	-2.898481e+02
4.500000e-07	-5.162255e-06	-4.374252e-09	-3.674656e+01	-2.870759e+02
4.600000e-07	-5.044770e-06	-4.328609e-09	-3.591027e+01	-2.842179e+02
4.700000e-07	-4.925468e-06	-4.288285e-09	-3.506104e+01	-2.812720e+02
4.800000e-07	-4.804433e-06	-4.244043e-09	-3.419947e+01	-2.782357e+02
4.900000e-07	-4.681593e-06	-4.189307e-09	-3.332506e+01	-2.751067e+02
5.000000e-07	-4.557038e-06	-4.141913e-09	-3.243843e+01	-2.718819e+02
5.100000e-07	-4.430874e-06	-4.091515e-09	-3.154036e+01	-2.685579e+02
5.200000e-07	-4.303083e-06	-4.035490e-09	-3.063070e+01	-2.651307e+02
5.300000e-07	-4.173804e-06	-3.972737e-09	-2.971045e+01	-2.615958e+02
5.400000e-07	-4.042983e-06	-3.915823e-09	-2.877923e+01	-2.579484e+02
5.500000e-07	-3.910586e-06	-3.862247e-09	-2.783678e+01	-2.541836e+02
5.600000e-07	-3.776681e-06	-3.806126e-09	-2.688361e+01	-2.502971e+02
5.700000e-07	-3.641303e-06	-3.748563e-09	-2.591994e+01	-2.462851e+02
5.800000e-07	-3.504590e-06	-3.686182e-09	-2.494678e+01	-2.421446e+02
5.900000e-07	-3.366526e-06	-3.622235e-09	-2.396399e+01	-2.378738e+02
6.000000e-07	-3.226964e-06	-3.553770e-09	-2.297055e+01	-2.334719e+02
6.100000e-07	-3.086002e-06	-3.483430e-09	-2.196714e+01	-2.289383e+02
6.200000e-07	-2.943842e-06	-3.409569e-09	-2.095519e+01	-2.242730e+02
6.300000e-07	-2.800566e-06	-3.335175e-09	-1.993532e+01	-2.194747e+02
6.400000e-07	-2.656195e-06	-3.258166e-09	-1.890763e+01	-2.145414e+02
6.500000e-07	-2.510754e-06	-3.178294e-09	-1.787234e+01	-2.094688e+02
6.600000e-07	-2.364432e-06	-3.097332e-09	-1.683077e+01	-2.042503e+02
6.700000e-07	-2.217362e-06	-3.017347e-09	-1.578388e+01	-1.988769e+02
6.800000e-07	-2.069616e-06	-2.937573e-09	-1.473218e+01	-1.933375e+02
6.900000e-07	-1.921267e-06	-2.850255e-09	-1.367618e+01	-1.876193e+02
7.000000e-07	-1.772336e-06	-2.759133e-09	-1.261604e+01	-1.817088e+02
7.100000e-07	-1.622867e-06	-2.663332e-09	-1.155208e+01	-1.755930e+02
7.200000e-07	-1.472848e-06	-2.565636e-09	-1.048420e+01	-1.692604e+02
7.300000e-07	-1.322294e-06	-2.463897e-09	-9.412502e+00	-1.627015e+02
7.400000e-07	-1.171310e-06	-2.358348e-09	-8.337754e+00	-1.559097e+02
7.500000e-07	-1.019951e-06	-2.252445e-09	-7.260332e+00	-1.488810e+02
7.600000e-07	-8.682854e-07	-2.144407e-09	-6.180730e+00	-1.416132e+02
7.700000e-07	-7.163738e-07	-2.030933e-09	-5.099375e+00	-1.341049e+02
7.800000e-07	-5.641988e-07	-1.911852e-09	-4.016145e+00	-1.263539e+02
7.900000e-07	-4.118251e-07	-1.790701e-09	-2.931501e+00	-1.183549e+02
8.000000e-07	-2.593008e-07	-1.664166e-09	-1.845785e+00	-1.100983e+02
8.100000e-07	-1.066294e-07	-1.532276e-09	-7.590217e-01	-1.015682e+02
8.200000e-07	4.610760e-08	-1.394264e-09	3.282085e-01	-9.274230e+01
8.300000e-07	1.988207e-07	-1.249997e-09	1.415268e+00	-8.359194e+01
8.400000e-07	3.514983e-07	-1.100749e-09	2.502076e+00	-7.408358e+01
8.500000e-07	5.041241e-07	-9.485816e-10	3.588515e+00	-6.418142e+01
8.600000e-07	6.565613e-07	-7.920329e-10	4.673611e+00	-5.385096e+01
8.700000e-07	8.087659e-07	-6.283120e-10	5.757051e+00	-4.306332e+01
8.800000e-07	9.607831e-07	-4.571227e-10	6.839157e+00	-3.179979e+01
8.900000e-07	1.112565e-06	-2.794385e-10	7.919592e+00	-2.005628e+01
9.000000e-07	1.264050e-06	-9.694976e-11	8.997905e+00	-7.846927e+00
9.100000e-07	1.415094e-06	9.220888e-11	1.007309e+01	4.793363e+00
9.200000e-07	1.565576e-06	2.866708e-10	1.114427e+01	1.780804e+01
9.300000e-07	1.715511e-06	4.869768e-10	1.221155e+01	3.111976e+01
9.400000e-07	1.864784e-06	6.917941e-10	1.327412e+01	4.463310e+01
9.500000e-07	2.013303e-06	8.988065e-10	1.433132e+01	5.823893e+01
9.600000e-07	2.161098e-06	1.105438e-09	1.538338e+01	7.182001e+01
9.700000e-07	2.308132e-06	1.309858e-09	1.643001e+01	8.525748e+01
9.800000e-07	2.454321e-06	1.512924e-09	1.747063e+01	9.843747e+01
9.900000e-07	2.599546e-06	1.708997e-09	1.850439e+01	1.112573e+02
1.000000e-06	2.743834e-06	1.892956e-09	1.953147e+01	1.236306e+02
1.010000e-06	2.887171e-06	2.066637e-09	2.055180e+01	1.354911e+02
1.020000e-06	3.029384e-06	2.234061e-09	2.156411e+01	1.467944e+02
1.030000e-06	3.170333e-06	2.395454e-09	2.256743e+01	1.575183e+02
1.040000e-06	3.309901e-06	2.550574e-09	2.356092e+01	1.676606e+02
1.050000e-06	3.448154e-06	2.696854e-09	2.454505e+01	1.772366e+02
1.060000e-06	3.585121e-06	2.835885e-09	2.552002e+01	1.862742e+02
1.070000e-06	3.720747e-06	2.969513e-09	2.648545e+01	1.948100e+02
1.080000e-06	3.855022e-06	3.095371e-09	2.744126e+01	2.028840e+02
1.090000e-06	3.987932e-06	3.213962e-09	2.838736e+01	2.105361e+02
1.100000e-06	4.119406e-06	3.323877e-09	2.932323e+01	2.178026e+02
1.110000e-06	4.249401e-06	3.428898e-09	3.024858e+01	2.247148e+02
1.120000e-06	4.377939e-06	3.529314e-09	3.116355e+01	2.312974e+02
1.130000e-06	4.504906e-06	3.623456e-09	3.206734e+01	2.375696e+02
1.140000e-06	4.630331e-06	3.713012e-09	3.296015e+01	2.435462e+02
1.150000e-06	4.754194e-06	3.798163e-09	3.384185e+01	2.492389e+02
1.160000e-06	4.876385e-06	3.878860e-09	3.471165e+01	2.546586e+02
1.170000e-06	4.996864e-06	3.955408e-09	3.556926e+01	2.598170e+02
1.180000e-06	5.115558e-06	4.030130e-09	3.641415e+01	2.647274e+02
1.190000e-06	5.232343e-06	4.102223e-09	3.724547e+01	2.694055e+02
1.200000e-06	5.347075e-06	4.170458e-09	3.806216e+01	2.738689e+02
1.210000e-06	5.459731e-06	4.235249e-09	3.886409e+01	2.781363e+02
1.220000e-06	5.570329e-06	4.297718e-09	3.965136e+01	2.822260e+02
1.230000e-06	5.678976e-06	4.357764e-09	4.042475e+01	2.861545e+02
1.240000e-06	5.785677e-06	4.415451e-09	4.118427e+01	2.899347e+02
1.250000e-06	5.890200e-06	4.470491e-09	4.192830e+01	2.935752e+02
1.260000e-06	5.992524e-06	4.521971e-09	4.265668e+01	2.970799e+02
1.270000e-06	6.092682e-06	4.569862e-09	4.336963e+01	3.004475e+02
1.280000e-06	6.190501e-06	4.616103e-09	4.406594e+01	3.036733e+02
1.290000e-06	6.285955e-06	4.662406e-09	4.474541e+01	3.067500e+02
1.300000e-06	6.379232e-06	4.706628e-09	4.540939e+01	3.096697e+02
1.310000e-06	6.470301e-06	4.746145e-09	4.605765e+01	3.124257e+02
1.320000e-06	6.559003e-06	4.781794e-09	4.668905e+01	3.150142e+02
1.330000e-06	6.645389e-06	4.817616e-09	4.730398e+01	3.174356e+02
1.340000e-06	6.729477e-06	4.853206e-09	4.790254e+01	3.196947e+02
1.350000e-06	6.811165e-06	4.886609e-09	4.848402e+01	3.218009e+02
1.360000e-06	6.890317e-06	4.917663e-09	4.904745e+01	3.237672e+02
1.370000e-06	6.966899e-06	4.946264e-09	4.959259e+01	3.256090e+02
1.380000e-06	7.040862e-06	4.973266e-09	5.011908e+01	3.273420e+02
1.390000e-06	7.112169e-06	4.999182e-09	5.062666e+01	3.289808e+02
1.400000e-06	7.181021e-06	5.024140e-09	5.111677e+01	3.305374e+02
1.410000e-06	7.247396e-06	5.046812e-09	5.158925e+01	3.320197e+02
1.420000e-06	7.311165e-06	5.067602e-09	5.204318e+01	3.334313e+02
1.430000e-06	7.372465e-06	5.086905e-09	5.247953e+01	3.347716e+02
1.440000e-06	7.431234e-06	5.105829e-09	5.289787e+01	3.360365e+02
1.450000e-06	7.487322e-06	5.123953e-09	5.329712e+01	3.372199e+02
1.460000e-06	7.540607e-06	5.140709e-09	5.367642e+01	3.383154e+02
1.470000e-06	7.590809e-06	5.156173e-09	5.403377e+01	3.393173e+02
1.480000e-06	7.638011e-06	5.170074e-09	5.436977e+01	3.402229e+02
1.490000e-06	7.682545e-06	5.183679e-09	5.468678e+01	3.410326e+02
1.500000e-06	7.724371e-06	5.196593e-09	5.498451e+01	3.417509e+02
1.510000e-06	7.763365e-06	5.208077e-09	5.526208e+01	3.423856e+02
1.520000e-06	7.799671e-06	5.216914e-09	5.552052e+01	3.429473e+02
1.530000e-06	7.833251e-06	5.224397e-09	5.575955e+01	3.434476e+02
1.540000e-06	7.864023e-06	5.232465e-09	5.597860e+01	3.438979e+02
1.550000e-06	7.892043e-06	5.241736e-09	5.617806e+01	3.443075e+02
1.560000e-06	7.917127e-06	5.249591e-09	5.635661e+01	3.446826e+02
1.570000e-06	7.939326e-06	5.253249e-09	5.651463e+01	3.450252e+02
1.580000e-06	7.958832e-06	5.256513e-09	5.665347e+01	3.453330e+02
1.590000e-06	7.975451e-06	5.262212e-09	5.677178e+01	3.455997e+02
1.600000e-06	7.989036e-06	5.267317e-09	5.686848e+01	3.458164e+02
1.610000e-06	7.999534e-06	5.269945e-09	5.694320e+01	3.459730e+02
1.620000e-06	8.006964e-06	5.270701e-09	5.699609e+01	3.460597e+02
1.630000e-06	8.011563e-06	5.271327e-09	5.702883e+01	3.460689e+02
1.640000e-06	8.013342e-06	5.273271e-09	5.704150e+01	3.459968e+02
1.650000e-06	8.012340e-06	5.269755e-09	5.703436e+01	3.458441e+02
1.660000e-06	8.008744e-06	5.266348e-09	5.700877e+01	3.456162e+02
1.670000e-06	8.002414e-06	5.264136e-09	5.696370e+01	3.453232e+02
1.680000e-06	7.993351e-06	5.259194e-09	5.689920e+01	3.449782e+02
1.690000e-06	7.981608e-06	5.253358e-09	5.681560e+01	3.445965e+02
1.700000e-06	7.967011e-06	5.252338e-09	5.671170e+01	3.441930e+02
1.710000e-06	7.949768e-06	5.256121e-09	5.658896e+01	3.437809e+02
1.720000e-06	7.930281e-06	5.234636e-09	5.645024e+01	3.433696e+02
1.730000e-06	7.908305e-06	5.161796e-09	5.629381e+01	3.429638e+02
1.740000e-06	7.883068e-06	5.156916e-09	5.611416e+01	3.425628e+02
1.750000e-06	7.854144e-06	5.181252e-09	5.590828e+01	3.421607e+02
1.760000e-06	7.821922e-06	5.173991e-09	5.567891e+01	3.417467e+02
1.770000e-06	7.787204e-06	5.187751e-09	5.543177e+01	3.413070e+02
1.780000e-06	7.750230e-06	5.243859e-09	5.516858e+01	3.408260e+02
1.790000e-06	7.711045e-06	5.182156e-09	5.488965e+01	3.402882e+02
1.800000e-06	7.669677e-06	5.162232e-09	5.459518e+01	3.396800e+02
1.810000e-06	7.625743e-06	5.201416e-09	5.428244e+01	3.389908e+02
1.820000e-06	7.579272e-06	5.126210e-09	5.395165e+01	3.382139e+02
1.830000e-06	7.530131e-06	5.180208e-09	5.360185e+01	3.373471e+02
1.840000e-06	7.477925e-06	5.145716e-09	5.323023e+01	3.363922e+02
1.850000e-06	7.422779e-06	5.112730e-09	5.283768e+01	3.353542e+02
1.860000e-06	7.364845e-06	5.124093e-09	5.242529e+01	3.342406e+02
1.870000e-06	7.304350e-06	5.048891e-09	5.199467e+01	3.330597e+02
1.880000e-06	7.241146e-06	5.084012e-09	5.154476e+01	3.318195e+02
1.890000e-06	7.175091e-06	5.043672e-09	5.107456e+01	3.305267e+02
1.900000e-06	7.106259e-06	5.014055e-09	5.058459e+01	3.291856e+02
1.910000e-06	7.034567e-06	5.024149e-09	5.007427e+01	3.277984e+02
1.920000e-06	6.960245e-06	4.990820e-09	4.954522e+01	3.263641e+02
1.930000e-06	6.883174e-06	4.982598e-09	4.899660e+01	3.248801e+02
1.940000e-06	6.803337e-06	4.918476e-09	4.842830e+01	3.233418e+02
1.950000e-06	6.721027e-06	4.918288e-09	4.784239e+01	3.217439e+02
1.960000e-06	6.636294e-06	4.892020e-09	4.723923e+01	3.200808e+02
1.970000e-06	6.549091e-06	4.851765e-09	4.661849e+01	3.183477e+02
1.980000e-06	6.459475e-06	4.844327e-09	4.598058e+01	3.165406e+02
1.990000e-06	6.367732e-06	4.811028e-09	4.532752e+01	3.146570e+02
2.000000e-06	6.273764e-06	4.774838e-09	4.465863e+01	3.126954e+02
2.010000e-06	6.177416e-06	4.729211e-09	4.397279e+01	3.106554e+02
2.020000e-06	6.078802e-06	4.718948e-09	4.327083e+01	3.085372e+02
2.030000e-06	5.978121e-06	4.686872e-09	4.255415e+01	3.063415e+02
2.040000e-06	5.875331e-06	4.649909e-09	4.182246e+01	3.040689e+02
2.050000e-06	5.770419e-06	4.613215e-09	4.107566e+01	3.017194e+02
2.060000e-06	5.663591e-06	4.577537e-09	4.031523e+01	2.992927e+02
2.070000e-06	5.554814e-06	4.535527e-09	3.954092e+01	2.967880e+02
2.080000e-06	5.444035e-06	4.487845e-09	3.875236e+01	2.942038e+02
2.090000e-06	5.331163e-06	4.457624e-09	3.794890e+01	2.915384e+02
2.100000e-06	5.216259e-06	4.420026e-09	3.713098e+01	2.887898e+02
2.110000e-06	5.099450e-06	4.377098e-09	3.629950e+01	2.859561e+02
2.120000e-06	4.980666e-06	4.328612e-09	3.545395e+01	2.830350e+02
2.130000e-06	4.859942e-06	4.285805e-09	3.459460e+01	2.800243e+02
2.140000e-06	4.737400e-06	4.237682e-09	3.372231e+01	2.769215e+02
2.150000e-06	4.613134e-06	4.191234e-09	3.283774e+01	2.737239e+02
2.160000e-06	4.487184e-06	4.144522e-09	3.194119e+01	2.704281e+02
2.170000e-06	4.359588e-06	4.097677e-09	3.103292e+01	2.670304e+02
2.180000e-06	4.230422e-06	4.044819e-09	3.011348e+01	2.635262e+02
2.190000e-06	4.099742e-06	3.987643e-09	2.918326e+01	2.599109e+02
2.200000e-06	3.967607e-06	3.928882e-09	2.824268e+01	2.561797e+02
2.210000e-06	3.834068e-06	3.868543e-09	2.729211e+01	2.523279e+02
2.220000e-06	3.698987e-06	3.810759e-09	2.633056e+01	2.483516e+02
2.230000e-06	3.562367e-06	3.748785e-09	2.535805e+01	2.442475e+02
2.240000e-06	3.424390e-06	3.684772e-09	2.437589e+01	2.400136e+02
2.250000e-06	3.285205e-06	3.616501e-09	2.338513e+01	2.356487e+02
2.260000e-06	3.144809e-06	3.548546e-09	2.238574e+01	2.311523e+02
2.270000e-06	3.003108e-06	3.476371e-09	2.137707e+01	2.265241e+02
2.280000e-06	2.860177e-06	3.403634e-09	2.035964e+01	2.217635e+02
2.290000e-06	2.716106e-06	3.330026e-09	1.933410e+01	2.168687e+02
2.300000e-06	2.571103e-06	3.255045e-09	1.830192e+01	2.118359e+02
2.310000e-06	2.425303e-06	3.181075e-09	1.726407e+01	2.066594e+02
2.320000e-06	2.278667e-06	3.102235e-09	1.622027e+01	2.013308e+02
2.330000e-06	2.131268e-06	3.016477e-09	1.517104e+01	1.958396e+02
2.340000e-06	1.983185e-06	2.924424e-09	1.411694e+01	1.901733e+02
2.350000e-06	1.834480e-06	2.831483e-09	1.305840e+01	1.843186e+02
2.360000e-06	1.685241e-06	2.739168e-09	1.199608e+01	1.782623e+02
2.370000e-06	1.535480e-06	2.644491e-09	1.093003e+01	1.719922e+02
2.380000e-06	1.385228e-06	2.547227e-09	9.860488e+00	1.654982e+02
2.390000e-06	1.234492e-06	2.444663e-09	8.787500e+00	1.587730e+02
2.400000e-06	1.083263e-06	2.337358e-09	7.711006e+00	1.518117e+02
2.410000e-06	9.315757e-07	2.229499e-09	6.631250e+00	1.446119e+02
2.420000e-06	7.794840e-07	2.118454e-09	5.548613e+00	1.371720e+02
2.430000e-06	6.271377e-07	2.003272e-09	4.464164e+00	1.294902e+02
2.440000e-06	4.746734e-07	1.882232e-09	3.378875e+00	1.215624e+02
2.450000e-06	3.220819e-07	1.756299e-09	2.292680e+00	1.133802e+02
2.460000e-06	1.693607e-07	1.626743e-09	1.205563e+00	1.049297e+02
2.470000e-06	1.656858e-08	1.493236e-09	1.179404e-01	9.619048e+01
2.480000e-06	-1.362726e-07	1.356513e-09	-9.700316e-01	8.713558e+01
2.490000e-06	-2.891331e-07	1.214176e-09	-2.058140e+00	7.773262e+01
2.500000e-06	-4.419072e-07	1.064418e-09	-3.145635e+00	6.794613e+01
2.510000e-06	-5.945395e-07	9.077082e-10	-4.232120e+00	5.774082e+01
2.520000e-06	-7.470005e-07	7.459165e-10	-5.317385e+00	4.708574e+01
2.530000e-06	-8.992377e-07	5.761906e-10	-6.401058e+00	3.595882e+01
2.540000e-06	-1.051185e-06	3.982860e-10	-7.482664e+00	2.435136e+01
2.550000e-06	-1.202702e-06	2.147584e-10	-8.561209e+00	1.227198e+01
2.560000e-06	-1.353718e-06	2.558119e-11	-9.636194e+00	-2.505022e-01
2.570000e-06	-1.504248e-06	-1.711339e-10	-1.070771e+01	-1.316573e+01
2.580000e-06	-1.654250e-06	-3.766450e-10	-1.177547e+01	-2.640209e+01
2.590000e-06	-1.803610e-06	-5.878318e-10	-1.283867e+01	-3.986896e+01
2.600000e-06	-1.952261e-06	-8.012234e-10	-1.389681e+01	-5.346059e+01
2.610000e-06	-2.100297e-06	-1.013221e-09	-1.495058e+01	-6.706141e+01
2.620000e-06	-2.247636e-06	-1.222142e-09	-1.599938e+01	-8.055237e+01
2.630000e-06	-2.394024e-06	-1.427605e-09	-1.704142e+01	-9.381750e+01
2.640000e-06	-2.539440e-06	-1.628580e-09	-1.807654e+01	-1.067503e+02
2.650000e-06	-2.683952e-06	-1.822541e-09	-1.910522e+01	-1.192594e+02
2.660000e-06	-2.827456e-06	-2.006089e-09	-2.012672e+01	-1.312724e+02
2.670000e-06	-2.969753e-06	-2.177535e-09	-2.113964e+01	-1.427387e+02
2.680000e-06	-3.110807e-06	-2.338675e-09	-2.214370e+01	-1.536296e+02
2.690000e-06	-3.250683e-06	-2.494093e-09	-2.313939e+01	-1.639378e+02
2.700000e-06	-3.389357e-06	-2.645210e-09	-2.412652e+01	-1.736737e+02
2.710000e-06	-3.526760e-06	-2.789454e-09	-2.510459e+01	-1.828622e+02
2.720000e-06	-3.662823e-06	-2.924426e-09	-2.607313e+01	-1.915378e+02
2.730000e-06	-3.797482e-06	-3.051487e-09	-2.703167e+01	-1.997401e+02
2.740000e-06	-3.930740e-06	-3.172126e-09	-2.798025e+01	-2.075093e+02
2.750000e-06	-4.062656e-06	-3.285893e-09	-2.891927e+01	-2.148831e+02
2.760000e-06	-4.193174e-06	-3.392549e-09	-2.984833e+01	-2.218942e+02
2.770000e-06	-4.322268e-06	-3.493137e-09	-3.076727e+01	-2.285692e+02
2.780000e-06	-4.449865e-06	-3.588849e-09	-3.167554e+01	-2.349290e+02
2.790000e-06	-4.575878e-06	-3.681023e-09	-3.257254e+01	-2.409892e+02
2.800000e-06	-4.700373e-06	-3.769627e-09	-3.345874e+01	-2.467624e+02
2.810000e-06	-4.823239e-06	-3.853107e-09	-3.433334e+01	-2.522595e+02
2.820000e-06	-4.944305e-06	-3.932007e-09	-3.519512e+01	-2.574918e+02
2.830000e-06	-5.063494e-06	-4.007237e-09	-3.604355e+01	-2.624720e+02
2.840000e-06	-5.180677e-06	-4.080435e-09	-3.687770e+01	-2.672153e+02
2.850000e-06	-5.295742e-06	-4.150762e-09	-3.769676e+01	-2.717386e+02
2.860000e-06	-5.408661e-06	-4.218712e-09	-3.850055e+01	-2.760606e+02
2.870000e-06	-5.519499e-06	-4.285485e-09	-3.928954e+01	-2.801998e+02
2.880000e-06	-5.628341e-06	-4.348549e-09	-4.006431e+01	-2.841733e+02
2.890000e-06	-5.735268e-06	-4.407926e-09	-4.082545e+01	-2.879953e+02
2.900000e-06	-5.840214e-06	-4.464838e-09	-4.157249e+01	-2.916757e+02
2.910000e-06	-5.942991e-06	-4.519789e-09	-4.230408e+01	-2.952196e+02
2.920000e-06	-6.043549e-06	-4.572618e-09	-4.301989e+01	-2.986272e+02
2.930000e-06	-6.141959e-06	-4.622391e-09	-4.372040e+01	-3.018947e+02
2.940000e-06	-6.238207e-06	-4.670610e-09	-4.440552e+01	-3.050153e+02
