# Temperatura_=_33.94
# Concentracion g/m^3_=_5000.0
# C_Vs_to_Am_M_A/Vsm_=_65563218390.804596
# pendiente_HvsI_1/m_=_3716.3
# ordenada_HvsI_A/m_=_1297.0
# frecuencia_Hz_=_302513.8647061992

Tiempo_(s)	Campo_(V.s)	Magnetizacion_(V.s)	Campo_(kA/m)	Magnetizacion_(A/m)
0.000000e+00	-8.015148e-06	-5.445546e-09	-5.686050e+01	-3.562559e+02
1.000000e-08	-8.010845e-06	-5.443718e-09	-5.682998e+01	-3.559988e+02
2.000000e-08	-8.004033e-06	-5.438552e-09	-5.678165e+01	-3.556745e+02
3.000000e-08	-7.994503e-06	-5.433698e-09	-5.671404e+01	-3.552979e+02
4.000000e-08	-7.981989e-06	-5.427049e-09	-5.662527e+01	-3.548847e+02
5.000000e-08	-7.966491e-06	-5.419467e-09	-5.651533e+01	-3.544499e+02
6.000000e-08	-7.948343e-06	-5.412192e-09	-5.638658e+01	-3.540057e+02
7.000000e-08	-7.927946e-06	-5.406555e-09	-5.624188e+01	-3.535601e+02
8.000000e-08	-7.904946e-06	-5.448022e-09	-5.607872e+01	-3.531161e+02
9.000000e-08	-7.878734e-06	-5.461731e-09	-5.589276e+01	-3.526715e+02
1.000000e-07	-7.849307e-06	-5.415082e-09	-5.568400e+01	-3.522192e+02
1.100000e-07	-7.816921e-06	-5.385422e-09	-5.545425e+01	-3.517482e+02
1.200000e-07	-7.781752e-06	-5.371417e-09	-5.520476e+01	-3.512454e+02
1.300000e-07	-7.744150e-06	-5.339657e-09	-5.493801e+01	-3.506966e+02
1.400000e-07	-7.704423e-06	-5.287427e-09	-5.465618e+01	-3.500889e+02
1.500000e-07	-7.662484e-06	-5.342806e-09	-5.435866e+01	-3.494115e+02
1.600000e-07	-7.617881e-06	-5.342589e-09	-5.404224e+01	-3.486567e+02
1.700000e-07	-7.570514e-06	-5.257632e-09	-5.370621e+01	-3.478207e+02
1.800000e-07	-7.520254e-06	-5.313996e-09	-5.334966e+01	-3.469032e+02
1.900000e-07	-7.466924e-06	-5.280296e-09	-5.297133e+01	-3.459070e+02
2.000000e-07	-7.410833e-06	-5.232111e-09	-5.257341e+01	-3.448371e+02
2.100000e-07	-7.352068e-06	-5.229913e-09	-5.215653e+01	-3.436995e+02
2.200000e-07	-7.290623e-06	-5.201806e-09	-5.172063e+01	-3.425002e+02
2.300000e-07	-7.226557e-06	-5.207758e-09	-5.126613e+01	-3.412443e+02
2.400000e-07	-7.159714e-06	-5.159608e-09	-5.079195e+01	-3.399353e+02
2.500000e-07	-7.090137e-06	-5.156497e-09	-5.029836e+01	-3.385748e+02
2.600000e-07	-7.017824e-06	-5.142658e-09	-4.978536e+01	-3.371624e+02
2.700000e-07	-6.942722e-06	-5.102989e-09	-4.925257e+01	-3.356962e+02
2.800000e-07	-6.864800e-06	-5.066235e-09	-4.869978e+01	-3.341736e+02
2.900000e-07	-6.784080e-06	-5.061735e-09	-4.812715e+01	-3.325912e+02
3.000000e-07	-6.700946e-06	-5.066977e-09	-4.753738e+01	-3.309460e+02
3.100000e-07	-6.615516e-06	-5.006258e-09	-4.693133e+01	-3.292356e+02
3.200000e-07	-6.527680e-06	-4.982771e-09	-4.630821e+01	-3.274584e+02
3.300000e-07	-6.437530e-06	-4.967963e-09	-4.566868e+01	-3.256135e+02
3.400000e-07	-6.345119e-06	-4.931116e-09	-4.501310e+01	-3.237006e+02
3.500000e-07	-6.250412e-06	-4.890311e-09	-4.434123e+01	-3.217197e+02
3.600000e-07	-6.153362e-06	-4.869989e-09	-4.365275e+01	-3.196703e+02
3.700000e-07	-6.054044e-06	-4.852861e-09	-4.294818e+01	-3.175512e+02
3.800000e-07	-5.952587e-06	-4.801265e-09	-4.222842e+01	-3.153607e+02
3.900000e-07	-5.849008e-06	-4.767232e-09	-4.149362e+01	-3.130957e+02
4.000000e-07	-5.743358e-06	-4.743068e-09	-4.074413e+01	-3.107526e+02
4.100000e-07	-5.635706e-06	-4.707132e-09	-3.998043e+01	-3.083273e+02
4.200000e-07	-5.526067e-06	-4.650809e-09	-3.920264e+01	-3.058155e+02
4.300000e-07	-5.414465e-06	-4.615231e-09	-3.841092e+01	-3.032135e+02
4.400000e-07	-5.300756e-06	-4.587931e-09	-3.760425e+01	-3.005186e+02
4.500000e-07	-5.184933e-06	-4.542663e-09	-3.678259e+01	-2.977290e+02
4.600000e-07	-5.067200e-06	-4.494206e-09	-3.594738e+01	-2.948441e+02
4.700000e-07	-4.947649e-06	-4.455509e-09	-3.509927e+01	-2.918641e+02
4.800000e-07	-4.826252e-06	-4.410354e-09	-3.423806e+01	-2.887896e+02
4.900000e-07	-4.703051e-06	-4.349950e-09	-3.336405e+01	-2.856213e+02
5.000000e-07	-4.578171e-06	-4.300201e-09	-3.247814e+01	-2.823591e+02
5.100000e-07	-4.451670e-06	-4.252712e-09	-3.158073e+01	-2.790016e+02
5.200000e-07	-4.323575e-06	-4.196145e-09	-3.067201e+01	-2.755457e+02
5.300000e-07	-4.193890e-06	-4.131214e-09	-2.975200e+01	-2.719868e+02
5.400000e-07	-4.062718e-06	-4.074430e-09	-2.882145e+01	-2.683187e+02
5.500000e-07	-3.929992e-06	-4.021268e-09	-2.787988e+01	-2.645342e+02
5.600000e-07	-3.795702e-06	-3.966824e-09	-2.692720e+01	-2.606254e+02
5.700000e-07	-3.659976e-06	-3.910472e-09	-2.596434e+01	-2.565849e+02
5.800000e-07	-3.522822e-06	-3.849091e-09	-2.499135e+01	-2.524064e+02
5.900000e-07	-3.384217e-06	-3.780020e-09	-2.400807e+01	-2.480847e+02
6.000000e-07	-3.244164e-06	-3.706773e-09	-2.301452e+01	-2.436166e+02
6.100000e-07	-3.102709e-06	-3.635968e-09	-2.201102e+01	-2.390002e+02
6.200000e-07	-2.959963e-06	-3.562411e-09	-2.099836e+01	-2.342349e+02
6.300000e-07	-2.816134e-06	-3.484887e-09	-1.997802e+01	-2.293204e+02
6.400000e-07	-2.671335e-06	-3.404648e-09	-1.895080e+01	-2.242558e+02
6.500000e-07	-2.525585e-06	-3.324610e-09	-1.791683e+01	-2.190386e+02
6.600000e-07	-2.378970e-06	-3.242009e-09	-1.687672e+01	-2.136645e+02
6.700000e-07	-2.231599e-06	-3.160562e-09	-1.583125e+01	-2.081263e+02
6.800000e-07	-2.083533e-06	-3.080020e-09	-1.478085e+01	-2.024143e+02
6.900000e-07	-1.934810e-06	-2.990816e-09	-1.372580e+01	-1.965164e+02
7.000000e-07	-1.785427e-06	-2.895700e-09	-1.266605e+01	-1.904195e+02
7.100000e-07	-1.635437e-06	-2.796269e-09	-1.160200e+01	-1.841100e+02
7.200000e-07	-1.484967e-06	-2.696226e-09	-1.053455e+01	-1.775753e+02
7.300000e-07	-1.334085e-06	-2.591801e-09	-9.464174e+00	-1.708049e+02
7.400000e-07	-1.182699e-06	-2.482691e-09	-8.390217e+00	-1.637911e+02
7.500000e-07	-1.030775e-06	-2.372855e-09	-7.312452e+00	-1.565290e+02
7.600000e-07	-8.784431e-07	-2.261890e-09	-6.231790e+00	-1.490163e+02
7.700000e-07	-7.258029e-07	-2.146017e-09	-5.148940e+00	-1.412520e+02
7.800000e-07	-5.729081e-07	-2.024600e-09	-4.064285e+00	-1.332348e+02
7.900000e-07	-4.198054e-07	-1.899472e-09	-2.978154e+00	-1.249612e+02
8.000000e-07	-2.665346e-07	-1.766689e-09	-1.890831e+00	-1.164235e+02
8.100000e-07	-1.131679e-07	-1.626899e-09	-8.028275e-01	-1.076081e+02
8.200000e-07	4.029697e-08	-1.483863e-09	2.858720e-01	-9.849459e+01
8.300000e-07	1.938167e-07	-1.336885e-09	1.374961e+00	-8.905569e+01
8.400000e-07	3.472572e-07	-1.183496e-09	2.463488e+00	-7.925864e+01
8.500000e-07	5.006118e-07	-1.026932e-09	3.551405e+00	-6.906749e+01
8.600000e-07	6.538439e-07	-8.664219e-10	4.638454e+00	-5.844668e+01
8.700000e-07	8.069112e-07	-7.001765e-10	5.724333e+00	-4.736533e+01
8.800000e-07	9.597389e-07	-5.255625e-10	6.808512e+00	-3.580206e+01
8.900000e-07	1.112224e-06	-3.425506e-10	7.890262e+00	-2.374955e+01
9.000000e-07	1.264268e-06	-1.543172e-10	8.968879e+00	-1.121856e+01
9.100000e-07	1.415789e-06	4.160788e-11	1.004379e+01	1.759285e+00
9.200000e-07	1.566730e-06	2.438130e-10	1.111459e+01	1.513032e+01
9.300000e-07	1.717098e-06	4.499917e-10	1.218132e+01	2.881943e+01
9.400000e-07	1.866845e-06	6.590188e-10	1.324364e+01	4.273259e+01
9.500000e-07	2.015897e-06	8.717179e-10	1.430103e+01	5.676110e+01
9.600000e-07	2.164240e-06	1.084758e-09	1.535340e+01	7.078722e+01
9.700000e-07	2.311768e-06	1.295402e-09	1.639998e+01	8.469065e+01
9.800000e-07	2.458472e-06	1.505622e-09	1.744072e+01	9.835524e+01
9.900000e-07	2.604288e-06	1.709367e-09	1.847516e+01	1.116753e+02
1.000000e-06	2.749121e-06	1.902251e-09	1.950263e+01	1.245610e+02
1.010000e-06	2.892939e-06	2.085286e-09	2.052289e+01	1.369420e+02
1.020000e-06	3.035657e-06	2.262395e-09	2.153534e+01	1.487698e+02
1.030000e-06	3.177066e-06	2.433251e-09	2.253852e+01	1.600177e+02
1.040000e-06	3.317107e-06	2.595330e-09	2.353199e+01	1.706791e+02
1.050000e-06	3.455915e-06	2.748684e-09	2.451671e+01	1.807648e+02
1.060000e-06	3.593469e-06	2.895271e-09	2.549254e+01	1.902987e+02
1.070000e-06	3.729612e-06	3.035765e-09	2.645835e+01	1.993132e+02
1.080000e-06	3.864266e-06	3.167400e-09	2.741361e+01	2.078449e+02
1.090000e-06	3.997556e-06	3.290170e-09	2.835918e+01	2.159308e+02
1.100000e-06	4.129439e-06	3.405463e-09	2.929477e+01	2.236048e+02
1.110000e-06	4.259882e-06	3.518065e-09	3.022015e+01	2.308964e+02
1.120000e-06	4.388921e-06	3.628889e-09	3.113558e+01	2.378298e+02
1.130000e-06	4.516357e-06	3.732901e-09	3.203962e+01	2.444242e+02
1.140000e-06	4.642226e-06	3.826207e-09	3.293255e+01	2.506952e+02
1.150000e-06	4.766551e-06	3.911520e-09	3.381453e+01	2.566563e+02
1.160000e-06	4.889215e-06	3.993706e-09	3.468473e+01	2.623207e+02
1.170000e-06	5.010162e-06	4.074162e-09	3.554274e+01	2.677027e+02
1.180000e-06	5.129249e-06	4.152015e-09	3.638756e+01	2.728183e+02
1.190000e-06	5.246469e-06	4.225419e-09	3.721914e+01	2.776860e+02
1.200000e-06	5.361720e-06	4.296873e-09	3.803674e+01	2.823260e+02
1.210000e-06	5.474816e-06	4.368150e-09	3.883906e+01	2.867588e+02
1.220000e-06	5.585802e-06	4.436879e-09	3.962641e+01	2.910045e+02
1.230000e-06	5.694864e-06	4.499687e-09	4.040011e+01	2.950804e+02
1.240000e-06	5.801985e-06	4.557161e-09	4.116003e+01	2.990000e+02
1.250000e-06	5.906986e-06	4.612720e-09	4.190492e+01	3.027722e+02
1.260000e-06	6.009783e-06	4.667353e-09	4.263418e+01	3.064008e+02
1.270000e-06	6.110304e-06	4.719073e-09	4.334729e+01	3.098847e+02
1.280000e-06	6.208535e-06	4.767721e-09	4.404415e+01	3.132194e+02
1.290000e-06	6.304399e-06	4.814485e-09	4.472423e+01	3.163981e+02
1.300000e-06	6.398011e-06	4.858180e-09	4.538832e+01	3.194138e+02
1.310000e-06	6.489420e-06	4.899094e-09	4.603679e+01	3.222612e+02
1.320000e-06	6.578411e-06	4.938978e-09	4.666810e+01	3.249379e+02
1.330000e-06	6.665051e-06	4.978539e-09	4.728274e+01	3.274456e+02
1.340000e-06	6.749422e-06	5.015038e-09	4.788128e+01	3.297907e+02
1.350000e-06	6.831442e-06	5.046262e-09	4.846314e+01	3.319835e+02
1.360000e-06	6.911007e-06	5.075205e-09	4.902758e+01	3.340375e+02
1.370000e-06	6.988003e-06	5.104317e-09	4.957380e+01	3.359678e+02
1.380000e-06	7.062297e-06	5.133280e-09	5.010086e+01	3.377894e+02
1.390000e-06	7.133881e-06	5.160634e-09	5.060868e+01	3.395155e+02
1.400000e-06	7.202991e-06	5.187431e-09	5.109895e+01	3.411561e+02
1.410000e-06	7.269673e-06	5.213201e-09	5.157201e+01	3.427171e+02
1.420000e-06	7.333713e-06	5.236159e-09	5.202632e+01	3.442000e+02
1.430000e-06	7.395218e-06	5.256997e-09	5.246263e+01	3.456026e+02
1.440000e-06	7.454287e-06	5.276541e-09	5.288168e+01	3.469199e+02
1.450000e-06	7.510673e-06	5.294315e-09	5.328169e+01	3.481455e+02
1.460000e-06	7.564274e-06	5.310063e-09	5.366195e+01	3.492735e+02
1.470000e-06	7.614851e-06	5.324171e-09	5.402074e+01	3.502998e+02
1.480000e-06	7.662346e-06	5.338307e-09	5.435768e+01	3.512237e+02
1.490000e-06	7.707146e-06	5.353552e-09	5.467549e+01	3.520484e+02
1.500000e-06	7.749243e-06	5.366896e-09	5.497414e+01	3.527811e+02
1.510000e-06	7.788493e-06	5.378182e-09	5.525259e+01	3.534321e+02
1.520000e-06	7.824994e-06	5.388437e-09	5.551153e+01	3.540141e+02
1.530000e-06	7.858728e-06	5.397949e-09	5.575084e+01	3.545400e+02
1.540000e-06	7.889671e-06	5.406889e-09	5.597035e+01	3.550218e+02
1.550000e-06	7.917935e-06	5.414750e-09	5.617086e+01	3.554684e+02
1.560000e-06	7.943303e-06	5.421249e-09	5.635082e+01	3.558846e+02
1.570000e-06	7.965661e-06	5.426796e-09	5.650943e+01	3.562706e+02
1.580000e-06	7.985303e-06	5.433050e-09	5.664878e+01	3.566216e+02
1.590000e-06	8.002123e-06	5.439999e-09	5.676810e+01	3.569293e+02
1.600000e-06	8.015895e-06	5.445870e-09	5.686580e+01	3.571824e+02
1.610000e-06	8.026496e-06	5.450302e-09	5.694101e+01	3.573690e+02
1.620000e-06	8.033983e-06	5.452946e-09	5.699412e+01	3.574781e+02
1.630000e-06	8.038717e-06	5.454026e-09	5.702771e+01	3.575016e+02
1.640000e-06	8.040662e-06	5.456332e-09	5.704150e+01	3.574356e+02
1.650000e-06	8.039696e-06	5.453964e-09	5.703465e+01	3.572815e+02
1.660000e-06	8.036115e-06	5.447542e-09	5.700925e+01	3.570454e+02
1.670000e-06	8.029891e-06	5.443773e-09	5.696509e+01	3.567384e+02
1.680000e-06	8.020909e-06	5.440417e-09	5.690137e+01	3.563746e+02
1.690000e-06	8.009208e-06	5.437337e-09	5.681836e+01	3.559698e+02
1.700000e-06	7.994694e-06	5.436750e-09	5.671540e+01	3.555392e+02
1.710000e-06	7.977567e-06	5.437382e-09	5.659390e+01	3.550962e+02
1.720000e-06	7.958217e-06	5.418300e-09	5.645662e+01	3.546499e+02
1.730000e-06	7.936374e-06	5.336895e-09	5.630167e+01	3.542050e+02
1.740000e-06	7.911221e-06	5.331828e-09	5.612323e+01	3.537606e+02
1.750000e-06	7.882308e-06	5.362577e-09	5.591812e+01	3.533110e+02
1.760000e-06	7.850014e-06	5.353142e-09	5.568902e+01	3.528461e+02
1.770000e-06	7.815190e-06	5.360587e-09	5.544197e+01	3.523532e+02
1.780000e-06	7.778126e-06	5.425470e-09	5.517903e+01	3.518185e+02
1.790000e-06	7.738850e-06	5.377180e-09	5.490041e+01	3.512283e+02
1.800000e-06	7.697446e-06	5.319894e-09	5.460668e+01	3.505712e+02
1.810000e-06	7.653503e-06	5.387677e-09	5.429495e+01	3.498386e+02
1.820000e-06	7.606952e-06	5.310122e-09	5.396471e+01	3.490254e+02
1.830000e-06	7.557695e-06	5.344417e-09	5.361527e+01	3.481306e+02
1.840000e-06	7.505438e-06	5.313689e-09	5.324456e+01	3.471559e+02
1.850000e-06	7.450307e-06	5.267290e-09	5.285345e+01	3.461060e+02
1.860000e-06	7.392360e-06	5.309229e-09	5.244236e+01	3.449866e+02
1.870000e-06	7.331764e-06	5.202683e-09	5.201249e+01	3.438038e+02
1.880000e-06	7.268462e-06	5.247760e-09	5.156342e+01	3.425632e+02
1.890000e-06	7.202371e-06	5.221299e-09	5.109456e+01	3.412686e+02
1.900000e-06	7.133489e-06	5.163432e-09	5.060590e+01	3.399222e+02
1.910000e-06	7.061682e-06	5.190991e-09	5.009649e+01	3.385242e+02
1.920000e-06	6.987166e-06	5.162837e-09	4.956786e+01	3.370732e+02
1.930000e-06	6.909896e-06	5.159619e-09	4.901970e+01	3.355665e+02
1.940000e-06	6.829866e-06	5.076591e-09	4.845195e+01	3.340010e+02
1.950000e-06	6.747377e-06	5.075020e-09	4.786677e+01	3.323736e+02
1.960000e-06	6.662397e-06	5.055066e-09	4.726391e+01	3.306815e+02
1.970000e-06	6.574968e-06	5.000427e-09	4.664368e+01	3.289229e+02
1.980000e-06	6.485157e-06	5.002521e-09	4.600654e+01	3.270969e+02
1.990000e-06	6.393084e-06	4.972432e-09	4.535337e+01	3.252030e+02
2.000000e-06	6.298786e-06	4.941868e-09	4.468441e+01	3.232410e+02
2.010000e-06	6.202209e-06	4.880697e-09	4.399928e+01	3.212107e+02
2.020000e-06	6.103404e-06	4.873994e-09	4.329834e+01	3.191112e+02
2.030000e-06	6.002377e-06	4.848199e-09	4.258164e+01	3.169408e+02
2.040000e-06	5.899236e-06	4.806228e-09	4.184995e+01	3.146970e+02
2.050000e-06	5.794027e-06	4.765856e-09	4.110358e+01	3.123761e+02
2.060000e-06	5.686846e-06	4.734448e-09	4.034322e+01	3.099742e+02
2.070000e-06	5.577711e-06	4.696281e-09	3.956901e+01	3.074869e+02
2.080000e-06	5.466578e-06	4.639943e-09	3.878062e+01	3.049106e+02
2.090000e-06	5.353407e-06	4.612313e-09	3.797776e+01	3.022420e+02
2.100000e-06	5.238180e-06	4.574870e-09	3.716033e+01	2.994790e+02
2.110000e-06	5.120863e-06	4.529966e-09	3.632807e+01	2.966208e+02
2.120000e-06	5.001560e-06	4.478983e-09	3.548172e+01	2.936674e+02
2.130000e-06	4.880454e-06	4.443098e-09	3.462258e+01	2.906193e+02
2.140000e-06	4.757586e-06	4.394293e-09	3.375093e+01	2.874773e+02
2.150000e-06	4.632978e-06	4.339700e-09	3.286695e+01	2.842415e+02
2.160000e-06	4.506655e-06	4.288587e-09	3.197080e+01	2.809109e+02
2.170000e-06	4.378734e-06	4.244478e-09	3.106331e+01	2.774830e+02
2.180000e-06	4.249236e-06	4.195458e-09	3.014463e+01	2.739536e+02
2.190000e-06	4.118190e-06	4.141089e-09	2.921497e+01	2.703170e+02
2.200000e-06	3.985576e-06	4.084427e-09	2.827419e+01	2.665659e+02
2.210000e-06	3.851426e-06	4.018181e-09	2.732252e+01	2.626929e+02
2.220000e-06	3.715872e-06	3.953255e-09	2.636088e+01	2.586903e+02
2.230000e-06	3.578945e-06	3.890168e-09	2.538950e+01	2.545513e+02
2.240000e-06	3.440595e-06	3.830349e-09	2.440803e+01	2.502704e+02
2.250000e-06	3.300916e-06	3.763201e-09	2.341713e+01	2.458438e+02
2.260000e-06	3.159980e-06	3.695007e-09	2.241731e+01	2.412694e+02
2.270000e-06	3.017765e-06	3.623724e-09	2.140842e+01	2.365462e+02
2.280000e-06	2.874362e-06	3.549723e-09	2.039110e+01	2.316739e+02
2.290000e-06	2.729946e-06	3.472971e-09	1.936659e+01	2.266518e+02
2.300000e-06	2.584622e-06	3.396335e-09	1.833564e+01	2.214780e+02
2.310000e-06	2.438392e-06	3.319591e-09	1.729827e+01	2.161489e+02
2.320000e-06	2.291395e-06	3.236863e-09	1.625546e+01	2.106580e+02
2.330000e-06	2.143609e-06	3.149226e-09	1.520704e+01	2.049962e+02
2.340000e-06	1.994956e-06	3.057034e-09	1.415247e+01	1.991522e+02
2.350000e-06	1.845621e-06	2.961218e-09	1.309307e+01	1.931131e+02
2.360000e-06	1.695745e-06	2.863012e-09	1.202983e+01	1.868651e+02
2.370000e-06	1.545330e-06	2.764165e-09	1.096278e+01	1.803954e+02
2.380000e-06	1.394400e-06	2.664842e-09	9.892055e+00	1.736928e+02
2.390000e-06	1.243074e-06	2.560332e-09	8.818529e+00	1.667487e+02
2.400000e-06	1.091410e-06	2.450488e-09	7.742607e+00	1.595573e+02
2.410000e-06	9.393938e-07	2.337737e-09	6.664182e+00	1.521158e+02
2.420000e-06	7.870733e-07	2.220266e-09	5.583600e+00	1.444230e+02
2.430000e-06	6.344718e-07	2.099552e-09	4.501025e+00	1.364777e+02
2.440000e-06	4.815671e-07	1.975770e-09	3.416300e+00	1.282775e+02
2.450000e-06	3.284123e-07	1.848611e-09	2.329799e+00	1.198159e+02
2.460000e-06	1.751548e-07	1.716671e-09	1.242571e+00	1.110811e+02
2.470000e-06	2.187747e-08	1.578214e-09	1.552016e-01	1.020547e+02
2.480000e-06	-1.314273e-07	1.435853e-09	-9.323621e-01	9.271137e+01
2.490000e-06	-2.847219e-07	1.289113e-09	-2.019854e+00	8.301973e+01
2.500000e-06	-4.379720e-07	1.134947e-09	-3.107030e+00	7.294439e+01
2.510000e-06	-5.911065e-07	9.733535e-10	-4.193386e+00	6.244927e+01
2.520000e-06	-7.440265e-07	8.061546e-10	-5.278221e+00	5.150168e+01
2.530000e-06	-8.966496e-07	6.311322e-10	-6.360949e+00	4.007703e+01
2.540000e-06	-1.048962e-06	4.481174e-10	-7.441474e+00	2.816355e+01
2.550000e-06	-1.200915e-06	2.598625e-10	-8.519447e+00	1.576649e+01
2.560000e-06	-1.352423e-06	6.556340e-11	-9.594264e+00	2.911294e+00
2.570000e-06	-1.503511e-06	-1.369483e-10	-1.066610e+01	-1.035467e+01
2.580000e-06	-1.654094e-06	-3.479147e-10	-1.173436e+01	-2.396225e+01
2.590000e-06	-1.804035e-06	-5.633515e-10	-1.279806e+01	-3.782245e+01
2.600000e-06	-1.953326e-06	-7.810409e-10	-1.385715e+01	-5.183025e+01
2.610000e-06	-2.101902e-06	-9.993862e-10	-1.491117e+01	-6.586985e+01
2.620000e-06	-2.249585e-06	-1.216773e-09	-1.595885e+01	-7.982100e+01
2.630000e-06	-2.396358e-06	-1.430638e-09	-1.700008e+01	-9.356570e+01
2.640000e-06	-2.542305e-06	-1.639326e-09	-1.803544e+01	-1.069947e+02
2.650000e-06	-2.687342e-06	-1.840842e-09	-1.906435e+01	-1.200131e+02
2.660000e-06	-2.831288e-06	-2.031533e-09	-2.008553e+01	-1.325447e+02
2.670000e-06	-2.974096e-06	-2.210327e-09	-2.109862e+01	-1.445348e+02
2.680000e-06	-3.115799e-06	-2.380478e-09	-2.210389e+01	-1.559503e+02
2.690000e-06	-3.256313e-06	-2.543621e-09	-2.310071e+01	-1.667794e+02
2.700000e-06	-3.395503e-06	-2.700250e-09	-2.408814e+01	-1.770281e+02
2.710000e-06	-3.533403e-06	-2.850311e-09	-2.506642e+01	-1.867172e+02
2.720000e-06	-3.670003e-06	-2.992124e-09	-2.603548e+01	-1.958769e+02
2.730000e-06	-3.805216e-06	-3.128476e-09	-2.699470e+01	-2.045433e+02
2.740000e-06	-3.939091e-06	-3.257390e-09	-2.794443e+01	-2.127534e+02
2.750000e-06	-4.071519e-06	-3.376525e-09	-2.888389e+01	-2.205424e+02
2.760000e-06	-4.202468e-06	-3.487002e-09	-2.981285e+01	-2.279411e+02
2.770000e-06	-4.332061e-06	-3.591619e-09	-3.073221e+01	-2.349751e+02
2.780000e-06	-4.460134e-06	-3.692965e-09	-3.164077e+01	-2.416652e+02
2.790000e-06	-4.586667e-06	-3.790619e-09	-3.253841e+01	-2.480277e+02
2.800000e-06	-4.711682e-06	-3.883871e-09	-3.342528e+01	-2.540765e+02
2.810000e-06	-4.834946e-06	-3.971628e-09	-3.429974e+01	-2.598249e+02
2.820000e-06	-4.956409e-06	-4.054843e-09	-3.516141e+01	-2.652864e+02
2.830000e-06	-5.076062e-06	-4.132698e-09	-3.601024e+01	-2.704769e+02
2.840000e-06	-5.193793e-06	-4.206116e-09	-3.684545e+01	-2.754139e+02
2.850000e-06	-5.309388e-06	-4.277113e-09	-3.766549e+01	-2.801174e+02
2.860000e-06	-5.422767e-06	-4.345972e-09	-3.846982e+01	-2.846078e+02
2.870000e-06	-5.534015e-06	-4.413705e-09	-3.925902e+01	-2.889056e+02
2.880000e-06	-5.643254e-06	-4.478922e-09	-4.003398e+01	-2.930289e+02
2.890000e-06	-5.750630e-06	-4.540737e-09	-4.079571e+01	-2.969926e+02
2.900000e-06	-5.855992e-06	-4.600712e-09	-4.154317e+01	-3.008068e+02
2.910000e-06	-5.959167e-06	-4.658651e-09	-4.227510e+01	-3.044768e+02
2.920000e-06	-6.060102e-06	-4.712878e-09	-4.299115e+01	-3.080029e+02
2.930000e-06	-6.158871e-06	-4.763206e-09	-4.369184e+01	-3.113814e+02
2.940000e-06	-6.255514e-06	-4.811758e-09	-4.437743e+01	-3.146059e+02
