# Temperatura_=_32.01
# Concentracion g/m^3_=_5000.0
# C_Vs_to_Am_M_A/Vsm_=_65563218390.804596
# pendiente_HvsI_1/m_=_3716.3
# ordenada_HvsI_A/m_=_1297.0
# frecuencia_Hz_=_302516.9725273274

Tiempo_(s)	Campo_(V.s)	Magnetizacion_(V.s)	Campo_(kA/m)	Magnetizacion_(A/m)
0.000000e+00	-8.047698e-06	-5.630499e-09	-5.686562e+01	-3.689994e+02
1.000000e-08	-8.043629e-06	-5.629658e-09	-5.683687e+01	-3.687986e+02
2.000000e-08	-8.036961e-06	-5.626153e-09	-5.678975e+01	-3.685298e+02
3.000000e-08	-8.027559e-06	-5.622395e-09	-5.672332e+01	-3.682041e+02
4.000000e-08	-8.015257e-06	-5.618618e-09	-5.663639e+01	-3.678345e+02
5.000000e-08	-7.999928e-06	-5.613880e-09	-5.652808e+01	-3.674337e+02
6.000000e-08	-7.981928e-06	-5.610246e-09	-5.640089e+01	-3.670133e+02
7.000000e-08	-7.961693e-06	-5.610672e-09	-5.625791e+01	-3.665817e+02
8.000000e-08	-7.938864e-06	-5.622183e-09	-5.609659e+01	-3.661435e+02
9.000000e-08	-7.912822e-06	-5.634965e-09	-5.591258e+01	-3.656987e+02
1.000000e-07	-7.883514e-06	-5.616287e-09	-5.570549e+01	-3.652428e+02
1.100000e-07	-7.851337e-06	-5.582931e-09	-5.547812e+01	-3.647675e+02
1.200000e-07	-7.816389e-06	-5.562391e-09	-5.523117e+01	-3.642617e+02
1.300000e-07	-7.778879e-06	-5.544421e-09	-5.496613e+01	-3.637128e+02
1.400000e-07	-7.739239e-06	-5.518420e-09	-5.468603e+01	-3.631081e+02
1.500000e-07	-7.697358e-06	-5.510758e-09	-5.439010e+01	-3.624363e+02
1.600000e-07	-7.652792e-06	-5.521886e-09	-5.407519e+01	-3.616884e+02
1.700000e-07	-7.605515e-06	-5.486900e-09	-5.374113e+01	-3.608583e+02
1.800000e-07	-7.555343e-06	-5.467976e-09	-5.338661e+01	-3.599434e+02
1.900000e-07	-7.502082e-06	-5.472994e-09	-5.301026e+01	-3.589439e+02
2.000000e-07	-7.446004e-06	-5.443132e-09	-5.261401e+01	-3.578625e+02
2.100000e-07	-7.387182e-06	-5.417251e-09	-5.219837e+01	-3.567034e+02
2.200000e-07	-7.325704e-06	-5.402638e-09	-5.176396e+01	-3.554717e+02
2.300000e-07	-7.261622e-06	-5.389056e-09	-5.131115e+01	-3.541720e+02
2.400000e-07	-7.194730e-06	-5.360353e-09	-5.083849e+01	-3.528080e+02
2.500000e-07	-7.125110e-06	-5.340737e-09	-5.034655e+01	-3.513821e+02
2.600000e-07	-7.052739e-06	-5.332392e-09	-4.983517e+01	-3.498952e+02
2.700000e-07	-6.977497e-06	-5.294784e-09	-4.930351e+01	-3.483466e+02
2.800000e-07	-6.899375e-06	-5.259644e-09	-4.875149e+01	-3.467349e+02
2.900000e-07	-6.818426e-06	-5.246771e-09	-4.817950e+01	-3.450578e+02
3.000000e-07	-6.735126e-06	-5.228934e-09	-4.759089e+01	-3.433130e+02
3.100000e-07	-6.649703e-06	-5.192985e-09	-4.698729e+01	-3.414987e+02
3.200000e-07	-6.561907e-06	-5.163372e-09	-4.636692e+01	-3.396134e+02
3.300000e-07	-6.471660e-06	-5.142689e-09	-4.572922e+01	-3.376565e+02
3.400000e-07	-6.379071e-06	-5.107893e-09	-4.507498e+01	-3.356276e+02
3.500000e-07	-6.284178e-06	-5.073362e-09	-4.440446e+01	-3.335268e+02
3.600000e-07	-6.186912e-06	-5.044702e-09	-4.371717e+01	-3.313537e+02
3.700000e-07	-6.087370e-06	-5.012880e-09	-4.301381e+01	-3.291078e+02
3.800000e-07	-5.985765e-06	-4.967795e-09	-4.229585e+01	-3.267875e+02
3.900000e-07	-5.882007e-06	-4.931186e-09	-4.156269e+01	-3.243904e+02
4.000000e-07	-5.776035e-06	-4.906145e-09	-4.081389e+01	-3.219135e+02
4.100000e-07	-5.668083e-06	-4.866891e-09	-4.005109e+01	-3.193528e+02
4.200000e-07	-5.558320e-06	-4.818728e-09	-3.927550e+01	-3.167044e+02
4.300000e-07	-5.446579e-06	-4.777684e-09	-3.848593e+01	-3.139645e+02
4.400000e-07	-5.332622e-06	-4.739867e-09	-3.768070e+01	-3.111297e+02
4.500000e-07	-5.216489e-06	-4.689315e-09	-3.686009e+01	-3.081975e+02
4.600000e-07	-5.098458e-06	-4.641760e-09	-3.602608e+01	-3.051664e+02
4.700000e-07	-4.978636e-06	-4.601717e-09	-3.517941e+01	-3.020358e+02
4.800000e-07	-4.856973e-06	-4.550159e-09	-3.431973e+01	-2.988056e+02
4.900000e-07	-4.733548e-06	-4.491956e-09	-3.344760e+01	-2.954759e+02
5.000000e-07	-4.608410e-06	-4.441631e-09	-3.256336e+01	-2.920464e+02
5.100000e-07	-4.481643e-06	-4.392296e-09	-3.166762e+01	-2.885161e+02
5.200000e-07	-4.353252e-06	-4.332454e-09	-3.076040e+01	-2.848827e+02
5.300000e-07	-4.223215e-06	-4.269437e-09	-2.984155e+01	-2.811428e+02
5.400000e-07	-4.091573e-06	-4.210723e-09	-2.891135e+01	-2.772914e+02
5.500000e-07	-3.958408e-06	-4.152421e-09	-2.797040e+01	-2.733228e+02
5.600000e-07	-3.823820e-06	-4.089460e-09	-2.701939e+01	-2.692305e+02
5.700000e-07	-3.687730e-06	-4.025669e-09	-2.605777e+01	-2.650081e+02
5.800000e-07	-3.550141e-06	-3.961376e-09	-2.508556e+01	-2.606500e+02
5.900000e-07	-3.411113e-06	-3.892280e-09	-2.410317e+01	-2.561512e+02
6.000000e-07	-3.270613e-06	-3.820269e-09	-2.311039e+01	-2.515084e+02
6.100000e-07	-3.128612e-06	-3.748457e-09	-2.210700e+01	-2.467192e+02
6.200000e-07	-2.985307e-06	-3.673392e-09	-2.109440e+01	-2.417821e+02
6.300000e-07	-2.840876e-06	-3.592839e-09	-2.007384e+01	-2.366960e+02
6.400000e-07	-2.695441e-06	-3.510348e-09	-1.904618e+01	-2.314590e+02
6.500000e-07	-2.549166e-06	-3.427109e-09	-1.801260e+01	-2.260682e+02
6.600000e-07	-2.402099e-06	-3.341727e-09	-1.697341e+01	-2.205187e+02
6.700000e-07	-2.254305e-06	-3.256371e-09	-1.592908e+01	-2.148031e+02
6.800000e-07	-2.105811e-06	-3.170074e-09	-1.487982e+01	-2.089118e+02
6.900000e-07	-1.956658e-06	-3.077492e-09	-1.382589e+01	-2.028329e+02
7.000000e-07	-1.806900e-06	-2.978688e-09	-1.276769e+01	-1.965533e+02
7.100000e-07	-1.656567e-06	-2.876240e-09	-1.170543e+01	-1.900593e+02
7.200000e-07	-1.505657e-06	-2.771624e-09	-1.063908e+01	-1.833381e+02
7.300000e-07	-1.354164e-06	-2.663208e-09	-9.568623e+00	-1.763787e+02
7.400000e-07	-1.202089e-06	-2.551014e-09	-8.494047e+00	-1.691723e+02
7.500000e-07	-1.049478e-06	-2.438482e-09	-7.415689e+00	-1.617133e+02
7.600000e-07	-8.964717e-07	-2.325718e-09	-6.334534e+00	-1.539982e+02
7.700000e-07	-7.431928e-07	-2.207600e-09	-5.251455e+00	-1.460254e+02
7.800000e-07	-5.897217e-07	-2.083098e-09	-4.167017e+00	-1.377932e+02
7.900000e-07	-4.361066e-07	-1.952666e-09	-3.081561e+00	-1.292986e+02
8.000000e-07	-2.823451e-07	-1.816149e-09	-1.995071e+00	-1.205348e+02
8.100000e-07	-1.284403e-07	-1.675556e-09	-9.075684e-01	-1.114900e+02
8.200000e-07	2.554869e-08	-1.532125e-09	1.805289e-01	-1.021462e+02
8.300000e-07	1.794841e-07	-1.383087e-09	1.268248e+00	-9.247908e+01
8.400000e-07	3.333684e-07	-1.226505e-09	2.355605e+00	-8.245866e+01
8.500000e-07	4.872309e-07	-1.065379e-09	3.442809e+00	-7.205150e+01
8.600000e-07	6.409779e-07	-9.000126e-10	4.529197e+00	-6.122374e+01
8.700000e-07	7.945482e-07	-7.290492e-10	5.614335e+00	-4.994506e+01
8.800000e-07	9.479115e-07	-5.505154e-10	6.698012e+00	-3.819318e+01
8.900000e-07	1.101031e-06	-3.658965e-10	7.779962e+00	-2.595831e+01
9.000000e-07	1.253804e-06	-1.760542e-10	8.859472e+00	-1.324721e+01
9.100000e-07	1.406098e-06	1.998033e-11	9.935594e+00	-8.617454e-02
9.200000e-07	1.557761e-06	2.228250e-10	1.100726e+01	1.347733e+01
9.300000e-07	1.708776e-06	4.319852e-10	1.207433e+01	2.737480e+01
9.400000e-07	1.859108e-06	6.456935e-10	1.313659e+01	4.151857e+01
9.500000e-07	2.008713e-06	8.636398e-10	1.419371e+01	5.580546e+01
9.600000e-07	2.157621e-06	1.083347e-09	1.524591e+01	7.012189e+01
9.700000e-07	2.305810e-06	1.300912e-09	1.629302e+01	8.434987e+01
9.800000e-07	2.453226e-06	1.514747e-09	1.733468e+01	9.837355e+01
9.900000e-07	2.599720e-06	1.722266e-09	1.836981e+01	1.120855e+02
1.000000e-06	2.745218e-06	1.920648e-09	1.939791e+01	1.253919e+02
1.010000e-06	2.889721e-06	2.110859e-09	2.041898e+01	1.382174e+02
1.020000e-06	3.033141e-06	2.294693e-09	2.143240e+01	1.505069e+02
1.030000e-06	3.175388e-06	2.471143e-09	2.243753e+01	1.622266e+02
1.040000e-06	3.316377e-06	2.639923e-09	2.343376e+01	1.733629e+02
1.050000e-06	3.455967e-06	2.801407e-09	2.442011e+01	1.839200e+02
1.060000e-06	3.594159e-06	2.955764e-09	2.539659e+01	1.939159e+02
1.070000e-06	3.731019e-06	3.103043e-09	2.636366e+01	2.033785e+02
1.080000e-06	3.866448e-06	3.240711e-09	2.732060e+01	2.123409e+02
1.090000e-06	4.000454e-06	3.367681e-09	2.826750e+01	2.208375e+02
1.100000e-06	4.133111e-06	3.487428e-09	2.920486e+01	2.289009e+02
1.110000e-06	4.264279e-06	3.604863e-09	3.013171e+01	2.365599e+02
1.120000e-06	4.393912e-06	3.720404e-09	3.104770e+01	2.438386e+02
1.130000e-06	4.521967e-06	3.828580e-09	3.195255e+01	2.507565e+02
1.140000e-06	4.648389e-06	3.926677e-09	3.284586e+01	2.573294e+02
1.150000e-06	4.773327e-06	4.019320e-09	3.372868e+01	2.635715e+02
1.160000e-06	4.896698e-06	4.107872e-09	3.460042e+01	2.694967e+02
1.170000e-06	5.018326e-06	4.191993e-09	3.545986e+01	2.751201e+02
1.180000e-06	5.138113e-06	4.272799e-09	3.630629e+01	2.804595e+02
1.190000e-06	5.256040e-06	4.349904e-09	3.713956e+01	2.855353e+02
1.200000e-06	5.371979e-06	4.423218e-09	3.795879e+01	2.903701e+02
1.210000e-06	5.485764e-06	4.494251e-09	3.876281e+01	2.949880e+02
1.220000e-06	5.597428e-06	4.564047e-09	3.955184e+01	2.994122e+02
1.230000e-06	5.707070e-06	4.630819e-09	4.032657e+01	3.036642e+02
1.240000e-06	5.814724e-06	4.693228e-09	4.108727e+01	3.077610e+02
1.250000e-06	5.920286e-06	4.752378e-09	4.183318e+01	3.117147e+02
1.260000e-06	6.023667e-06	4.809948e-09	4.256367e+01	3.155310e+02
1.270000e-06	6.124805e-06	4.864159e-09	4.327832e+01	3.192100e+02
1.280000e-06	6.223657e-06	4.915977e-09	4.397682e+01	3.227465e+02
1.290000e-06	6.320144e-06	4.966543e-09	4.465860e+01	3.261317e+02
1.300000e-06	6.414316e-06	5.013858e-09	4.532403e+01	3.293552e+02
1.310000e-06	6.506256e-06	5.057124e-09	4.597368e+01	3.324072e+02
1.320000e-06	6.595849e-06	5.097153e-09	4.660675e+01	3.352804e+02
1.330000e-06	6.683061e-06	5.137771e-09	4.722300e+01	3.379718e+02
1.340000e-06	6.768026e-06	5.178527e-09	4.782337e+01	3.404834e+02
1.350000e-06	6.850661e-06	5.215093e-09	4.840727e+01	3.428226e+02
1.360000e-06	6.930777e-06	5.247115e-09	4.897338e+01	3.450016e+02
1.370000e-06	7.008368e-06	5.277313e-09	4.952164e+01	3.470361e+02
1.380000e-06	7.083348e-06	5.306438e-09	5.005146e+01	3.489436e+02
1.390000e-06	7.155633e-06	5.333958e-09	5.056223e+01	3.507412e+02
1.400000e-06	7.225356e-06	5.359763e-09	5.105489e+01	3.524442e+02
1.410000e-06	7.292523e-06	5.384225e-09	5.152950e+01	3.540643e+02
1.420000e-06	7.357025e-06	5.408015e-09	5.198528e+01	3.556088e+02
1.430000e-06	7.418960e-06	5.430694e-09	5.242292e+01	3.570801e+02
1.440000e-06	7.478375e-06	5.452439e-09	5.284275e+01	3.584768e+02
1.450000e-06	7.535163e-06	5.472601e-09	5.324401e+01	3.597939e+02
1.460000e-06	7.589248e-06	5.491447e-09	5.362618e+01	3.610251e+02
1.470000e-06	7.640345e-06	5.509133e-09	5.398724e+01	3.621639e+02
1.480000e-06	7.688340e-06	5.525978e-09	5.432637e+01	3.632056e+02
1.490000e-06	7.733557e-06	5.541503e-09	5.464588e+01	3.641481e+02
1.500000e-06	7.776051e-06	5.554853e-09	5.494615e+01	3.649932e+02
1.510000e-06	7.815694e-06	5.566459e-09	5.522626e+01	3.657459e+02
1.520000e-06	7.852627e-06	5.576487e-09	5.548724e+01	3.664146e+02
1.530000e-06	7.886837e-06	5.586223e-09	5.572897e+01	3.670095e+02
1.540000e-06	7.918174e-06	5.596836e-09	5.595040e+01	3.675416e+02
1.550000e-06	7.946754e-06	5.609053e-09	5.615235e+01	3.680207e+02
1.560000e-06	7.972478e-06	5.619622e-09	5.633411e+01	3.684546e+02
1.570000e-06	7.995205e-06	5.626291e-09	5.649471e+01	3.688474e+02
1.580000e-06	8.015198e-06	5.630827e-09	5.663598e+01	3.691997e+02
1.590000e-06	8.032457e-06	5.634679e-09	5.675793e+01	3.695080e+02
1.600000e-06	8.046653e-06	5.638680e-09	5.685824e+01	3.697660e+02
1.610000e-06	8.057596e-06	5.643056e-09	5.693557e+01	3.699654e+02
1.620000e-06	8.065430e-06	5.647037e-09	5.699092e+01	3.700976e+02
1.630000e-06	8.070434e-06	5.649907e-09	5.702628e+01	3.701551e+02
1.640000e-06	8.072588e-06	5.652098e-09	5.704150e+01	3.701332e+02
1.650000e-06	8.071866e-06	5.651371e-09	5.703640e+01	3.700306e+02
1.660000e-06	8.068518e-06	5.645992e-09	5.701274e+01	3.698505e+02
1.670000e-06	8.062457e-06	5.640824e-09	5.696991e+01	3.695997e+02
1.680000e-06	8.053666e-06	5.636313e-09	5.690780e+01	3.692886e+02
1.690000e-06	8.042218e-06	5.632833e-09	5.682690e+01	3.689298e+02
1.700000e-06	8.027893e-06	5.627927e-09	5.672568e+01	3.685363e+02
1.710000e-06	8.010900e-06	5.618696e-09	5.660561e+01	3.681201e+02
1.720000e-06	7.991646e-06	5.600395e-09	5.646956e+01	3.676907e+02
1.730000e-06	7.969899e-06	5.559080e-09	5.631589e+01	3.672538e+02
1.740000e-06	7.944952e-06	5.536036e-09	5.613961e+01	3.668108e+02
1.750000e-06	7.916392e-06	5.552376e-09	5.593781e+01	3.663584e+02
1.760000e-06	7.884394e-06	5.563173e-09	5.571170e+01	3.658893e+02
1.770000e-06	7.849716e-06	5.563743e-09	5.546667e+01	3.653931e+02
1.780000e-06	7.812707e-06	5.576375e-09	5.520516e+01	3.648575e+02
1.790000e-06	7.773469e-06	5.577360e-09	5.492790e+01	3.642696e+02
1.800000e-06	7.732204e-06	5.534881e-09	5.463632e+01	3.636177e+02
1.810000e-06	7.688444e-06	5.523827e-09	5.432711e+01	3.628919e+02
1.820000e-06	7.642012e-06	5.525604e-09	5.399902e+01	3.620853e+02
1.830000e-06	7.592875e-06	5.505552e-09	5.365181e+01	3.611944e+02
1.840000e-06	7.540649e-06	5.501062e-09	5.328278e+01	3.602185e+02
1.850000e-06	7.485468e-06	5.475917e-09	5.289287e+01	3.591597e+02
1.860000e-06	7.427526e-06	5.468174e-09	5.248344e+01	3.580220e+02
1.870000e-06	7.366933e-06	5.440590e-09	5.205529e+01	3.568102e+02
1.880000e-06	7.303616e-06	5.422842e-09	5.160788e+01	3.555291e+02
1.890000e-06	7.237456e-06	5.410928e-09	5.114040e+01	3.541827e+02
1.900000e-06	7.168508e-06	5.354180e-09	5.065320e+01	3.527740e+02
1.910000e-06	7.096636e-06	5.356457e-09	5.014535e+01	3.513042e+02
1.920000e-06	7.022080e-06	5.341732e-09	4.961853e+01	3.497730e+02
1.930000e-06	6.944818e-06	5.314933e-09	4.907260e+01	3.481791e+02
1.940000e-06	6.864812e-06	5.288549e-09	4.850727e+01	3.465205e+02
1.950000e-06	6.782373e-06	5.252802e-09	4.792474e+01	3.447950e+02
1.960000e-06	6.697398e-06	5.235671e-09	4.732430e+01	3.430003e+02
1.970000e-06	6.609835e-06	5.193995e-09	4.670558e+01	3.411350e+02
1.980000e-06	6.519916e-06	5.175544e-09	4.607021e+01	3.391983e+02
1.990000e-06	6.427793e-06	5.146868e-09	4.541925e+01	3.371896e+02
2.000000e-06	6.333321e-06	5.104237e-09	4.475171e+01	3.351089e+02
2.010000e-06	6.236527e-06	5.066126e-09	4.406775e+01	3.329562e+02
2.020000e-06	6.137567e-06	5.041327e-09	4.336850e+01	3.307308e+02
2.030000e-06	6.036442e-06	5.016097e-09	4.265394e+01	3.284316e+02
2.040000e-06	5.933108e-06	4.968794e-09	4.192378e+01	3.260564e+02
2.050000e-06	5.827686e-06	4.931964e-09	4.117886e+01	3.236023e+02
2.060000e-06	5.720432e-06	4.894324e-09	4.042099e+01	3.210656e+02
2.070000e-06	5.611207e-06	4.854140e-09	3.964920e+01	3.184423e+02
2.080000e-06	5.499871e-06	4.810191e-09	3.886249e+01	3.157285e+02
2.090000e-06	5.386479e-06	4.773847e-09	3.806125e+01	3.129207e+02
2.100000e-06	5.271007e-06	4.729010e-09	3.724532e+01	3.100162e+02
2.110000e-06	5.153440e-06	4.676074e-09	3.641459e+01	3.070131e+02
2.120000e-06	5.033865e-06	4.627709e-09	3.556966e+01	3.039106e+02
2.130000e-06	4.912461e-06	4.583336e-09	3.471181e+01	3.007085e+02
2.140000e-06	4.789352e-06	4.535653e-09	3.384191e+01	2.974068e+02
2.150000e-06	4.664503e-06	4.484069e-09	3.295972e+01	2.940055e+02
2.160000e-06	4.537864e-06	4.435455e-09	3.206488e+01	2.905038e+02
2.170000e-06	4.409541e-06	4.382666e-09	3.115814e+01	2.868998e+02
2.180000e-06	4.279641e-06	4.325397e-09	3.024025e+01	2.831904e+02
2.190000e-06	4.148227e-06	4.264195e-09	2.931167e+01	2.793711e+02
2.200000e-06	4.015236e-06	4.202963e-09	2.837195e+01	2.754362e+02
2.210000e-06	3.880736e-06	4.138043e-09	2.742157e+01	2.713795e+02
2.220000e-06	3.744769e-06	4.076048e-09	2.646082e+01	2.671946e+02
2.230000e-06	3.607359e-06	4.014733e-09	2.548986e+01	2.628754e+02
2.240000e-06	3.468618e-06	3.949355e-09	2.450951e+01	2.584169e+02
2.250000e-06	3.328528e-06	3.876751e-09	2.351962e+01	2.538152e+02
2.260000e-06	3.187075e-06	3.801689e-09	2.252011e+01	2.490676e+02
2.270000e-06	3.044321e-06	3.725951e-09	2.151140e+01	2.441725e+02
2.280000e-06	2.900390e-06	3.649420e-09	2.049436e+01	2.391287e+02
2.290000e-06	2.755367e-06	3.573304e-09	1.946963e+01	2.339347e+02
2.300000e-06	2.609474e-06	3.494113e-09	1.843874e+01	2.285879e+02
2.310000e-06	2.462846e-06	3.411707e-09	1.740265e+01	2.230840e+02
2.320000e-06	2.315438e-06	3.324364e-09	1.636105e+01	2.174164e+02
2.330000e-06	2.167152e-06	3.234016e-09	1.531326e+01	2.115760e+02
2.340000e-06	2.018013e-06	3.140545e-09	1.425943e+01	2.055517e+02
2.350000e-06	1.868211e-06	3.044864e-09	1.320092e+01	1.993304e+02
2.360000e-06	1.717896e-06	2.949027e-09	1.213878e+01	1.928986e+02
2.370000e-06	1.567043e-06	2.849606e-09	1.107284e+01	1.862432e+02
2.380000e-06	1.415597e-06	2.745250e-09	1.000271e+01	1.793525e+02
2.390000e-06	1.263687e-06	2.635684e-09	8.929305e+00	1.722170e+02
2.400000e-06	1.111353e-06	2.520507e-09	7.852900e+00	1.648303e+02
2.410000e-06	9.585989e-07	2.402879e-09	6.773530e+00	1.571882e+02
2.420000e-06	8.055004e-07	2.283319e-09	5.691725e+00	1.492888e+02
2.430000e-06	6.521737e-07	2.162456e-09	4.608307e+00	1.411306e+02
2.440000e-06	4.986553e-07	2.036562e-09	3.523535e+00	1.327111e+02
2.450000e-06	3.449268e-07	1.904625e-09	2.437278e+00	1.240247e+02
2.460000e-06	1.910595e-07	1.768542e-09	1.350040e+00	1.150614e+02
2.470000e-06	3.709692e-08	1.627053e-09	2.621295e-01	1.058049e+02
2.480000e-06	-1.169308e-07	1.481127e-09	-8.262417e-01	9.623262e+01
2.490000e-06	-2.709354e-07	1.331527e-09	-1.914450e+00	8.631608e+01
2.500000e-06	-4.248498e-07	1.175698e-09	-3.002020e+00	7.602256e+01
2.510000e-06	-5.786632e-07	1.012964e-09	-4.088876e+00	6.531793e+01
2.520000e-06	-7.323297e-07	8.422200e-10	-5.174695e+00	5.417043e+01
2.530000e-06	-8.857742e-07	6.625403e-10	-6.258945e+00	4.255500e+01
2.540000e-06	-1.038893e-06	4.765342e-10	-7.340892e+00	3.045786e+01
2.550000e-06	-1.191576e-06	2.842954e-10	-8.419760e+00	1.788067e+01
2.560000e-06	-1.343795e-06	8.579165e-11	-9.495351e+00	4.843913e+00
2.570000e-06	-1.495518e-06	-1.190443e-10	-1.056744e+01	-8.611063e+00
2.580000e-06	-1.646668e-06	-3.310657e-10	-1.163547e+01	-2.242165e+01
2.590000e-06	-1.797213e-06	-5.483803e-10	-1.269924e+01	-3.650534e+01
2.600000e-06	-1.947123e-06	-7.680260e-10	-1.375852e+01	-5.076296e+01
2.610000e-06	-2.096343e-06	-9.889596e-10	-1.481291e+01	-6.508328e+01
2.620000e-06	-2.244709e-06	-1.210134e-09	-1.586128e+01	-7.934894e+01
2.630000e-06	-2.392094e-06	-1.431017e-09	-1.690271e+01	-9.344281e+01
2.640000e-06	-2.538611e-06	-1.647381e-09	-1.793801e+01	-1.072544e+02
2.650000e-06	-2.684293e-06	-1.855108e-09	-1.896741e+01	-1.206857e+02
2.660000e-06	-2.828977e-06	-2.052571e-09	-1.998976e+01	-1.336555e+02
2.670000e-06	-2.972546e-06	-2.239066e-09	-2.100423e+01	-1.461029e+02
2.680000e-06	-3.114911e-06	-2.416258e-09	-2.201019e+01	-1.579879e+02
2.690000e-06	-3.256043e-06	-2.586557e-09	-2.300744e+01	-1.692916e+02
2.700000e-06	-3.395854e-06	-2.750114e-09	-2.399536e+01	-1.800132e+02
2.710000e-06	-3.534360e-06	-2.905539e-09	-2.497405e+01	-1.901674e+02
2.720000e-06	-3.671647e-06	-3.053389e-09	-2.594413e+01	-1.997795e+02
2.730000e-06	-3.807516e-06	-3.195098e-09	-2.690418e+01	-2.088816e+02
2.740000e-06	-3.941987e-06	-3.330220e-09	-2.785437e+01	-2.175082e+02
2.750000e-06	-4.075086e-06	-3.457556e-09	-2.879485e+01	-2.256926e+02
2.760000e-06	-4.206664e-06	-3.576038e-09	-2.972459e+01	-2.334649e+02
2.770000e-06	-4.336860e-06	-3.686599e-09	-3.064457e+01	-2.408504e+02
2.780000e-06	-4.465640e-06	-3.792083e-09	-3.155454e+01	-2.478700e+02
2.790000e-06	-4.592796e-06	-3.894075e-09	-3.245304e+01	-2.545404e+02
2.800000e-06	-4.718386e-06	-3.991832e-09	-3.334046e+01	-2.608760e+02
2.810000e-06	-4.842282e-06	-4.083116e-09	-3.421592e+01	-2.668906e+02
2.820000e-06	-4.964420e-06	-4.168301e-09	-3.507896e+01	-2.725989e+02
2.830000e-06	-5.084841e-06	-4.248782e-09	-3.592986e+01	-2.780179e+02
2.840000e-06	-5.203309e-06	-4.326745e-09	-3.676696e+01	-2.831671e+02
2.850000e-06	-5.319641e-06	-4.401663e-09	-3.758897e+01	-2.880688e+02
2.860000e-06	-5.433771e-06	-4.473060e-09	-3.839542e+01	-2.927465e+02
2.870000e-06	-5.545693e-06	-4.542458e-09	-3.918627e+01	-2.972242e+02
2.880000e-06	-5.655511e-06	-4.609716e-09	-3.996226e+01	-3.015238e+02
2.890000e-06	-5.763424e-06	-4.674601e-09	-4.072478e+01	-3.056638e+02
2.900000e-06	-5.869464e-06	-4.736802e-09	-4.147406e+01	-3.096579e+02
2.910000e-06	-5.973376e-06	-4.796975e-09	-4.220831e+01	-3.135136e+02
2.920000e-06	-6.074954e-06	-4.854502e-09	-4.292607e+01	-3.172325e+02
2.930000e-06	-6.174254e-06	-4.908971e-09	-4.362773e+01	-3.208108e+02
2.940000e-06	-6.271435e-06	-4.962219e-09	-4.431442e+01	-3.242407e+02
