# Temperatura_=_41.22
# Concentracion g/m^3_=_5000.0
# C_Vs_to_Am_M_A/Vsm_=_65563218390.804596
# pendiente_HvsI_1/m_=_3716.3
# ordenada_HvsI_A/m_=_1297.0
# frecuencia_Hz_=_302511.97799702134

Tiempo_(s)	Campo_(V.s)	Magnetizacion_(V.s)	Campo_(kA/m)	Magnetizacion_(A/m)
0.000000e+00	-7.996192e-06	-5.392130e-09	-5.686633e+01	-3.529836e+02
1.000000e-08	-7.992275e-06	-5.389984e-09	-5.683847e+01	-3.527503e+02
2.000000e-08	-7.985776e-06	-5.384473e-09	-5.679226e+01	-3.524422e+02
3.000000e-08	-7.976608e-06	-5.380568e-09	-5.672705e+01	-3.520729e+02
4.000000e-08	-7.964544e-06	-5.378150e-09	-5.664127e+01	-3.516583e+02
5.000000e-08	-7.949437e-06	-5.373591e-09	-5.653382e+01	-3.512147e+02
6.000000e-08	-7.931612e-06	-5.366483e-09	-5.640706e+01	-3.507570e+02
7.000000e-08	-7.911515e-06	-5.357738e-09	-5.626414e+01	-3.502970e+02
8.000000e-08	-7.888863e-06	-5.353189e-09	-5.610305e+01	-3.498414e+02
9.000000e-08	-7.863091e-06	-5.392594e-09	-5.591976e+01	-3.493918e+02
1.000000e-07	-7.834113e-06	-5.393643e-09	-5.571368e+01	-3.489438e+02
1.100000e-07	-7.802250e-06	-5.345398e-09	-5.548708e+01	-3.484881e+02
1.200000e-07	-7.767622e-06	-5.319400e-09	-5.524082e+01	-3.480111e+02
1.300000e-07	-7.730446e-06	-5.302530e-09	-5.497643e+01	-3.474967e+02
1.400000e-07	-7.691159e-06	-5.260854e-09	-5.469703e+01	-3.469277e+02
1.500000e-07	-7.649693e-06	-5.221298e-09	-5.440215e+01	-3.462883e+02
1.600000e-07	-7.605554e-06	-5.286106e-09	-5.408824e+01	-3.455646e+02
1.700000e-07	-7.558588e-06	-5.255161e-09	-5.375423e+01	-3.447469e+02
1.800000e-07	-7.508793e-06	-5.197427e-09	-5.340011e+01	-3.438292e+02
1.900000e-07	-7.456018e-06	-5.256066e-09	-5.302479e+01	-3.428103e+02
2.000000e-07	-7.400415e-06	-5.202052e-09	-5.262936e+01	-3.416926e+02
2.100000e-07	-7.342109e-06	-5.162165e-09	-5.221470e+01	-3.404820e+02
2.200000e-07	-7.281137e-06	-5.150364e-09	-5.178110e+01	-3.391860e+02
2.300000e-07	-7.217588e-06	-5.114469e-09	-5.132915e+01	-3.378131e+02
2.400000e-07	-7.151281e-06	-5.106658e-09	-5.085760e+01	-3.363714e+02
2.500000e-07	-7.082239e-06	-5.083077e-09	-5.036660e+01	-3.348679e+02
2.600000e-07	-7.010495e-06	-5.092294e-09	-4.985637e+01	-3.333072e+02
2.700000e-07	-6.935961e-06	-5.047758e-09	-4.932631e+01	-3.316920e+02
2.800000e-07	-6.858622e-06	-5.008093e-09	-4.877630e+01	-3.300227e+02
2.900000e-07	-6.778465e-06	-4.985399e-09	-4.820625e+01	-3.282977e+02
3.000000e-07	-6.695801e-06	-4.962451e-09	-4.761837e+01	-3.265139e+02
3.100000e-07	-6.610914e-06	-4.953516e-09	-4.701469e+01	-3.246678e+02
3.200000e-07	-6.523799e-06	-4.905783e-09	-4.639515e+01	-3.227554e+02
3.300000e-07	-6.434280e-06	-4.882233e-09	-4.575852e+01	-3.207731e+02
3.400000e-07	-6.342414e-06	-4.847653e-09	-4.510520e+01	-3.187180e+02
3.500000e-07	-6.248299e-06	-4.815141e-09	-4.443588e+01	-3.165879e+02
3.600000e-07	-6.151847e-06	-4.782817e-09	-4.374995e+01	-3.143817e+02
3.700000e-07	-6.053129e-06	-4.750645e-09	-4.304790e+01	-3.120987e+02
3.800000e-07	-5.952237e-06	-4.717981e-09	-4.233039e+01	-3.097386e+02
3.900000e-07	-5.849291e-06	-4.673238e-09	-4.159827e+01	-3.073015e+02
4.000000e-07	-5.744252e-06	-4.639390e-09	-4.085126e+01	-3.047872e+02
4.100000e-07	-5.637110e-06	-4.593933e-09	-4.008931e+01	-3.021951e+02
4.200000e-07	-5.528026e-06	-4.557592e-09	-3.931354e+01	-2.995245e+02
4.300000e-07	-5.417071e-06	-4.511970e-09	-3.852446e+01	-2.967738e+02
4.400000e-07	-5.304095e-06	-4.467482e-09	-3.772101e+01	-2.939414e+02
4.500000e-07	-5.188891e-06	-4.423282e-09	-3.690172e+01	-2.910251e+02
4.600000e-07	-5.071648e-06	-4.382951e-09	-3.606792e+01	-2.880225e+02
4.700000e-07	-4.952646e-06	-4.337244e-09	-3.522162e+01	-2.849309e+02
4.800000e-07	-4.831873e-06	-4.283260e-09	-3.436272e+01	-2.817475e+02
4.900000e-07	-4.709280e-06	-4.231064e-09	-3.349088e+01	-2.784693e+02
5.000000e-07	-4.584977e-06	-4.176865e-09	-3.260688e+01	-2.750930e+02
5.100000e-07	-4.459044e-06	-4.126075e-09	-3.171128e+01	-2.716154e+02
5.200000e-07	-4.331406e-06	-4.068605e-09	-3.080356e+01	-2.680329e+02
5.300000e-07	-4.202175e-06	-4.011843e-09	-2.988451e+01	-2.643420e+02
5.400000e-07	-4.071460e-06	-3.949880e-09	-2.895491e+01	-2.605391e+02
5.500000e-07	-3.939219e-06	-3.891258e-09	-2.801445e+01	-2.566209e+02
5.600000e-07	-3.805472e-06	-3.832816e-09	-2.706328e+01	-2.525848e+02
5.700000e-07	-3.670325e-06	-3.770757e-09	-2.610216e+01	-2.484282e+02
5.800000e-07	-3.533812e-06	-3.704787e-09	-2.513133e+01	-2.441496e+02
5.900000e-07	-3.395861e-06	-3.635572e-09	-2.415026e+01	-2.397476e+02
6.000000e-07	-3.256396e-06	-3.564630e-09	-2.315844e+01	-2.352214e+02
6.100000e-07	-3.115473e-06	-3.491566e-09	-2.215623e+01	-2.305699e+02
6.200000e-07	-2.973287e-06	-3.421344e-09	-2.114506e+01	-2.257916e+02
6.300000e-07	-2.829937e-06	-3.348156e-09	-2.012560e+01	-2.208839e+02
6.400000e-07	-2.685481e-06	-3.271225e-09	-1.909828e+01	-2.158428e+02
6.500000e-07	-2.540060e-06	-3.189923e-09	-1.806409e+01	-2.106620e+02
6.600000e-07	-2.393821e-06	-3.107706e-09	-1.702408e+01	-2.053336e+02
6.700000e-07	-2.246868e-06	-3.023490e-09	-1.597900e+01	-1.998473e+02
6.800000e-07	-2.099233e-06	-2.937793e-09	-1.492907e+01	-1.941916e+02
6.900000e-07	-1.950912e-06	-2.851048e-09	-1.387426e+01	-1.883538e+02
7.000000e-07	-1.802010e-06	-2.760164e-09	-1.281531e+01	-1.823214e+02
7.100000e-07	-1.652622e-06	-2.664547e-09	-1.175292e+01	-1.760825e+02
7.200000e-07	-1.502692e-06	-2.564207e-09	-1.068666e+01	-1.696269e+02
7.300000e-07	-1.352252e-06	-2.462196e-09	-9.616783e+00	-1.629469e+02
7.400000e-07	-1.201306e-06	-2.355421e-09	-8.543299e+00	-1.560369e+02
7.500000e-07	-1.049883e-06	-2.247284e-09	-7.466426e+00	-1.488936e+02
7.600000e-07	-8.980914e-07	-2.140560e-09	-6.386936e+00	-1.415149e+02
7.700000e-07	-7.460109e-07	-2.029220e-09	-5.305389e+00	-1.338987e+02
7.800000e-07	-5.936649e-07	-1.909199e-09	-4.221953e+00	-1.260412e+02
7.900000e-07	-4.410556e-07	-1.784191e-09	-3.136645e+00	-1.179351e+02
8.000000e-07	-2.882910e-07	-1.654722e-09	-2.050232e+00	-1.095682e+02
8.100000e-07	-1.353907e-07	-1.517513e-09	-9.628550e-01	-1.009222e+02
8.200000e-07	1.761440e-08	-1.377241e-09	1.252679e-01	-9.197243e+01
8.300000e-07	1.706182e-07	-1.234830e-09	1.213381e+00	-8.268805e+01
8.400000e-07	3.235620e-07	-1.087916e-09	2.301069e+00	-7.303420e+01
8.500000e-07	4.764099e-07	-9.338271e-10	3.388073e+00	-6.297447e+01
8.600000e-07	6.291240e-07	-7.731463e-10	4.474127e+00	-5.247459e+01
8.700000e-07	7.816605e-07	-6.073553e-10	5.558917e+00	-4.150668e+01
8.800000e-07	9.340073e-07	-4.335232e-10	6.642358e+00	-3.005373e+01
8.900000e-07	1.086089e-06	-2.519018e-10	7.723913e+00	-1.811382e+01
9.000000e-07	1.237786e-06	-6.577678e-11	8.802733e+00	-5.703578e+00
9.100000e-07	1.388969e-06	1.241106e-10	9.877897e+00	7.139520e+00
9.200000e-07	1.539526e-06	3.211081e-10	1.094861e+01	2.035644e+01
9.300000e-07	1.689508e-06	5.247342e-10	1.201523e+01	3.386758e+01
9.400000e-07	1.838954e-06	7.334089e-10	1.307805e+01	4.757559e+01
9.500000e-07	1.987754e-06	9.449044e-10	1.413627e+01	6.136969e+01
9.600000e-07	2.135799e-06	1.155912e-09	1.518911e+01	7.513135e+01
9.700000e-07	2.283143e-06	1.363977e-09	1.623697e+01	8.874065e+01
9.800000e-07	2.429720e-06	1.567404e-09	1.727938e+01	1.020828e+02
9.900000e-07	2.575389e-06	1.764414e-09	1.831533e+01	1.150545e+02
1.000000e-06	2.720121e-06	1.949921e-09	1.934462e+01	1.275685e+02
1.010000e-06	2.863787e-06	2.125600e-09	2.036633e+01	1.395582e+02
1.020000e-06	3.006268e-06	2.295040e-09	2.137961e+01	1.509786e+02
1.030000e-06	3.147621e-06	2.458520e-09	2.238487e+01	1.618071e+02
1.040000e-06	3.287736e-06	2.613768e-09	2.338132e+01	1.720416e+02
1.050000e-06	3.426496e-06	2.760995e-09	2.436813e+01	1.816977e+02
1.060000e-06	3.563876e-06	2.902724e-09	2.534514e+01	1.908040e+02
1.070000e-06	3.699856e-06	3.037734e-09	2.631218e+01	1.993981e+02
1.080000e-06	3.834503e-06	3.164106e-09	2.726975e+01	2.075214e+02
1.090000e-06	3.967798e-06	3.281718e-09	2.821769e+01	2.152157e+02
1.100000e-06	4.099673e-06	3.392105e-09	2.915555e+01	2.225192e+02
1.110000e-06	4.230127e-06	3.496211e-09	3.008330e+01	2.294648e+02
1.120000e-06	4.359095e-06	3.597108e-09	3.100048e+01	2.360792e+02
1.130000e-06	4.486444e-06	3.694962e-09	3.190614e+01	2.423833e+02
1.140000e-06	4.612214e-06	3.786323e-09	3.280058e+01	2.483926e+02
1.150000e-06	4.736468e-06	3.871306e-09	3.368423e+01	2.541199e+02
1.160000e-06	4.859129e-06	3.952977e-09	3.455656e+01	2.595762e+02
1.170000e-06	4.980026e-06	4.032156e-09	3.541634e+01	2.647731e+02
1.180000e-06	5.099080e-06	4.107565e-09	3.626301e+01	2.697238e+02
1.190000e-06	5.216307e-06	4.179308e-09	3.709669e+01	2.744436e+02
1.200000e-06	5.331606e-06	4.247717e-09	3.791666e+01	2.789499e+02
1.210000e-06	5.444767e-06	4.313622e-09	3.872142e+01	2.832613e+02
1.220000e-06	5.555838e-06	4.378594e-09	3.951133e+01	2.873963e+02
1.230000e-06	5.664959e-06	4.441402e-09	4.028735e+01	2.913718e+02
1.240000e-06	5.772129e-06	4.500698e-09	4.104952e+01	2.952017e+02
1.250000e-06	5.877170e-06	4.555965e-09	4.179653e+01	2.988956e+02
1.260000e-06	5.979967e-06	4.608131e-09	4.252759e+01	3.024580e+02
1.270000e-06	6.080629e-06	4.658053e-09	4.324347e+01	3.058887e+02
1.280000e-06	6.179023e-06	4.705549e-09	4.394321e+01	3.091832e+02
1.290000e-06	6.275002e-06	4.750677e-09	4.462579e+01	3.123345e+02
1.300000e-06	6.368691e-06	4.793729e-09	4.529207e+01	3.153339e+02
1.310000e-06	6.460214e-06	4.835022e-09	4.594296e+01	3.181739e+02
1.320000e-06	6.549392e-06	4.874664e-09	4.657716e+01	3.208491e+02
1.330000e-06	6.636181e-06	4.913681e-09	4.719438e+01	3.233582e+02
1.340000e-06	6.720710e-06	4.950714e-09	4.779552e+01	3.257043e+02
1.350000e-06	6.802903e-06	4.984326e-09	4.838005e+01	3.278951e+02
1.360000e-06	6.882627e-06	5.015219e-09	4.894702e+01	3.299425e+02
1.370000e-06	6.959814e-06	5.044564e-09	4.949595e+01	3.318610e+02
1.380000e-06	7.034360e-06	5.071986e-09	5.002610e+01	3.336665e+02
1.390000e-06	7.106255e-06	5.098341e-09	5.053739e+01	3.353741e+02
1.400000e-06	7.175660e-06	5.125045e-09	5.103097e+01	3.369968e+02
1.410000e-06	7.242571e-06	5.150202e-09	5.150682e+01	3.385442e+02
1.420000e-06	7.306840e-06	5.172079e-09	5.196388e+01	3.400216e+02
1.430000e-06	7.368532e-06	5.192294e-09	5.240262e+01	3.414300e+02
1.440000e-06	7.427741e-06	5.212115e-09	5.282369e+01	3.427665e+02
1.450000e-06	7.484308e-06	5.230657e-09	5.322598e+01	3.440260e+02
1.460000e-06	7.538148e-06	5.246847e-09	5.360888e+01	3.452020e+02
1.470000e-06	7.588974e-06	5.261754e-09	5.397033e+01	3.462884e+02
1.480000e-06	7.636731e-06	5.277175e-09	5.430996e+01	3.472814e+02
1.490000e-06	7.681803e-06	5.292901e-09	5.463050e+01	3.481800e+02
1.500000e-06	7.724196e-06	5.308216e-09	5.493198e+01	3.489868e+02
1.510000e-06	7.763770e-06	5.321276e-09	5.521342e+01	3.497081e+02
1.520000e-06	7.800625e-06	5.332221e-09	5.547553e+01	3.503530e+02
1.530000e-06	7.834760e-06	5.341294e-09	5.571828e+01	3.509321e+02
1.540000e-06	7.866015e-06	5.349223e-09	5.594055e+01	3.514565e+02
1.550000e-06	7.894482e-06	5.358772e-09	5.614300e+01	3.519355e+02
1.560000e-06	7.920136e-06	5.369625e-09	5.632544e+01	3.523759e+02
1.570000e-06	7.942863e-06	5.377806e-09	5.648707e+01	3.527804e+02
1.580000e-06	7.962855e-06	5.384468e-09	5.662925e+01	3.531474e+02
1.590000e-06	7.980075e-06	5.388573e-09	5.675171e+01	3.534715e+02
1.600000e-06	7.994291e-06	5.389417e-09	5.685281e+01	3.537439e+02
1.610000e-06	8.005346e-06	5.391557e-09	5.693143e+01	3.539538e+02
1.620000e-06	8.013295e-06	5.393969e-09	5.698797e+01	3.540905e+02
1.630000e-06	8.018457e-06	5.397861e-09	5.702467e+01	3.541448e+02
1.640000e-06	8.020823e-06	5.401527e-09	5.704150e+01	3.541107e+02
1.650000e-06	8.020285e-06	5.403158e-09	5.703768e+01	3.539867e+02
1.660000e-06	8.017061e-06	5.399844e-09	5.701474e+01	3.537762e+02
1.670000e-06	8.011168e-06	5.393560e-09	5.697283e+01	3.534878e+02
1.680000e-06	8.002528e-06	5.388394e-09	5.691139e+01	3.531340e+02
1.690000e-06	7.991222e-06	5.381993e-09	5.683099e+01	3.527302e+02
1.700000e-06	7.977174e-06	5.375675e-09	5.673108e+01	3.522929e+02
1.710000e-06	7.960474e-06	5.371905e-09	5.661232e+01	3.518375e+02
1.720000e-06	7.941447e-06	5.368013e-09	5.647700e+01	3.513767e+02
1.730000e-06	7.920002e-06	5.341648e-09	5.632449e+01	3.509190e+02
1.740000e-06	7.895447e-06	5.275035e-09	5.614987e+01	3.504674e+02
1.750000e-06	7.867256e-06	5.288958e-09	5.594938e+01	3.500193e+02
1.760000e-06	7.835646e-06	5.312130e-09	5.572458e+01	3.495667e+02
1.770000e-06	7.801340e-06	5.296057e-09	5.548061e+01	3.490969e+02
1.780000e-06	7.764675e-06	5.313294e-09	5.521986e+01	3.485944e+02
1.790000e-06	7.725767e-06	5.375624e-09	5.494316e+01	3.480423e+02
1.800000e-06	7.684863e-06	5.310368e-09	5.465226e+01	3.474241e+02
1.810000e-06	7.641541e-06	5.269363e-09	5.434417e+01	3.467252e+02
1.820000e-06	7.595558e-06	5.310930e-09	5.401716e+01	3.459347e+02
1.830000e-06	7.546904e-06	5.214074e-09	5.367114e+01	3.450455e+02
1.840000e-06	7.495210e-06	5.268138e-09	5.330351e+01	3.440550e+02
1.850000e-06	7.440520e-06	5.247207e-09	5.291458e+01	3.429646e+02
1.860000e-06	7.383055e-06	5.223441e-09	5.250590e+01	3.417794e+02
1.870000e-06	7.323014e-06	5.238585e-09	5.207891e+01	3.405065e+02
1.880000e-06	7.260309e-06	5.147942e-09	5.163297e+01	3.391542e+02
1.890000e-06	7.194734e-06	5.178734e-09	5.116663e+01	3.377310e+02
1.900000e-06	7.126405e-06	5.103638e-09	5.068069e+01	3.362441e+02
1.910000e-06	7.055260e-06	5.096156e-09	5.017473e+01	3.346990e+02
1.920000e-06	6.981375e-06	5.102592e-09	4.964928e+01	3.330988e+02
1.930000e-06	6.904764e-06	5.062487e-09	4.910445e+01	3.314446e+02
1.940000e-06	6.825382e-06	5.079149e-09	4.853991e+01	3.297353e+02
1.950000e-06	6.743478e-06	4.988495e-09	4.795744e+01	3.279683e+02
1.960000e-06	6.659138e-06	4.984657e-09	4.735764e+01	3.261399e+02
1.970000e-06	6.572300e-06	4.939870e-09	4.674007e+01	3.242464e+02
1.980000e-06	6.483004e-06	4.908765e-09	4.610503e+01	3.222840e+02
1.990000e-06	6.391515e-06	4.898022e-09	4.545439e+01	3.202495e+02
2.000000e-06	6.297819e-06	4.853757e-09	4.478805e+01	3.181405e+02
2.010000e-06	6.201789e-06	4.835366e-09	4.410512e+01	3.159557e+02
2.020000e-06	6.103523e-06	4.775757e-09	4.340628e+01	3.136942e+02
2.030000e-06	6.003144e-06	4.755317e-09	4.269242e+01	3.113558e+02
2.040000e-06	5.900603e-06	4.708575e-09	4.196318e+01	3.089403e+02
2.050000e-06	5.795876e-06	4.683908e-09	4.121839e+01	3.064476e+02
2.060000e-06	5.689242e-06	4.641037e-09	4.046005e+01	3.038774e+02
2.070000e-06	5.580769e-06	4.599484e-09	3.968862e+01	3.012289e+02
2.080000e-06	5.470268e-06	4.560809e-09	3.890278e+01	2.985008e+02
2.090000e-06	5.357688e-06	4.513577e-09	3.810215e+01	2.956915e+02
2.100000e-06	5.243108e-06	4.477896e-09	3.728729e+01	2.927990e+02
2.110000e-06	5.126517e-06	4.431564e-09	3.645813e+01	2.898208e+02
2.120000e-06	5.007883e-06	4.388578e-09	3.561445e+01	2.867545e+02
2.130000e-06	4.887364e-06	4.328254e-09	3.475735e+01	2.835972e+02
2.140000e-06	4.765102e-06	4.283264e-09	3.388786e+01	2.803459e+02
2.150000e-06	4.641110e-06	4.234181e-09	3.300608e+01	2.769976e+02
2.160000e-06	4.515378e-06	4.189854e-09	3.211191e+01	2.735489e+02
2.170000e-06	4.387911e-06	4.133265e-09	3.120541e+01	2.699963e+02
2.180000e-06	4.258866e-06	4.078995e-09	3.028768e+01	2.663362e+02
2.190000e-06	4.128340e-06	4.020066e-09	2.935942e+01	2.625652e+02
2.200000e-06	3.996357e-06	3.958067e-09	2.842080e+01	2.586799e+02
2.210000e-06	3.862912e-06	3.897458e-09	2.747178e+01	2.546773e+02
2.220000e-06	3.727853e-06	3.835249e-09	2.651129e+01	2.505549e+02
2.230000e-06	3.591326e-06	3.770668e-09	2.554035e+01	2.463108e+02
2.240000e-06	3.453502e-06	3.702190e-09	2.456019e+01	2.419438e+02
2.250000e-06	3.314407e-06	3.639200e-09	2.357099e+01	2.374527e+02
2.260000e-06	3.174060e-06	3.571830e-09	2.257289e+01	2.328367e+02
2.270000e-06	3.032387e-06	3.498971e-09	2.156535e+01	2.280944e+02
2.280000e-06	2.889470e-06	3.418057e-09	2.054898e+01	2.232236e+02
2.290000e-06	2.745407e-06	3.339425e-09	1.952445e+01	2.182207e+02
2.300000e-06	2.600391e-06	3.261829e-09	1.849314e+01	2.130801e+02
2.310000e-06	2.454610e-06	3.188793e-09	1.745639e+01	2.077944e+02
2.320000e-06	2.308061e-06	3.111772e-09	1.641419e+01	2.023539e+02
2.330000e-06	2.160721e-06	3.023699e-09	1.536635e+01	1.967474e+02
2.340000e-06	2.012677e-06	2.926181e-09	1.431351e+01	1.909625e+02
2.350000e-06	1.863969e-06	2.829225e-09	1.325595e+01	1.849865e+02
2.360000e-06	1.714632e-06	2.737624e-09	1.219391e+01	1.788073e+02
2.370000e-06	1.564776e-06	2.645131e-09	1.112818e+01	1.724141e+02
2.380000e-06	1.414410e-06	2.546233e-09	1.005883e+01	1.657985e+02
2.390000e-06	1.263540e-06	2.439514e-09	8.985889e+00	1.589542e+02
2.400000e-06	1.112238e-06	2.326314e-09	7.909879e+00	1.518774e+02
2.410000e-06	9.604998e-07	2.211756e-09	6.830764e+00	1.445657e+02
2.420000e-06	8.083946e-07	2.099665e-09	5.749041e+00	1.370172e+02
2.430000e-06	6.560098e-07	1.985482e-09	4.665330e+00	1.292287e+02
2.440000e-06	5.033496e-07	1.863597e-09	3.579659e+00	1.211941e+02
2.450000e-06	3.504967e-07	1.736188e-09	2.492619e+00	1.129029e+02
2.460000e-06	1.975069e-07	1.608462e-09	1.404605e+00	1.043385e+02
2.470000e-06	4.443706e-08	1.474898e-09	3.160220e-01	9.547799e+01
2.480000e-06	-1.086583e-07	1.331806e-09	-7.727426e-01	8.629218e+01
2.490000e-06	-2.617822e-07	1.183031e-09	-1.861711e+00	7.674717e+01
2.500000e-06	-4.148118e-07	1.030007e-09	-2.950008e+00	6.680663e+01
2.510000e-06	-5.677007e-07	8.726138e-10	-4.037304e+00	5.643528e+01
2.520000e-06	-7.204340e-07	7.103191e-10	-5.123494e+00	4.560295e+01
2.530000e-06	-8.728753e-07	5.403024e-10	-6.207607e+00	3.428908e+01
2.540000e-06	-1.024954e-06	3.595859e-10	-7.289144e+00	2.248703e+01
2.550000e-06	-1.176603e-06	1.692983e-10	-8.367622e+00	1.020785e+01
2.560000e-06	-1.327839e-06	-2.534592e-11	-9.443164e+00	-2.517096e+00
2.570000e-06	-1.478668e-06	-2.239645e-10	-1.051581e+01	-1.563491e+01
2.580000e-06	-1.628996e-06	-4.299604e-10	-1.158489e+01	-2.907165e+01
2.590000e-06	-1.778695e-06	-6.417187e-10	-1.264950e+01	-4.273466e+01
2.600000e-06	-1.927676e-06	-8.564647e-10	-1.370901e+01	-5.651647e+01
2.610000e-06	-2.075935e-06	-1.071983e-09	-1.476338e+01	-7.030014e+01
2.620000e-06	-2.223368e-06	-1.285566e-09	-1.581188e+01	-8.396546e+01
2.630000e-06	-2.369916e-06	-1.494311e-09	-1.685408e+01	-9.739556e+01
2.640000e-06	-2.515638e-06	-1.695058e-09	-1.789040e+01	-1.104832e+02
2.650000e-06	-2.660446e-06	-1.889463e-09	-1.892023e+01	-1.231362e+02
2.660000e-06	-2.804274e-06	-2.075911e-09	-1.994309e+01	-1.352816e+02
2.670000e-06	-2.947042e-06	-2.251071e-09	-2.095841e+01	-1.468684e+02
2.680000e-06	-3.088630e-06	-2.416475e-09	-2.196534e+01	-1.578675e+02
2.690000e-06	-3.228925e-06	-2.572273e-09	-2.296307e+01	-1.682713e+02
2.700000e-06	-3.367862e-06	-2.721272e-09	-2.395115e+01	-1.780907e+02
2.710000e-06	-3.505519e-06	-2.864507e-09	-2.493012e+01	-1.873510e+02
2.720000e-06	-3.641890e-06	-3.000226e-09	-2.589994e+01	-1.960877e+02
2.730000e-06	-3.776893e-06	-3.128300e-09	-2.686005e+01	-2.043416e+02
2.740000e-06	-3.910558e-06	-3.250066e-09	-2.781062e+01	-2.121548e+02
2.750000e-06	-4.042869e-06	-3.367113e-09	-2.875158e+01	-2.195668e+02
2.760000e-06	-4.173739e-06	-3.477031e-09	-2.968228e+01	-2.266120e+02
2.770000e-06	-4.303232e-06	-3.577563e-09	-3.060320e+01	-2.333192e+02
2.780000e-06	-4.431297e-06	-3.671413e-09	-3.151395e+01	-2.397106e+02
2.790000e-06	-4.557828e-06	-3.761555e-09	-3.241380e+01	-2.458032e+02
2.800000e-06	-4.682724e-06	-3.848311e-09	-3.330202e+01	-2.516103e+02
2.810000e-06	-4.805910e-06	-3.932100e-09	-3.417808e+01	-2.571433e+02
2.820000e-06	-4.927416e-06	-4.013343e-09	-3.504219e+01	-2.624135e+02
2.830000e-06	-5.047130e-06	-4.090500e-09	-3.589356e+01	-2.674336e+02
2.840000e-06	-5.164874e-06	-4.163392e-09	-3.673092e+01	-2.722181e+02
2.850000e-06	-5.280496e-06	-4.232363e-09	-3.755318e+01	-2.767839e+02
2.860000e-06	-5.393962e-06	-4.299605e-09	-3.836012e+01	-2.811495e+02
2.870000e-06	-5.505244e-06	-4.366527e-09	-3.915152e+01	-2.853335e+02
2.880000e-06	-5.614503e-06	-4.430507e-09	-3.992853e+01	-2.893535e+02
2.890000e-06	-5.721944e-06	-4.491914e-09	-4.069261e+01	-2.932243e+02
2.900000e-06	-5.827393e-06	-4.551174e-09	-4.144254e+01	-2.969567e+02
2.910000e-06	-5.930660e-06	-4.608157e-09	-4.217694e+01	-3.005569e+02
2.920000e-06	-6.031620e-06	-4.662782e-09	-4.289493e+01	-3.040260e+02
2.930000e-06	-6.130339e-06	-4.713335e-09	-4.359699e+01	-3.073605e+02
2.940000e-06	-6.226995e-06	-4.761169e-09	-4.428438e+01	-3.105540e+02
