# Temperatura_=_34.77
# Concentracion g/m^3_=_5000.0
# C_Vs_to_Am_M_A/Vsm_=_65563218390.804596
# pendiente_HvsI_1/m_=_3716.3
# ordenada_HvsI_A/m_=_1297.0
# frecuencia_Hz_=_302510.45418395346

Tiempo_(s)	Campo_(V.s)	Magnetizacion_(V.s)	Campo_(kA/m)	Magnetizacion_(A/m)
0.000000e+00	-8.030821e-06	-5.411737e-09	-5.686399e+01	-3.542785e+02
1.000000e-08	-8.026301e-06	-5.410924e-09	-5.683199e+01	-3.540616e+02
2.000000e-08	-8.019287e-06	-5.406849e-09	-5.678233e+01	-3.537835e+02
3.000000e-08	-8.009468e-06	-5.403718e-09	-5.671280e+01	-3.534549e+02
4.000000e-08	-7.996681e-06	-5.397141e-09	-5.662226e+01	-3.530872e+02
5.000000e-08	-7.980912e-06	-5.388204e-09	-5.651060e+01	-3.526919e+02
6.000000e-08	-7.962500e-06	-5.377944e-09	-5.638023e+01	-3.522785e+02
7.000000e-08	-7.941921e-06	-5.365168e-09	-5.623452e+01	-3.518544e+02
8.000000e-08	-7.918721e-06	-5.430133e-09	-5.607025e+01	-3.514232e+02
9.000000e-08	-7.892248e-06	-5.452769e-09	-5.588280e+01	-3.509851e+02
1.000000e-07	-7.862545e-06	-5.385178e-09	-5.567248e+01	-3.505368e+02
1.100000e-07	-7.830005e-06	-5.353450e-09	-5.544207e+01	-3.500717e+02
1.200000e-07	-7.794761e-06	-5.347878e-09	-5.519252e+01	-3.495810e+02
1.300000e-07	-7.757050e-06	-5.313062e-09	-5.492550e+01	-3.490547e+02
1.400000e-07	-7.717153e-06	-5.242759e-09	-5.464300e+01	-3.484823e+02
1.500000e-07	-7.674888e-06	-5.325729e-09	-5.434373e+01	-3.478541e+02
1.600000e-07	-7.629973e-06	-5.319655e-09	-5.402570e+01	-3.471617e+02
1.700000e-07	-7.582428e-06	-5.195119e-09	-5.368905e+01	-3.463986e+02
1.800000e-07	-7.531923e-06	-5.296295e-09	-5.333144e+01	-3.455602e+02
1.900000e-07	-7.478304e-06	-5.263906e-09	-5.295178e+01	-3.446443e+02
2.000000e-07	-7.421905e-06	-5.217635e-09	-5.255243e+01	-3.436501e+02
2.100000e-07	-7.362821e-06	-5.233580e-09	-5.213407e+01	-3.425783e+02
2.200000e-07	-7.301097e-06	-5.184905e-09	-5.169702e+01	-3.414306e+02
2.300000e-07	-7.236661e-06	-5.185995e-09	-5.124077e+01	-3.402090e+02
2.400000e-07	-7.169435e-06	-5.117331e-09	-5.076476e+01	-3.389157e+02
2.500000e-07	-7.099513e-06	-5.135975e-09	-5.026967e+01	-3.375525e+02
2.600000e-07	-7.026848e-06	-5.125385e-09	-4.975514e+01	-3.361213e+02
2.700000e-07	-6.951383e-06	-5.079510e-09	-4.922079e+01	-3.346232e+02
2.800000e-07	-6.873031e-06	-5.036969e-09	-4.866601e+01	-3.330593e+02
2.900000e-07	-6.791907e-06	-5.025718e-09	-4.809159e+01	-3.314301e+02
3.000000e-07	-6.708460e-06	-5.045658e-09	-4.750073e+01	-3.297360e+02
3.100000e-07	-6.622807e-06	-4.971997e-09	-4.689425e+01	-3.279769e+02
3.200000e-07	-6.534772e-06	-4.954083e-09	-4.627089e+01	-3.261526e+02
3.300000e-07	-6.444320e-06	-4.944784e-09	-4.563043e+01	-3.242622e+02
3.400000e-07	-6.351599e-06	-4.910579e-09	-4.497389e+01	-3.223043e+02
3.500000e-07	-6.256649e-06	-4.869511e-09	-4.430158e+01	-3.202770e+02
3.600000e-07	-6.159321e-06	-4.845153e-09	-4.361242e+01	-3.181779e+02
3.700000e-07	-6.059683e-06	-4.828618e-09	-4.290692e+01	-3.160039e+02
3.800000e-07	-5.957934e-06	-4.765841e-09	-4.218646e+01	-3.137520e+02
3.900000e-07	-5.854077e-06	-4.729138e-09	-4.145108e+01	-3.114188e+02
4.000000e-07	-5.748130e-06	-4.706095e-09	-4.070090e+01	-3.090018e+02
4.100000e-07	-5.640181e-06	-4.680267e-09	-3.993654e+01	-3.064988e+02
4.200000e-07	-5.530289e-06	-4.622051e-09	-3.915843e+01	-3.039086e+02
4.300000e-07	-5.418402e-06	-4.579244e-09	-3.836619e+01	-3.012310e+02
4.400000e-07	-5.304293e-06	-4.549896e-09	-3.755821e+01	-2.984668e+02
4.500000e-07	-5.187997e-06	-4.505858e-09	-3.673475e+01	-2.956175e+02
4.600000e-07	-5.069853e-06	-4.455472e-09	-3.589821e+01	-2.926846e+02
4.700000e-07	-4.949977e-06	-4.413590e-09	-3.504940e+01	-2.896695e+02
4.800000e-07	-4.828285e-06	-4.372185e-09	-3.418774e+01	-2.865725e+02
4.900000e-07	-4.704793e-06	-4.313026e-09	-3.331332e+01	-2.833926e+02
5.000000e-07	-4.579628e-06	-4.262853e-09	-3.242706e+01	-2.801270e+02
5.100000e-07	-4.452813e-06	-4.213582e-09	-3.152912e+01	-2.767706e+02
5.200000e-07	-4.324268e-06	-4.161835e-09	-3.061893e+01	-2.733168e+02
5.300000e-07	-4.194146e-06	-4.097824e-09	-2.969757e+01	-2.697574e+02
5.400000e-07	-4.062527e-06	-4.040186e-09	-2.876561e+01	-2.660834e+02
5.500000e-07	-3.929423e-06	-3.985551e-09	-2.782314e+01	-2.622860e+02
5.600000e-07	-3.794851e-06	-3.929623e-09	-2.687028e+01	-2.583569e+02
5.700000e-07	-3.658789e-06	-3.869795e-09	-2.590686e+01	-2.542898e+02
5.800000e-07	-3.521336e-06	-3.805909e-09	-2.493359e+01	-2.500800e+02
5.900000e-07	-3.382418e-06	-3.737518e-09	-2.394995e+01	-2.457256e+02
6.000000e-07	-3.241948e-06	-3.663594e-09	-2.295532e+01	-2.412265e+02
6.100000e-07	-3.100079e-06	-3.593233e-09	-2.195079e+01	-2.365840e+02
6.200000e-07	-2.957048e-06	-3.520040e-09	-2.093803e+01	-2.318002e+02
6.300000e-07	-2.812884e-06	-3.445260e-09	-1.991724e+01	-2.268768e+02
6.400000e-07	-2.667655e-06	-3.365180e-09	-1.888892e+01	-2.218140e+02
6.500000e-07	-2.521515e-06	-3.285729e-09	-1.785414e+01	-2.166093e+02
6.600000e-07	-2.374537e-06	-3.204525e-09	-1.681344e+01	-2.112573e+02
6.700000e-07	-2.226782e-06	-3.123207e-09	-1.576722e+01	-2.057492e+02
6.800000e-07	-2.078343e-06	-3.040953e-09	-1.471617e+01	-2.000735e+02
6.900000e-07	-1.929320e-06	-2.950306e-09	-1.366098e+01	-1.942159e+02
7.000000e-07	-1.779721e-06	-2.857314e-09	-1.260171e+01	-1.881614e+02
7.100000e-07	-1.629561e-06	-2.761006e-09	-1.153846e+01	-1.818950e+02
7.200000e-07	-1.478818e-06	-2.664185e-09	-1.047110e+01	-1.754032e+02
7.300000e-07	-1.327473e-06	-2.558614e-09	-9.399463e+00	-1.686750e+02
7.400000e-07	-1.175596e-06	-2.446471e-09	-8.324063e+00	-1.617025e+02
7.500000e-07	-1.023304e-06	-2.336002e-09	-7.245728e+00	-1.544809e+02
7.600000e-07	-8.706722e-07	-2.226650e-09	-6.164986e+00	-1.470077e+02
7.700000e-07	-7.177311e-07	-2.110881e-09	-5.082053e+00	-1.392819e+02
7.800000e-07	-5.645401e-07	-1.988982e-09	-3.997350e+00	-1.313013e+02
7.900000e-07	-4.112005e-07	-1.866176e-09	-2.911596e+00	-1.230613e+02
8.000000e-07	-2.577320e-07	-1.735995e-09	-1.824928e+00	-1.145530e+02
8.100000e-07	-1.041345e-07	-1.598261e-09	-7.373470e-01	-1.057609e+02
8.200000e-07	4.955399e-08	-1.455553e-09	3.508779e-01	-9.666351e+01
8.300000e-07	2.032269e-07	-1.309292e-09	1.438992e+00	-8.723249e+01
8.400000e-07	3.568381e-07	-1.156462e-09	2.526670e+00	-7.743491e+01
8.500000e-07	5.104079e-07	-9.989801e-10	3.614055e+00	-6.723559e+01
8.600000e-07	6.638600e-07	-8.373758e-10	4.700607e+00	-5.660081e+01
8.700000e-07	8.171141e-07	-6.701866e-10	5.785756e+00	-4.550257e+01
8.800000e-07	9.701284e-07	-4.949071e-10	6.869208e+00	-3.392320e+01
8.900000e-07	1.122898e-06	-3.120797e-10	7.950929e+00	-2.185964e+01
9.000000e-07	1.275325e-06	-1.250921e-10	9.030218e+00	-9.326989e+00
9.100000e-07	1.427183e-06	6.864088e-11	1.010548e+01	3.639115e+00
9.200000e-07	1.578434e-06	2.674064e-10	1.117645e+01	1.698174e+01
9.300000e-07	1.729079e-06	4.723706e-10	1.224313e+01	3.062363e+01
9.400000e-07	1.879012e-06	6.806001e-10	1.330476e+01	4.446989e+01
9.500000e-07	2.028263e-06	8.927863e-10	1.436156e+01	5.841232e+01
9.600000e-07	2.176818e-06	1.105717e-09	1.541344e+01	7.233489e+01
9.700000e-07	2.324609e-06	1.315070e-09	1.645991e+01	8.611996e+01
9.800000e-07	2.471525e-06	1.522865e-09	1.750018e+01	9.965461e+01
9.900000e-07	2.617515e-06	1.721077e-09	1.853389e+01	1.128365e+02
1.000000e-06	2.762624e-06	1.910674e-09	1.956136e+01	1.255788e+02
1.010000e-06	2.906666e-06	2.092813e-09	2.058129e+01	1.378138e+02
1.020000e-06	3.049538e-06	2.267677e-09	2.159292e+01	1.494943e+02
1.030000e-06	3.191258e-06	2.435591e-09	2.259640e+01	1.605945e+02
1.040000e-06	3.331698e-06	2.595868e-09	2.359082e+01	1.711077e+02
1.050000e-06	3.470766e-06	2.747785e-09	2.457552e+01	1.810441e+02
1.060000e-06	3.608443e-06	2.890888e-09	2.555038e+01	1.904266e+02
1.070000e-06	3.744703e-06	3.027481e-09	2.651520e+01	1.992871e+02
1.080000e-06	3.879551e-06	3.155403e-09	2.747002e+01	2.076619e+02
1.090000e-06	4.013022e-06	3.274840e-09	2.841509e+01	2.155886e+02
1.100000e-06	4.145123e-06	3.387336e-09	2.935046e+01	2.231027e+02
1.110000e-06	4.275804e-06	3.497559e-09	3.027577e+01	2.302360e+02
1.120000e-06	4.405025e-06	3.604893e-09	3.119075e+01	2.370159e+02
1.130000e-06	4.532642e-06	3.704518e-09	3.209437e+01	2.434649e+02
1.140000e-06	4.658641e-06	3.795687e-09	3.298653e+01	2.496022e+02
1.150000e-06	4.783066e-06	3.881538e-09	3.386755e+01	2.554443e+02
1.160000e-06	4.905867e-06	3.964179e-09	3.473707e+01	2.610065e+02
1.170000e-06	5.026972e-06	4.043069e-09	3.559458e+01	2.663040e+02
1.180000e-06	5.146205e-06	4.119640e-09	3.643884e+01	2.713528e+02
1.190000e-06	5.263533e-06	4.193957e-09	3.726961e+01	2.761699e+02
1.200000e-06	5.378893e-06	4.263381e-09	3.808644e+01	2.807728e+02
1.210000e-06	5.492181e-06	4.330517e-09	3.888860e+01	2.851791e+02
1.220000e-06	5.603355e-06	4.397532e-09	3.967579e+01	2.894048e+02
1.230000e-06	5.712523e-06	4.461793e-09	4.044877e+01	2.934640e+02
1.240000e-06	5.819722e-06	4.522363e-09	4.120782e+01	2.973672e+02
1.250000e-06	5.924782e-06	4.578632e-09	4.195172e+01	3.011210e+02
1.260000e-06	6.027591e-06	4.632038e-09	4.267969e+01	3.047280e+02
1.270000e-06	6.128161e-06	4.681071e-09	4.339179e+01	3.081870e+02
1.280000e-06	6.226506e-06	4.727223e-09	4.408815e+01	3.114940e+02
1.290000e-06	6.322510e-06	4.773995e-09	4.476793e+01	3.146434e+02
1.300000e-06	6.416190e-06	4.819195e-09	4.543125e+01	3.176298e+02
1.310000e-06	6.507586e-06	4.860700e-09	4.607840e+01	3.204490e+02
1.320000e-06	6.596581e-06	4.900074e-09	4.670854e+01	3.230999e+02
1.330000e-06	6.683223e-06	4.939671e-09	4.732203e+01	3.255845e+02
1.340000e-06	6.767603e-06	4.976893e-09	4.791950e+01	3.279088e+02
1.350000e-06	6.849652e-06	5.008949e-09	4.850047e+01	3.300826e+02
1.360000e-06	6.929258e-06	5.038071e-09	4.906413e+01	3.321180e+02
1.370000e-06	7.006308e-06	5.066602e-09	4.960971e+01	3.340289e+02
1.380000e-06	7.080667e-06	5.094920e-09	5.013622e+01	3.358292e+02
1.390000e-06	7.152310e-06	5.121795e-09	5.064350e+01	3.375315e+02
1.400000e-06	7.221428e-06	5.148236e-09	5.113291e+01	3.391461e+02
1.410000e-06	7.288029e-06	5.173639e-09	5.160449e+01	3.406798e+02
1.420000e-06	7.352000e-06	5.196624e-09	5.205745e+01	3.421358e+02
1.430000e-06	7.413445e-06	5.216901e-09	5.249253e+01	3.435144e+02
1.440000e-06	7.472367e-06	5.236202e-09	5.290974e+01	3.448129e+02
1.450000e-06	7.528640e-06	5.254188e-09	5.330819e+01	3.460273e+02
1.460000e-06	7.582194e-06	5.270718e-09	5.368740e+01	3.471534e+02
1.470000e-06	7.632689e-06	5.286045e-09	5.404493e+01	3.481880e+02
1.480000e-06	7.680047e-06	5.300529e-09	5.438026e+01	3.491299e+02
1.490000e-06	7.724719e-06	5.314808e-09	5.469657e+01	3.499808e+02
1.500000e-06	7.766653e-06	5.327342e-09	5.499350e+01	3.507450e+02
1.510000e-06	7.805713e-06	5.339019e-09	5.527007e+01	3.514294e+02
1.520000e-06	7.842109e-06	5.349161e-09	5.552778e+01	3.520428e+02
1.530000e-06	7.875757e-06	5.358782e-09	5.576603e+01	3.525944e+02
1.540000e-06	7.906550e-06	5.368582e-09	5.598407e+01	3.530932e+02
1.550000e-06	7.934606e-06	5.378468e-09	5.618272e+01	3.535460e+02
1.560000e-06	7.959776e-06	5.386398e-09	5.636094e+01	3.539575e+02
1.570000e-06	7.982034e-06	5.392616e-09	5.651855e+01	3.543289e+02
1.580000e-06	8.001632e-06	5.398965e-09	5.665732e+01	3.546581e+02
1.590000e-06	8.018352e-06	5.403797e-09	5.677570e+01	3.549404e+02
1.600000e-06	8.031910e-06	5.407661e-09	5.687171e+01	3.551690e+02
1.610000e-06	8.042278e-06	5.410972e-09	5.694512e+01	3.553363e+02
1.620000e-06	8.049639e-06	5.414038e-09	5.699724e+01	3.554352e+02
1.630000e-06	8.054219e-06	5.416450e-09	5.702967e+01	3.554603e+02
1.640000e-06	8.055890e-06	5.419178e-09	5.704150e+01	3.554090e+02
1.650000e-06	8.054712e-06	5.415735e-09	5.703316e+01	3.552820e+02
1.660000e-06	8.050986e-06	5.409369e-09	5.700678e+01	3.550838e+02
1.670000e-06	8.044584e-06	5.408425e-09	5.696145e+01	3.548217e+02
1.680000e-06	8.035437e-06	5.405827e-09	5.689668e+01	3.545060e+02
1.690000e-06	8.023556e-06	5.401910e-09	5.681255e+01	3.541478e+02
1.700000e-06	8.008852e-06	5.401085e-09	5.670844e+01	3.537589e+02
1.710000e-06	7.991596e-06	5.405682e-09	5.658626e+01	3.533494e+02
1.720000e-06	7.972100e-06	5.390891e-09	5.644821e+01	3.529273e+02
1.730000e-06	7.949966e-06	5.276903e-09	5.629148e+01	3.524976e+02
1.740000e-06	7.924477e-06	5.286103e-09	5.611101e+01	3.520613e+02
1.750000e-06	7.895302e-06	5.338169e-09	5.590442e+01	3.516160e+02
1.760000e-06	7.862816e-06	5.318909e-09	5.567440e+01	3.511560e+02
1.770000e-06	7.827850e-06	5.323946e-09	5.542682e+01	3.506732e+02
1.780000e-06	7.790576e-06	5.420214e-09	5.516289e+01	3.501578e+02
1.790000e-06	7.751087e-06	5.351521e-09	5.488327e+01	3.495992e+02
1.800000e-06	7.709481e-06	5.276646e-09	5.458868e+01	3.489874e+02
1.810000e-06	7.665340e-06	5.398883e-09	5.427613e+01	3.483137e+02
1.820000e-06	7.618576e-06	5.272390e-09	5.394501e+01	3.475709e+02
1.830000e-06	7.569050e-06	5.330900e-09	5.359432e+01	3.467539e+02
1.840000e-06	7.516492e-06	5.290094e-09	5.322218e+01	3.458599e+02
1.850000e-06	7.461035e-06	5.220397e-09	5.282950e+01	3.448876e+02
1.860000e-06	7.402817e-06	5.309389e-09	5.241727e+01	3.438374e+02
1.870000e-06	7.341965e-06	5.182835e-09	5.198640e+01	3.427108e+02
1.880000e-06	7.278346e-06	5.280870e-09	5.153593e+01	3.415096e+02
1.890000e-06	7.211945e-06	5.226260e-09	5.106576e+01	3.402361e+02
1.900000e-06	7.142723e-06	5.140950e-09	5.057562e+01	3.388923e+02
1.910000e-06	7.070579e-06	5.178304e-09	5.006479e+01	3.374800e+02
1.920000e-06	6.995811e-06	5.127952e-09	4.953538e+01	3.360005e+02
1.930000e-06	6.918276e-06	5.170465e-09	4.898637e+01	3.344549e+02
1.940000e-06	6.837992e-06	5.064949e-09	4.841791e+01	3.328439e+02
1.950000e-06	6.755231e-06	5.076536e-09	4.783190e+01	3.311679e+02
1.960000e-06	6.669961e-06	5.050843e-09	4.722812e+01	3.294270e+02
1.970000e-06	6.582180e-06	4.984884e-09	4.660657e+01	3.276209e+02
1.980000e-06	6.491992e-06	4.999122e-09	4.596797e+01	3.257490e+02
1.990000e-06	6.399643e-06	4.956042e-09	4.531408e+01	3.238102e+02
2.000000e-06	6.305033e-06	4.941533e-09	4.464417e+01	3.218025e+02
2.010000e-06	6.208138e-06	4.857320e-09	4.395808e+01	3.197238e+02
2.020000e-06	6.109060e-06	4.859061e-09	4.325655e+01	3.175711e+02
2.030000e-06	6.007788e-06	4.831270e-09	4.253947e+01	3.153413e+02
2.040000e-06	5.904309e-06	4.793401e-09	4.180676e+01	3.130313e+02
2.050000e-06	5.798778e-06	4.745132e-09	4.105952e+01	3.106381e+02
2.060000e-06	5.691441e-06	4.704974e-09	4.029950e+01	3.081593e+02
2.070000e-06	5.582155e-06	4.678133e-09	3.952567e+01	3.055937e+02
2.080000e-06	5.470774e-06	4.623763e-09	3.873702e+01	3.029406e+02
2.090000e-06	5.357281e-06	4.603609e-09	3.793341e+01	3.002006e+02
2.100000e-06	5.241711e-06	4.557856e-09	3.711509e+01	2.973750e+02
2.110000e-06	5.124018e-06	4.509843e-09	3.628173e+01	2.944654e+02
2.120000e-06	5.004338e-06	4.443726e-09	3.543432e+01	2.914733e+02
2.130000e-06	4.882914e-06	4.407761e-09	3.457455e+01	2.883993e+02
2.140000e-06	4.759795e-06	4.362847e-09	3.370277e+01	2.852429e+02
2.150000e-06	4.634950e-06	4.318805e-09	3.281878e+01	2.820017e+02
2.160000e-06	4.508343e-06	4.267246e-09	3.192231e+01	2.786714e+02
2.170000e-06	4.380033e-06	4.218683e-09	3.101379e+01	2.752458e+02
2.180000e-06	4.250153e-06	4.167344e-09	3.009414e+01	2.717171e+02
2.190000e-06	4.118804e-06	4.109867e-09	2.916409e+01	2.680764e+02
2.200000e-06	3.985917e-06	4.054276e-09	2.822316e+01	2.643146e+02
2.210000e-06	3.851511e-06	3.985938e-09	2.727147e+01	2.604235e+02
2.220000e-06	3.715582e-06	3.922227e-09	2.630900e+01	2.563959e+02
2.230000e-06	3.578286e-06	3.856533e-09	2.533684e+01	2.522268e+02
2.240000e-06	3.439637e-06	3.799079e-09	2.435511e+01	2.479134e+02
2.250000e-06	3.299662e-06	3.733123e-09	2.336398e+01	2.434551e+02
2.260000e-06	3.158435e-06	3.665482e-09	2.236400e+01	2.388529e+02
2.270000e-06	3.015916e-06	3.590026e-09	2.135486e+01	2.341089e+02
2.280000e-06	2.872151e-06	3.515268e-09	2.033690e+01	2.292249e+02
2.290000e-06	2.727260e-06	3.440501e-09	1.931096e+01	2.242016e+02
2.300000e-06	2.581559e-06	3.365549e-09	1.827930e+01	2.190374e+02
2.310000e-06	2.435093e-06	3.286751e-09	1.724221e+01	2.137278e+02
2.320000e-06	2.287797e-06	3.199076e-09	1.619925e+01	2.082650e+02
2.330000e-06	2.139637e-06	3.108809e-09	1.515017e+01	2.026381e+02
2.340000e-06	1.990665e-06	3.017913e-09	1.409534e+01	1.968335e+02
2.350000e-06	1.841027e-06	2.926914e-09	1.303579e+01	1.908365e+02
2.360000e-06	1.690872e-06	2.832789e-09	1.197259e+01	1.846317e+02
2.370000e-06	1.540207e-06	2.734678e-09	1.090577e+01	1.782051e+02
2.380000e-06	1.388972e-06	2.635312e-09	9.834923e+00	1.715449e+02
2.390000e-06	1.237273e-06	2.531941e-09	8.760785e+00	1.646424e+02
2.400000e-06	1.085206e-06	2.421280e-09	7.684040e+00	1.574919e+02
2.410000e-06	9.327731e-07	2.308322e-09	6.604705e+00	1.500903e+02
2.420000e-06	7.799948e-07	2.190880e-09	5.522925e+00	1.424364e+02
2.430000e-06	6.269531e-07	2.069822e-09	4.439280e+00	1.345284e+02
2.440000e-06	4.737034e-07	1.946744e-09	3.354161e+00	1.263629e+02
2.450000e-06	3.202497e-07	1.823025e-09	2.267598e+00	1.179320e+02
2.460000e-06	1.666519e-07	1.693204e-09	1.180016e+00	1.092226e+02
2.470000e-06	1.301498e-08	1.553453e-09	9.215542e-02	1.002146e+02
2.480000e-06	-1.406474e-07	1.408922e-09	-9.958850e-01	9.088165e+01
2.490000e-06	-2.942883e-07	1.260245e-09	-2.083773e+00	8.119193e+01
2.500000e-06	-4.477996e-07	1.106188e-09	-3.170743e+00	7.111055e+01
2.510000e-06	-6.011461e-07	9.457327e-10	-4.256548e+00	6.060295e+01
2.520000e-06	-7.543363e-07	7.791982e-10	-5.341244e+00	4.963904e+01
2.530000e-06	-9.073203e-07	6.041402e-10	-6.424481e+00	3.819774e+01
2.540000e-06	-1.059996e-06	4.211704e-10	-7.505536e+00	2.627140e+01
2.550000e-06	-1.212306e-06	2.325731e-10	-8.583996e+00	1.386965e+01
2.560000e-06	-1.364177e-06	3.766083e-11	-9.659357e+00	1.022080e+00
2.570000e-06	-1.515534e-06	-1.650301e-10	-1.073107e+01	-1.222043e+01
2.580000e-06	-1.666341e-06	-3.758134e-10	-1.179889e+01	-2.578621e+01
2.590000e-06	-1.816520e-06	-5.904520e-10	-1.286227e+01	-3.958506e+01
2.600000e-06	-1.966035e-06	-8.062967e-10	-1.392094e+01	-5.351204e+01
2.610000e-06	-2.114854e-06	-1.022986e-09	-1.497469e+01	-6.745277e+01
2.620000e-06	-2.262802e-06	-1.239515e-09	-1.602227e+01	-8.128940e+01
2.630000e-06	-2.409794e-06	-1.452154e-09	-1.706307e+01	-9.490703e+01
2.640000e-06	-2.555941e-06	-1.659646e-09	-1.809791e+01	-1.081997e+02
2.650000e-06	-2.701220e-06	-1.858543e-09	-1.912658e+01	-1.210759e+02
2.660000e-06	-2.845438e-06	-2.046200e-09	-2.014775e+01	-1.334619e+02
2.670000e-06	-2.988473e-06	-2.223620e-09	-2.116054e+01	-1.453049e+02
2.680000e-06	-3.130343e-06	-2.392526e-09	-2.216508e+01	-1.565728e+02
2.690000e-06	-3.271076e-06	-2.553770e-09	-2.316157e+01	-1.672538e+02
2.700000e-06	-3.410475e-06	-2.706343e-09	-2.414862e+01	-1.773535e+02
2.710000e-06	-3.548532e-06	-2.852609e-09	-2.512616e+01	-1.868917e+02
2.720000e-06	-3.685251e-06	-2.992311e-09	-2.609423e+01	-1.958982e+02
2.730000e-06	-3.820574e-06	-3.127865e-09	-2.705242e+01	-2.044084e+02
2.740000e-06	-3.954578e-06	-3.258129e-09	-2.800126e+01	-2.124598e+02
2.750000e-06	-4.087146e-06	-3.376987e-09	-2.893993e+01	-2.200888e+02
2.760000e-06	-4.218236e-06	-3.485045e-09	-2.986815e+01	-2.273283e+02
2.770000e-06	-4.347919e-06	-3.584706e-09	-3.078640e+01	-2.342071e+02
2.780000e-06	-4.476136e-06	-3.681823e-09	-3.169426e+01	-2.407490e+02
2.790000e-06	-4.602849e-06	-3.775965e-09	-3.259148e+01	-2.469740e+02
2.800000e-06	-4.727996e-06	-3.866280e-09	-3.347761e+01	-2.528993e+02
2.810000e-06	-4.851407e-06	-3.953313e-09	-3.435145e+01	-2.585403e+02
2.820000e-06	-4.973068e-06	-4.035930e-09	-3.521290e+01	-2.639123e+02
2.830000e-06	-5.092935e-06	-4.113645e-09	-3.606165e+01	-2.690309e+02
2.840000e-06	-5.210852e-06	-4.187872e-09	-3.689658e+01	-2.739128e+02
2.850000e-06	-5.326594e-06	-4.259577e-09	-3.771612e+01	-2.785756e+02
2.860000e-06	-5.440113e-06	-4.327794e-09	-3.851992e+01	-2.830367e+02
2.870000e-06	-5.551439e-06	-4.393328e-09	-3.930818e+01	-2.873129e+02
2.880000e-06	-5.660700e-06	-4.456042e-09	-4.008183e+01	-2.914188e+02
2.890000e-06	-5.768129e-06	-4.516000e-09	-4.084250e+01	-2.953662e+02
2.900000e-06	-5.873628e-06	-4.574588e-09	-4.158951e+01	-2.991627e+02
2.910000e-06	-5.976990e-06	-4.632726e-09	-4.232139e+01	-3.028120e+02
2.920000e-06	-6.078027e-06	-4.688312e-09	-4.303681e+01	-3.063140e+02
2.930000e-06	-6.176819e-06	-4.740681e-09	-4.373633e+01	-3.096654e+02
2.940000e-06	-6.273494e-06	-4.789980e-09	-4.442086e+01	-3.128608e+02
