# Temperatura_=_24.72
# Concentracion g/m^3_=_5000.0
# C_Vs_to_Am_M_A/Vsm_=_65563218390.804596
# pendiente_HvsI_1/m_=_3716.3
# ordenada_HvsI_A/m_=_1297.0
# frecuencia_Hz_=_302511.8900857385

Tiempo_(s)	Campo_(V.s)	Magnetizacion_(V.s)	Campo_(kA/m)	Magnetizacion_(A/m)
0.000000e+00	-8.017233e-06	-5.066430e-09	-5.685947e+01	-3.297729e+02
1.000000e-08	-8.012904e-06	-5.063749e-09	-5.682877e+01	-3.296231e+02
2.000000e-08	-8.006015e-06	-5.059142e-09	-5.677991e+01	-3.294008e+02
3.000000e-08	-7.996419e-06	-5.052454e-09	-5.671186e+01	-3.291094e+02
4.000000e-08	-7.983852e-06	-5.043671e-09	-5.662273e+01	-3.287554e+02
5.000000e-08	-7.968235e-06	-5.035412e-09	-5.651197e+01	-3.283482e+02
6.000000e-08	-7.949966e-06	-5.025724e-09	-5.638241e+01	-3.278993e+02
7.000000e-08	-7.929457e-06	-5.015538e-09	-5.623695e+01	-3.274210e+02
8.000000e-08	-7.906372e-06	-5.023759e-09	-5.607323e+01	-3.269252e+02
9.000000e-08	-7.880137e-06	-5.029552e-09	-5.588717e+01	-3.264219e+02
1.000000e-07	-7.850689e-06	-5.022119e-09	-5.567832e+01	-3.259184e+02
1.100000e-07	-7.818377e-06	-5.006436e-09	-5.544915e+01	-3.254183e+02
1.200000e-07	-7.783340e-06	-4.985329e-09	-5.520067e+01	-3.249211e+02
1.300000e-07	-7.745727e-06	-4.964487e-09	-5.493391e+01	-3.244223e+02
1.400000e-07	-7.705909e-06	-4.929211e-09	-5.465151e+01	-3.239139e+02
1.500000e-07	-7.663848e-06	-4.941689e-09	-5.435321e+01	-3.233849e+02
1.600000e-07	-7.619120e-06	-4.937735e-09	-5.403599e+01	-3.228224e+02
1.700000e-07	-7.571659e-06	-4.916315e-09	-5.369939e+01	-3.222131e+02
1.800000e-07	-7.521375e-06	-4.941737e-09	-5.334277e+01	-3.215440e+02
1.900000e-07	-7.468045e-06	-4.906008e-09	-5.296454e+01	-3.208037e+02
2.000000e-07	-7.411883e-06	-4.887835e-09	-5.256623e+01	-3.199833e+02
2.100000e-07	-7.353039e-06	-4.860147e-09	-5.214890e+01	-3.190765e+02
2.200000e-07	-7.291579e-06	-4.815664e-09	-5.171302e+01	-3.180804e+02
2.300000e-07	-7.227477e-06	-4.823488e-09	-5.125840e+01	-3.169950e+02
2.400000e-07	-7.160565e-06	-4.806223e-09	-5.078385e+01	-3.158229e+02
2.500000e-07	-7.090946e-06	-4.787676e-09	-5.029010e+01	-3.145685e+02
2.600000e-07	-7.018576e-06	-4.771126e-09	-4.977684e+01	-3.132376e+02
2.700000e-07	-6.943349e-06	-4.754531e-09	-4.924332e+01	-3.118365e+02
2.800000e-07	-6.865300e-06	-4.720690e-09	-4.868978e+01	-3.103710e+02
2.900000e-07	-6.784489e-06	-4.703751e-09	-4.811666e+01	-3.088462e+02
3.000000e-07	-6.701263e-06	-4.699978e-09	-4.752641e+01	-3.072657e+02
3.100000e-07	-6.615816e-06	-4.657734e-09	-4.692040e+01	-3.056314e+02
3.200000e-07	-6.528010e-06	-4.623310e-09	-4.629767e+01	-3.039437e+02
3.300000e-07	-6.437820e-06	-4.599569e-09	-4.565803e+01	-3.022011e+02
3.400000e-07	-6.345314e-06	-4.574566e-09	-4.500196e+01	-3.004010e+02
3.500000e-07	-6.250530e-06	-4.535682e-09	-4.432974e+01	-2.985399e+02
3.600000e-07	-6.153436e-06	-4.500965e-09	-4.364113e+01	-2.966135e+02
3.700000e-07	-6.054018e-06	-4.484707e-09	-4.293604e+01	-2.946175e+02
3.800000e-07	-5.952446e-06	-4.450319e-09	-4.221568e+01	-2.925479e+02
3.900000e-07	-5.848821e-06	-4.402038e-09	-4.148075e+01	-2.904012e+02
4.000000e-07	-5.743102e-06	-4.368025e-09	-4.073098e+01	-2.881746e+02
4.100000e-07	-5.635358e-06	-4.348644e-09	-3.996684e+01	-2.858661e+02
4.200000e-07	-5.525650e-06	-4.307619e-09	-3.918878e+01	-2.834745e+02
4.300000e-07	-5.413983e-06	-4.261433e-09	-3.839682e+01	-2.809990e+02
4.400000e-07	-5.300274e-06	-4.232419e-09	-3.759037e+01	-2.784396e+02
4.500000e-07	-5.184458e-06	-4.199039e-09	-3.676898e+01	-2.757958e+02
4.600000e-07	-5.066715e-06	-4.146314e-09	-3.593394e+01	-2.730675e+02
4.700000e-07	-4.947192e-06	-4.094521e-09	-3.508626e+01	-2.702537e+02
4.800000e-07	-4.825820e-06	-4.052269e-09	-3.422547e+01	-2.673529e+02
4.900000e-07	-4.702624e-06	-4.007215e-09	-3.335175e+01	-2.643628e+02
5.000000e-07	-4.577721e-06	-3.959926e-09	-3.246591e+01	-2.612801e+02
5.100000e-07	-4.451191e-06	-3.913122e-09	-3.156855e+01	-2.581009e+02
5.200000e-07	-4.323050e-06	-3.864837e-09	-3.065975e+01	-2.548206e+02
5.300000e-07	-4.193340e-06	-3.808874e-09	-2.973982e+01	-2.514344e+02
5.400000e-07	-4.062069e-06	-3.751649e-09	-2.880883e+01	-2.479373e+02
5.500000e-07	-3.929216e-06	-3.697216e-09	-2.786661e+01	-2.443249e+02
5.600000e-07	-3.794840e-06	-3.643133e-09	-2.691360e+01	-2.405932e+02
5.700000e-07	-3.659020e-06	-3.584840e-09	-2.595034e+01	-2.367392e+02
5.800000e-07	-3.521804e-06	-3.522707e-09	-2.497719e+01	-2.327607e+02
5.900000e-07	-3.383171e-06	-3.456723e-09	-2.399398e+01	-2.286564e+02
6.000000e-07	-3.243037e-06	-3.387041e-09	-2.300013e+01	-2.244258e+02
6.100000e-07	-3.101493e-06	-3.320337e-09	-2.199627e+01	-2.200686e+02
6.200000e-07	-2.958780e-06	-3.254423e-09	-2.098413e+01	-2.155846e+02
6.300000e-07	-2.814922e-06	-3.186260e-09	-1.996387e+01	-2.109730e+02
6.400000e-07	-2.669993e-06	-3.116838e-09	-1.893601e+01	-2.062319e+02
6.500000e-07	-2.524071e-06	-3.044876e-09	-1.790111e+01	-2.013583e+02
6.600000e-07	-2.377282e-06	-2.964739e-09	-1.686006e+01	-1.963473e+02
6.700000e-07	-2.229853e-06	-2.881374e-09	-1.581447e+01	-1.911926e+02
6.800000e-07	-2.081738e-06	-2.800458e-09	-1.476401e+01	-1.858863e+02
6.900000e-07	-1.932967e-06	-2.717281e-09	-1.370890e+01	-1.804195e+02
7.000000e-07	-1.783579e-06	-2.629732e-09	-1.264942e+01	-1.747826e+02
7.100000e-07	-1.633536e-06	-2.540986e-09	-1.158530e+01	-1.689662e+02
7.200000e-07	-1.482996e-06	-2.452719e-09	-1.051764e+01	-1.629610e+02
7.300000e-07	-1.331987e-06	-2.357931e-09	-9.446664e+00	-1.567592e+02
7.400000e-07	-1.180514e-06	-2.257852e-09	-8.372391e+00	-1.503541e+02
7.500000e-07	-1.028641e-06	-2.158535e-09	-7.295281e+00	-1.437402e+02
7.600000e-07	-8.764193e-07	-2.059340e-09	-6.215703e+00	-1.369130e+02
7.700000e-07	-7.239420e-07	-1.952814e-09	-5.134310e+00	-1.298685e+02
7.800000e-07	-5.711700e-07	-1.839912e-09	-4.050827e+00	-1.226022e+02
7.900000e-07	-4.181622e-07	-1.725804e-09	-2.965672e+00	-1.151079e+02
8.000000e-07	-2.650127e-07	-1.606666e-09	-1.879512e+00	-1.073776e+02
8.100000e-07	-1.117335e-07	-1.480816e-09	-7.924318e-01	-9.939973e+01
8.200000e-07	4.163070e-08	-1.352615e-09	2.952514e-01	-9.115969e+01
8.300000e-07	1.950418e-07	-1.222929e-09	1.383267e+00	-8.263941e+01
8.400000e-07	3.484172e-07	-1.086958e-09	2.471030e+00	-7.381835e+01
8.500000e-07	5.016535e-07	-9.473026e-10	3.557805e+00	-6.467479e+01
8.600000e-07	6.547595e-07	-8.043040e-10	4.643657e+00	-5.518778e+01
8.700000e-07	8.077467e-07	-6.539694e-10	5.728666e+00	-4.533957e+01
8.800000e-07	9.604801e-07	-4.966105e-10	6.811876e+00	-3.511825e+01
8.900000e-07	1.112865e-06	-3.349519e-10	7.892612e+00	-2.452043e+01
9.000000e-07	1.264822e-06	-1.690072e-10	8.970312e+00	-1.355368e+01
9.100000e-07	1.416302e-06	2.135459e-12	1.004463e+01	-2.238352e+00
9.200000e-07	1.567283e-06	1.767141e-10	1.111541e+01	9.391289e+00
9.300000e-07	1.717697e-06	3.539798e-10	1.218217e+01	2.128698e+01
9.400000e-07	1.867506e-06	5.345784e-10	1.324464e+01	3.338738e+01
9.500000e-07	2.016633e-06	7.198596e-10	1.430228e+01	4.562003e+01
9.600000e-07	2.165044e-06	9.057976e-10	1.535483e+01	5.790421e+01
9.700000e-07	2.312708e-06	1.092664e-09	1.640208e+01	7.015455e+01
9.800000e-07	2.459517e-06	1.280059e-09	1.744328e+01	8.228501e+01
9.900000e-07	2.605412e-06	1.462227e-09	1.847799e+01	9.421287e+01
1.000000e-06	2.750334e-06	1.635864e-09	1.950580e+01	1.058626e+02
1.010000e-06	2.894219e-06	1.802833e-09	2.052625e+01	1.171689e+02
1.020000e-06	3.037016e-06	1.965699e-09	2.153900e+01	1.280793e+02
1.030000e-06	3.178579e-06	2.122014e-09	2.254298e+01	1.385551e+02
1.040000e-06	3.318777e-06	2.273070e-09	2.353728e+01	1.485722e+02
1.050000e-06	3.457618e-06	2.418414e-09	2.452197e+01	1.581199e+02
1.060000e-06	3.595168e-06	2.558115e-09	2.549750e+01	1.671994e+02
1.070000e-06	3.731394e-06	2.692308e-09	2.646363e+01	1.758221e+02
1.080000e-06	3.866143e-06	2.818350e-09	2.741929e+01	1.840062e+02
1.090000e-06	3.999493e-06	2.935257e-09	2.836503e+01	1.917748e+02
1.100000e-06	4.131488e-06	3.043376e-09	2.930116e+01	1.991530e+02
1.110000e-06	4.261972e-06	3.148014e-09	3.022658e+01	2.061663e+02
1.120000e-06	4.390966e-06	3.251485e-09	3.114142e+01	2.128387e+02
1.130000e-06	4.518446e-06	3.349318e-09	3.204553e+01	2.191921e+02
1.140000e-06	4.644386e-06	3.438757e-09	3.293872e+01	2.252459e+02
1.150000e-06	4.768815e-06	3.523697e-09	3.382118e+01	2.310174e+02
1.160000e-06	4.891577e-06	3.606305e-09	3.469183e+01	2.365219e+02
1.170000e-06	5.012515e-06	3.686000e-09	3.554954e+01	2.417737e+02
1.180000e-06	5.131585e-06	3.762183e-09	3.639400e+01	2.467866e+02
1.190000e-06	5.248785e-06	3.835472e-09	3.722520e+01	2.515743e+02
1.200000e-06	5.364002e-06	3.905774e-09	3.804234e+01	2.561508e+02
1.210000e-06	5.477092e-06	3.970747e-09	3.884439e+01	2.605296e+02
1.220000e-06	5.588115e-06	4.033889e-09	3.963178e+01	2.647243e+02
1.230000e-06	5.697230e-06	4.096370e-09	4.040565e+01	2.687471e+02
1.240000e-06	5.804354e-06	4.156582e-09	4.116539e+01	2.726085e+02
1.250000e-06	5.909308e-06	4.213227e-09	4.190974e+01	2.763167e+02
1.260000e-06	6.012043e-06	4.266534e-09	4.263835e+01	2.798770e+02
1.270000e-06	6.112565e-06	4.315581e-09	4.335127e+01	2.832921e+02
1.280000e-06	6.210850e-06	4.359910e-09	4.404832e+01	2.865616e+02
1.290000e-06	6.306751e-06	4.403620e-09	4.472847e+01	2.896835e+02
1.300000e-06	6.400368e-06	4.448038e-09	4.539241e+01	2.926544e+02
1.310000e-06	6.491816e-06	4.489712e-09	4.604098e+01	2.954708e+02
1.320000e-06	6.580871e-06	4.527260e-09	4.667257e+01	2.981301e+02
1.330000e-06	6.667491e-06	4.563513e-09	4.728689e+01	3.006320e+02
1.340000e-06	6.751897e-06	4.599366e-09	4.788551e+01	3.029784e+02
1.350000e-06	6.834023e-06	4.632081e-09	4.846796e+01	3.051747e+02
1.360000e-06	6.913615e-06	4.661810e-09	4.903244e+01	3.072288e+02
1.370000e-06	6.990649e-06	4.689693e-09	4.957878e+01	3.091515e+02
1.380000e-06	7.065022e-06	4.715981e-09	5.010624e+01	3.109549e+02
1.390000e-06	7.136703e-06	4.741901e-09	5.061461e+01	3.126519e+02
1.400000e-06	7.205890e-06	4.767414e-09	5.110530e+01	3.142545e+02
1.410000e-06	7.272489e-06	4.791176e-09	5.157763e+01	3.157732e+02
1.420000e-06	7.336441e-06	4.811925e-09	5.203119e+01	3.172158e+02
1.430000e-06	7.397901e-06	4.831092e-09	5.246707e+01	3.185871e+02
1.440000e-06	7.456889e-06	4.849965e-09	5.288543e+01	3.198885e+02
1.450000e-06	7.513239e-06	4.867250e-09	5.328507e+01	3.211187e+02
1.460000e-06	7.566876e-06	4.883343e-09	5.366547e+01	3.222742e+02
1.470000e-06	7.617466e-06	4.899119e-09	5.402426e+01	3.233501e+02
1.480000e-06	7.664925e-06	4.913521e-09	5.436085e+01	3.243419e+02
1.490000e-06	7.709704e-06	4.927584e-09	5.467843e+01	3.252457e+02
1.500000e-06	7.751729e-06	4.940704e-09	5.497648e+01	3.260599e+02
1.510000e-06	7.790897e-06	4.951732e-09	5.525426e+01	3.267853e+02
1.520000e-06	7.827393e-06	4.961394e-09	5.551310e+01	3.274255e+02
1.530000e-06	7.861125e-06	4.970355e-09	5.575233e+01	3.279866e+02
1.540000e-06	7.891997e-06	4.978929e-09	5.597128e+01	3.284766e+02
1.550000e-06	7.920197e-06	4.987673e-09	5.617128e+01	3.289044e+02
1.560000e-06	7.945583e-06	4.995040e-09	5.635132e+01	3.292788e+02
1.570000e-06	7.967963e-06	5.000766e-09	5.651004e+01	3.296075e+02
1.580000e-06	7.987604e-06	5.006984e-09	5.664934e+01	3.298959e+02
1.590000e-06	8.004468e-06	5.013068e-09	5.676894e+01	3.301466e+02
1.600000e-06	8.018289e-06	5.017550e-09	5.686696e+01	3.303593e+02
1.610000e-06	8.028931e-06	5.020741e-09	5.694243e+01	3.305307e+02
1.620000e-06	8.036422e-06	5.023407e-09	5.699557e+01	3.306551e+02
1.630000e-06	8.041075e-06	5.025212e-09	5.702856e+01	3.307257e+02
1.640000e-06	8.042899e-06	5.026825e-09	5.704150e+01	3.307352e+02
1.650000e-06	8.041886e-06	5.025773e-09	5.703431e+01	3.306773e+02
1.660000e-06	8.038298e-06	5.022866e-09	5.700887e+01	3.305481e+02
1.670000e-06	8.032010e-06	5.019850e-09	5.696427e+01	3.303461e+02
1.680000e-06	8.022971e-06	5.016998e-09	5.690017e+01	3.300737e+02
1.690000e-06	8.011254e-06	5.016249e-09	5.681707e+01	3.297365e+02
1.700000e-06	7.996691e-06	5.016850e-09	5.671378e+01	3.293431e+02
1.710000e-06	7.979516e-06	5.019349e-09	5.659197e+01	3.289047e+02
1.720000e-06	7.960060e-06	5.014378e-09	5.645399e+01	3.284333e+02
1.730000e-06	7.938017e-06	4.987903e-09	5.629766e+01	3.279411e+02
1.740000e-06	7.912731e-06	4.969530e-09	5.611832e+01	3.274389e+02
1.750000e-06	7.883790e-06	4.958516e-09	5.591307e+01	3.269346e+02
1.760000e-06	7.851508e-06	4.955024e-09	5.568413e+01	3.264332e+02
1.770000e-06	7.816655e-06	4.956886e-09	5.543694e+01	3.259352e+02
1.780000e-06	7.779535e-06	4.979008e-09	5.517368e+01	3.254373e+02
1.790000e-06	7.740229e-06	4.938165e-09	5.489491e+01	3.249324e+02
1.800000e-06	7.698803e-06	4.906991e-09	5.460112e+01	3.244103e+02
1.810000e-06	7.654896e-06	4.927308e-09	5.428972e+01	3.238585e+02
1.820000e-06	7.608382e-06	4.884832e-09	5.395984e+01	3.232637e+02
1.830000e-06	7.559073e-06	4.920973e-09	5.361013e+01	3.226127e+02
1.840000e-06	7.506710e-06	4.904419e-09	5.323876e+01	3.218935e+02
1.850000e-06	7.451421e-06	4.896289e-09	5.284665e+01	3.210965e+02
1.860000e-06	7.393343e-06	4.927320e-09	5.243475e+01	3.202146e+02
1.870000e-06	7.332683e-06	4.869433e-09	5.200454e+01	3.192439e+02
1.880000e-06	7.269309e-06	4.858133e-09	5.155507e+01	3.181837e+02
1.890000e-06	7.203101e-06	4.827547e-09	5.108552e+01	3.170357e+02
1.900000e-06	7.134165e-06	4.802562e-09	5.059661e+01	3.158040e+02
1.910000e-06	7.062398e-06	4.792611e-09	5.008764e+01	3.144941e+02
1.920000e-06	6.987930e-06	4.781191e-09	4.955949e+01	3.131122e+02
1.930000e-06	6.910682e-06	4.766015e-09	4.901164e+01	3.116643e+02
1.940000e-06	6.830630e-06	4.715237e-09	4.844390e+01	3.101558e+02
1.950000e-06	6.748122e-06	4.701990e-09	4.785873e+01	3.085906e+02
1.960000e-06	6.663228e-06	4.688491e-09	4.725666e+01	3.069714e+02
1.970000e-06	6.575799e-06	4.669180e-09	4.663660e+01	3.052987e+02
1.980000e-06	6.485888e-06	4.643602e-09	4.599893e+01	3.035718e+02
1.990000e-06	6.393804e-06	4.613558e-09	4.534586e+01	3.017883e+02
2.000000e-06	6.299491e-06	4.590613e-09	4.467698e+01	2.999448e+02
2.010000e-06	6.202835e-06	4.549614e-09	4.399147e+01	2.980372e+02
2.020000e-06	6.103917e-06	4.521213e-09	4.328994e+01	2.960613e+02
2.030000e-06	6.002911e-06	4.502301e-09	4.257359e+01	2.940129e+02
2.040000e-06	5.899788e-06	4.475974e-09	4.184222e+01	2.918883e+02
2.050000e-06	5.794533e-06	4.434885e-09	4.109573e+01	2.896845e+02
2.060000e-06	5.687356e-06	4.397804e-09	4.033562e+01	2.873993e+02
2.070000e-06	5.578236e-06	4.364135e-09	3.956173e+01	2.850313e+02
2.080000e-06	5.467112e-06	4.320431e-09	3.877361e+01	2.825796e+02
2.090000e-06	5.353918e-06	4.280349e-09	3.797082e+01	2.800439e+02
2.100000e-06	5.238676e-06	4.251400e-09	3.715351e+01	2.774240e+02
2.110000e-06	5.121427e-06	4.217781e-09	3.632196e+01	2.747197e+02
2.120000e-06	5.002160e-06	4.172993e-09	3.547610e+01	2.719302e+02
2.130000e-06	4.881009e-06	4.128506e-09	3.461688e+01	2.690542e+02
2.140000e-06	4.758071e-06	4.083248e-09	3.374498e+01	2.660897e+02
2.150000e-06	4.633426e-06	4.031612e-09	3.286098e+01	2.630336e+02
2.160000e-06	4.507130e-06	3.978488e-09	3.196527e+01	2.598821e+02
2.170000e-06	4.379162e-06	3.933738e-09	3.105771e+01	2.566310e+02
2.180000e-06	4.249595e-06	3.891551e-09	3.013879e+01	2.532753e+02
2.190000e-06	4.118465e-06	3.839904e-09	2.920880e+01	2.498101e+02
2.200000e-06	3.985829e-06	3.781348e-09	2.826812e+01	2.462309e+02
2.210000e-06	3.851727e-06	3.722528e-09	2.731705e+01	2.425334e+02
2.220000e-06	3.716092e-06	3.663722e-09	2.635511e+01	2.387143e+02
2.230000e-06	3.579021e-06	3.606064e-09	2.538298e+01	2.347713e+02
2.240000e-06	3.440631e-06	3.549523e-09	2.440149e+01	2.307028e+02
2.250000e-06	3.300980e-06	3.488349e-09	2.341106e+01	2.265081e+02
2.260000e-06	3.160071e-06	3.421701e-09	2.241172e+01	2.221868e+02
2.270000e-06	3.017826e-06	3.349399e-09	2.140289e+01	2.177389e+02
2.280000e-06	2.874332e-06	3.275227e-09	2.038521e+01	2.131636e+02
2.290000e-06	2.729775e-06	3.202401e-09	1.935999e+01	2.084595e+02
2.300000e-06	2.584283e-06	3.131847e-09	1.832814e+01	2.036239e+02
2.310000e-06	2.437961e-06	3.062020e-09	1.729040e+01	1.986525e+02
2.320000e-06	2.290846e-06	2.987271e-09	1.624704e+01	1.935394e+02
2.330000e-06	2.142943e-06	2.906413e-09	1.519809e+01	1.882771e+02
2.340000e-06	1.994347e-06	2.819642e-09	1.414422e+01	1.828568e+02
2.350000e-06	1.845107e-06	2.729545e-09	1.308579e+01	1.772693e+02
2.360000e-06	1.695300e-06	2.638785e-09	1.202333e+01	1.715049e+02
2.370000e-06	1.544975e-06	2.548632e-09	1.095721e+01	1.655543e+02
2.380000e-06	1.394090e-06	2.457964e-09	9.887102e+00	1.594092e+02
2.390000e-06	1.242678e-06	2.363192e-09	8.813270e+00	1.530625e+02
2.400000e-06	1.090850e-06	2.261052e-09	7.736478e+00	1.465085e+02
2.410000e-06	9.386676e-07	2.155966e-09	6.657178e+00	1.397424e+02
2.420000e-06	7.861495e-07	2.049326e-09	5.575496e+00	1.327602e+02
2.430000e-06	6.333561e-07	1.939521e-09	4.491861e+00	1.255575e+02
2.440000e-06	4.803146e-07	1.826142e-09	3.406466e+00	1.181289e+02
2.450000e-06	3.270798e-07	1.711802e-09	2.319701e+00	1.104668e+02
2.460000e-06	1.736856e-07	1.594038e-09	1.231805e+00	1.025608e+02
2.470000e-06	2.018979e-08	1.467484e-09	1.431891e-01	9.439710e+01
2.480000e-06	-1.332533e-07	1.335551e-09	-9.450536e-01	8.595866e+01
2.490000e-06	-2.866411e-07	1.201149e-09	-2.032903e+00	7.722549e+01
2.500000e-06	-4.399761e-07	1.063260e-09	-3.120380e+00	6.817604e+01
2.510000e-06	-5.931946e-07	9.210736e-10	-4.207029e+00	5.878892e+01
2.520000e-06	-7.462206e-07	7.737581e-10	-5.292314e+00	4.904520e+01
2.530000e-06	-8.989886e-07	6.192814e-10	-6.375768e+00	3.893100e+01
2.540000e-06	-1.051486e-06	4.581171e-10	-7.457301e+00	2.844026e+01
2.550000e-06	-1.203611e-06	2.917419e-10	-8.536196e+00	1.757719e+01
2.560000e-06	-1.355241e-06	1.195308e-10	-9.611583e+00	6.358340e+00
2.570000e-06	-1.506340e-06	-5.773399e-11	-1.068320e+01	-5.186056e+00
2.580000e-06	-1.656901e-06	-2.393879e-10	-1.175100e+01	-1.701169e+01
2.590000e-06	-1.806889e-06	-4.234711e-10	-1.281474e+01	-2.906080e+01
2.600000e-06	-1.956190e-06	-6.109815e-10	-1.387360e+01	-4.126383e+01
2.610000e-06	-2.104727e-06	-8.026060e-10	-1.492705e+01	-5.354211e+01
2.620000e-06	-2.252452e-06	-9.946405e-10	-1.597474e+01	-6.581119e+01
2.630000e-06	-2.399261e-06	-1.186471e-09	-1.701593e+01	-7.798480e+01
2.640000e-06	-2.545148e-06	-1.376695e-09	-1.805059e+01	-8.997887e+01
2.650000e-06	-2.690211e-06	-1.560329e-09	-1.907940e+01	-1.017155e+02
2.660000e-06	-2.834273e-06	-1.734251e-09	-2.010110e+01	-1.131261e+02
2.670000e-06	-2.977168e-06	-1.900132e-09	-2.111454e+01	-1.241544e+02
2.680000e-06	-3.118848e-06	-2.059846e-09	-2.211936e+01	-1.347577e+02
2.690000e-06	-3.259197e-06	-2.212769e-09	-2.311474e+01	-1.449078e+02
2.700000e-06	-3.398232e-06	-2.358534e-09	-2.410079e+01	-1.545901e+02
2.710000e-06	-3.536029e-06	-2.498981e-09	-2.507807e+01	-1.638029e+02
2.720000e-06	-3.672578e-06	-2.633875e-09	-2.604650e+01	-1.725548e+02
2.730000e-06	-3.807781e-06	-2.763551e-09	-2.700538e+01	-1.808622e+02
2.740000e-06	-3.941592e-06	-2.889120e-09	-2.795439e+01	-1.887472e+02
2.750000e-06	-4.074000e-06	-3.008409e-09	-2.889344e+01	-1.962346e+02
2.760000e-06	-4.204980e-06	-3.117771e-09	-2.982238e+01	-2.033499e+02
2.770000e-06	-4.334598e-06	-3.218964e-09	-3.074165e+01	-2.101176e+02
2.780000e-06	-4.462777e-06	-3.317065e-09	-3.165071e+01	-2.165603e+02
2.790000e-06	-4.589283e-06	-3.412830e-09	-3.254791e+01	-2.226981e+02
2.800000e-06	-4.714158e-06	-3.503006e-09	-3.343354e+01	-2.285489e+02
2.810000e-06	-4.837405e-06	-3.585576e-09	-3.430763e+01	-2.341284e+02
2.820000e-06	-4.958966e-06	-3.663864e-09	-3.516976e+01	-2.394512e+02
2.830000e-06	-5.078769e-06	-3.740209e-09	-3.601943e+01	-2.445312e+02
2.840000e-06	-5.196593e-06	-3.814710e-09	-3.685505e+01	-2.493821e+02
2.850000e-06	-5.312248e-06	-3.886087e-09	-3.767530e+01	-2.540177e+02
2.860000e-06	-5.425687e-06	-3.953536e-09	-3.847982e+01	-2.584519e+02
2.870000e-06	-5.536882e-06	-4.018598e-09	-3.926843e+01	-2.626981e+02
2.880000e-06	-5.646026e-06	-4.082471e-09	-4.004250e+01	-2.667691e+02
2.890000e-06	-5.753366e-06	-4.146005e-09	-4.080377e+01	-2.706759e+02
2.900000e-06	-5.858789e-06	-4.206966e-09	-4.155145e+01	-2.744274e+02
2.910000e-06	-5.962026e-06	-4.263375e-09	-4.228362e+01	-2.780299e+02
2.920000e-06	-6.062937e-06	-4.316339e-09	-4.299930e+01	-2.814866e+02
2.930000e-06	-6.161659e-06	-4.366765e-09	-4.369945e+01	-2.847981e+02
2.940000e-06	-6.258285e-06	-4.415711e-09	-4.438474e+01	-2.879627e+02
