# Temperatura_=_41.6
# Concentracion g/m^3_=_5000.0
# C_Vs_to_Am_M_A/Vsm_=_65563218390.804596
# pendiente_HvsI_1/m_=_3716.3
# ordenada_HvsI_A/m_=_1297.0
# frecuencia_Hz_=_302509.05754010956

Tiempo_(s)	Campo_(V.s)	Magnetizacion_(V.s)	Campo_(kA/m)	Magnetizacion_(A/m)
0.000000e+00	-7.994204e-06	-5.455221e-09	-5.686247e+01	-3.567855e+02
1.000000e-08	-7.989713e-06	-5.453116e-09	-5.683053e+01	-3.565652e+02
2.000000e-08	-7.982686e-06	-5.448141e-09	-5.678054e+01	-3.562704e+02
3.000000e-08	-7.972919e-06	-5.444739e-09	-5.671107e+01	-3.559110e+02
4.000000e-08	-7.960243e-06	-5.439096e-09	-5.662091e+01	-3.554991e+02
5.000000e-08	-7.944554e-06	-5.428589e-09	-5.650931e+01	-3.550479e+02
6.000000e-08	-7.926183e-06	-5.415099e-09	-5.637864e+01	-3.545697e+02
7.000000e-08	-7.905596e-06	-5.404392e-09	-5.623220e+01	-3.540745e+02
8.000000e-08	-7.882349e-06	-5.452291e-09	-5.606685e+01	-3.535693e+02
9.000000e-08	-7.855860e-06	-5.476617e-09	-5.587844e+01	-3.530570e+02
1.000000e-07	-7.826201e-06	-5.429496e-09	-5.566747e+01	-3.525359e+02
1.100000e-07	-7.793708e-06	-5.395505e-09	-5.543635e+01	-3.520004e+02
1.200000e-07	-7.758471e-06	-5.384501e-09	-5.518571e+01	-3.514416e+02
1.300000e-07	-7.720775e-06	-5.350461e-09	-5.491758e+01	-3.508479e+02
1.400000e-07	-7.681002e-06	-5.284309e-09	-5.463468e+01	-3.502065e+02
1.500000e-07	-7.638962e-06	-5.337098e-09	-5.433565e+01	-3.495049e+02
1.600000e-07	-7.594240e-06	-5.340096e-09	-5.401754e+01	-3.487315e+02
1.700000e-07	-7.546829e-06	-5.245129e-09	-5.368031e+01	-3.478770e+02
1.800000e-07	-7.496539e-06	-5.299422e-09	-5.332260e+01	-3.469348e+02
1.900000e-07	-7.443174e-06	-5.278405e-09	-5.294302e+01	-3.459012e+02
2.000000e-07	-7.387000e-06	-5.236388e-09	-5.254345e+01	-3.447755e+02
2.100000e-07	-7.328159e-06	-5.240733e-09	-5.212492e+01	-3.435598e+02
2.200000e-07	-7.266706e-06	-5.203167e-09	-5.168780e+01	-3.422577e+02
2.300000e-07	-7.202521e-06	-5.196169e-09	-5.123126e+01	-3.408744e+02
2.400000e-07	-7.135503e-06	-5.148064e-09	-5.075457e+01	-3.394158e+02
2.500000e-07	-7.065844e-06	-5.145375e-09	-5.025908e+01	-3.378873e+02
2.600000e-07	-6.993457e-06	-5.128883e-09	-4.974419e+01	-3.362941e+02
2.700000e-07	-6.918245e-06	-5.080257e-09	-4.920922e+01	-3.346400e+02
2.800000e-07	-6.840254e-06	-5.037542e-09	-4.865447e+01	-3.329275e+02
2.900000e-07	-6.759462e-06	-5.025916e-09	-4.807980e+01	-3.311579e+02
3.000000e-07	-6.676256e-06	-5.034890e-09	-4.748796e+01	-3.293310e+02
3.100000e-07	-6.590855e-06	-4.982085e-09	-4.688050e+01	-3.274453e+02
3.200000e-07	-6.503086e-06	-4.955921e-09	-4.625621e+01	-3.254985e+02
3.300000e-07	-6.412930e-06	-4.934654e-09	-4.561493e+01	-3.234873e+02
3.400000e-07	-6.320484e-06	-4.895998e-09	-4.495737e+01	-3.214080e+02
3.500000e-07	-6.225827e-06	-4.858357e-09	-4.428407e+01	-3.192567e+02
3.600000e-07	-6.128861e-06	-4.831912e-09	-4.359436e+01	-3.170294e+02
3.700000e-07	-6.029629e-06	-4.806773e-09	-4.288853e+01	-3.147224e+02
3.800000e-07	-5.928282e-06	-4.752271e-09	-4.216765e+01	-3.123327e+02
3.900000e-07	-5.824841e-06	-4.711576e-09	-4.143188e+01	-3.098575e+02
4.000000e-07	-5.719301e-06	-4.679977e-09	-4.068117e+01	-3.072953e+02
4.100000e-07	-5.611718e-06	-4.646920e-09	-3.991594e+01	-3.046451e+02
4.200000e-07	-5.502227e-06	-4.596072e-09	-3.913713e+01	-3.019068e+02
4.300000e-07	-5.390829e-06	-4.548564e-09	-3.834476e+01	-2.990810e+02
4.400000e-07	-5.277300e-06	-4.508721e-09	-3.753724e+01	-2.961685e+02
4.500000e-07	-5.161620e-06	-4.465098e-09	-3.671441e+01	-2.931704e+02
4.600000e-07	-5.044060e-06	-4.417957e-09	-3.587821e+01	-2.900871e+02
4.700000e-07	-4.924740e-06	-4.373107e-09	-3.502949e+01	-2.869186e+02
4.800000e-07	-4.803601e-06	-4.325248e-09	-3.416783e+01	-2.836635e+02
4.900000e-07	-4.680608e-06	-4.266667e-09	-3.329298e+01	-2.803193e+02
5.000000e-07	-4.555904e-06	-4.212569e-09	-3.240597e+01	-2.768822e+02
5.100000e-07	-4.429646e-06	-4.159741e-09	-3.150791e+01	-2.733468e+02
5.200000e-07	-4.301812e-06	-4.105581e-09	-3.059862e+01	-2.697070e+02
5.300000e-07	-4.172320e-06	-4.039779e-09	-2.967756e+01	-2.659565e+02
5.400000e-07	-4.041187e-06	-3.973331e-09	-2.874481e+01	-2.620886e+02
5.500000e-07	-3.908527e-06	-3.914278e-09	-2.780121e+01	-2.580979e+02
5.600000e-07	-3.774437e-06	-3.858067e-09	-2.684743e+01	-2.539797e+02
5.700000e-07	-3.638993e-06	-3.795140e-09	-2.588402e+01	-2.497315e+02
5.800000e-07	-3.502096e-06	-3.729012e-09	-2.491028e+01	-2.453519e+02
5.900000e-07	-3.363733e-06	-3.662617e-09	-2.392610e+01	-2.408414e+02
6.000000e-07	-3.223969e-06	-3.590643e-09	-2.293197e+01	-2.362014e+02
6.100000e-07	-3.082860e-06	-3.516287e-09	-2.192827e+01	-2.314335e+02
6.200000e-07	-2.940467e-06	-3.440204e-09	-2.091543e+01	-2.265386e+02
6.300000e-07	-2.796775e-06	-3.362564e-09	-1.989335e+01	-2.215161e+02
6.400000e-07	-2.652029e-06	-3.277674e-09	-1.886378e+01	-2.163630e+02
6.500000e-07	-2.506452e-06	-3.192580e-09	-1.782830e+01	-2.110736e+02
6.600000e-07	-2.360066e-06	-3.108340e-09	-1.678706e+01	-2.056388e+02
6.700000e-07	-2.212971e-06	-3.025493e-09	-1.574078e+01	-2.000470e+02
6.800000e-07	-2.065229e-06	-2.943232e-09	-1.468989e+01	-1.942843e+02
6.900000e-07	-1.916838e-06	-2.854197e-09	-1.363440e+01	-1.883359e+02
7.000000e-07	-1.767849e-06	-2.760294e-09	-1.257464e+01	-1.821871e+02
7.100000e-07	-1.618314e-06	-2.659985e-09	-1.151101e+01	-1.758246e+02
7.200000e-07	-1.468283e-06	-2.560785e-09	-1.044384e+01	-1.692378e+02
7.300000e-07	-1.317718e-06	-2.457062e-09	-9.372881e+00	-1.624190e+02
7.400000e-07	-1.166622e-06	-2.344619e-09	-8.298137e+00	-1.553642e+02
7.500000e-07	-1.015089e-06	-2.231560e-09	-7.220293e+00	-1.480717e+02
7.600000e-07	-8.632662e-07	-2.120678e-09	-6.140380e+00	-1.405418e+02
7.700000e-07	-7.111823e-07	-2.004915e-09	-5.058613e+00	-1.327742e+02
7.800000e-07	-5.587940e-07	-1.881833e-09	-3.974681e+00	-1.247666e+02
7.900000e-07	-4.062042e-07	-1.757246e-09	-2.889315e+00	-1.165125e+02
8.000000e-07	-2.534845e-07	-1.627289e-09	-1.803026e+00	-1.079991e+02
8.100000e-07	-1.007088e-07	-1.490821e-09	-7.163378e-01	-9.920666e+01
8.200000e-07	5.213133e-08	-1.349773e-09	3.708082e-01	-9.010809e+01
8.300000e-07	2.050545e-07	-1.203934e-09	1.458545e+00	-8.066990e+01
8.400000e-07	3.579285e-07	-1.050923e-09	2.545932e+00	-7.085450e+01
8.500000e-07	5.106790e-07	-8.927977e-10	3.632441e+00	-6.062341e+01
8.600000e-07	6.632958e-07	-7.298570e-10	4.717998e+00	-4.994149e+01
8.700000e-07	8.157477e-07	-5.605286e-10	5.802382e+00	-3.878160e+01
8.800000e-07	9.679564e-07	-3.830843e-10	6.885037e+00	-2.712936e+01
8.900000e-07	1.119851e-06	-1.990247e-10	7.965459e+00	-1.498730e+01
9.000000e-07	1.271342e-06	-1.104994e-11	9.043009e+00	-2.378119e+00
9.100000e-07	1.422276e-06	1.837223e-10	1.011660e+01	1.065352e+01
9.200000e-07	1.572650e-06	3.850103e-10	1.118620e+01	2.404097e+01
9.300000e-07	1.722497e-06	5.912851e-10	1.225205e+01	3.769738e+01
9.400000e-07	1.871726e-06	8.003558e-10	1.331352e+01	5.151925e+01
9.500000e-07	2.020290e-06	1.012428e-09	1.437025e+01	6.539154e+01
9.600000e-07	2.168196e-06	1.223263e-09	1.542230e+01	7.919377e+01
9.700000e-07	2.315431e-06	1.429187e-09	1.646958e+01	9.280669e+01
9.800000e-07	2.461824e-06	1.632125e-09	1.751086e+01	1.061188e+02
9.900000e-07	2.607249e-06	1.827762e-09	1.854526e+01	1.190320e+02
1.000000e-06	2.751667e-06	2.013164e-09	1.957250e+01	1.314665e+02
1.010000e-06	2.894998e-06	2.189089e-09	2.059201e+01	1.433635e+02
1.020000e-06	3.037228e-06	2.358080e-09	2.160369e+01	1.546863e+02
1.030000e-06	3.178262e-06	2.520473e-09	2.260685e+01	1.654198e+02
1.040000e-06	3.318035e-06	2.673750e-09	2.360106e+01	1.755681e+02
1.050000e-06	3.456468e-06	2.818713e-09	2.458573e+01	1.851508e+02
1.060000e-06	3.593477e-06	2.957581e-09	2.556026e+01	1.941989e+02
1.070000e-06	3.729083e-06	3.091645e-09	2.652483e+01	2.027501e+02
1.080000e-06	3.863338e-06	3.216300e-09	2.747978e+01	2.108445e+02
1.090000e-06	3.996288e-06	3.332480e-09	2.842544e+01	2.185210e+02
1.100000e-06	4.127876e-06	3.442151e-09	2.936143e+01	2.258143e+02
1.110000e-06	4.257990e-06	3.547992e-09	3.028692e+01	2.327542e+02
1.120000e-06	4.386557e-06	3.650481e-09	3.120142e+01	2.393643e+02
1.130000e-06	4.513540e-06	3.747477e-09	3.210464e+01	2.456635e+02
1.140000e-06	4.638963e-06	3.837523e-09	3.299677e+01	2.516667e+02
1.150000e-06	4.762907e-06	3.921883e-09	3.387838e+01	2.573871e+02
1.160000e-06	4.885210e-06	4.002886e-09	3.474832e+01	2.628373e+02
1.170000e-06	5.005679e-06	4.080942e-09	3.560521e+01	2.680309e+02
1.180000e-06	5.124315e-06	4.157005e-09	3.644906e+01	2.729836e+02
1.190000e-06	5.241115e-06	4.229280e-09	3.727985e+01	2.777129e+02
1.200000e-06	5.355850e-06	4.297717e-09	3.809596e+01	2.822377e+02
1.210000e-06	5.468427e-06	4.363286e-09	3.889671e+01	2.865773e+02
1.220000e-06	5.579028e-06	4.428725e-09	3.968342e+01	2.907495e+02
1.230000e-06	5.687713e-06	4.491836e-09	4.045649e+01	2.947699e+02
1.240000e-06	5.794417e-06	4.551356e-09	4.121547e+01	2.986498e+02
1.250000e-06	5.898887e-06	4.608751e-09	4.195856e+01	3.023957e+02
1.260000e-06	6.001129e-06	4.663345e-09	4.268580e+01	3.060091e+02
1.270000e-06	6.101246e-06	4.712841e-09	4.339793e+01	3.094868e+02
1.280000e-06	6.199061e-06	4.758703e-09	4.409368e+01	3.128221e+02
1.290000e-06	6.294504e-06	4.804028e-09	4.477257e+01	3.160064e+02
1.300000e-06	6.387748e-06	4.848804e-09	4.543581e+01	3.190308e+02
1.310000e-06	6.478781e-06	4.890481e-09	4.608332e+01	3.218884e+02
1.320000e-06	6.567396e-06	4.929679e-09	4.671364e+01	3.245756e+02
1.330000e-06	6.653676e-06	4.968039e-09	4.732734e+01	3.270931e+02
1.340000e-06	6.737749e-06	5.004354e-09	4.792535e+01	3.294466e+02
1.350000e-06	6.819457e-06	5.037291e-09	4.850654e+01	3.316463e+02
1.360000e-06	6.898609e-06	5.067972e-09	4.906955e+01	3.337059e+02
1.370000e-06	6.975204e-06	5.097574e-09	4.961436e+01	3.356416e+02
1.380000e-06	7.049148e-06	5.126488e-09	5.014033e+01	3.374698e+02
1.390000e-06	7.120465e-06	5.154636e-09	5.064760e+01	3.392055e+02
1.400000e-06	7.189325e-06	5.182186e-09	5.113740e+01	3.408607e+02
1.410000e-06	7.255627e-06	5.208203e-09	5.160900e+01	3.424437e+02
1.420000e-06	7.319284e-06	5.231356e-09	5.206179e+01	3.439577e+02
1.430000e-06	7.380453e-06	5.251654e-09	5.249688e+01	3.454018e+02
1.440000e-06	7.439122e-06	5.270297e-09	5.291420e+01	3.467716e+02
1.450000e-06	7.495146e-06	5.288050e-09	5.331269e+01	3.480600e+02
1.460000e-06	7.548396e-06	5.304765e-09	5.369145e+01	3.492595e+02
1.470000e-06	7.598530e-06	5.320668e-09	5.404806e+01	3.503633e+02
1.480000e-06	7.645603e-06	5.335951e-09	5.438289e+01	3.513669e+02
1.490000e-06	7.690043e-06	5.352793e-09	5.469898e+01	3.522694e+02
1.500000e-06	7.731839e-06	5.369148e-09	5.499628e+01	3.530734e+02
1.510000e-06	7.770845e-06	5.381645e-09	5.527373e+01	3.537856e+02
1.520000e-06	7.807136e-06	5.389633e-09	5.553186e+01	3.544153e+02
1.530000e-06	7.840582e-06	5.395346e-09	5.576977e+01	3.549740e+02
1.540000e-06	7.871147e-06	5.402625e-09	5.598717e+01	3.554732e+02
1.550000e-06	7.899048e-06	5.411127e-09	5.618563e+01	3.559232e+02
1.560000e-06	7.924082e-06	5.419063e-09	5.636369e+01	3.563319e+02
1.570000e-06	7.946162e-06	5.427151e-09	5.652075e+01	3.567035e+02
1.580000e-06	7.965539e-06	5.435383e-09	5.665858e+01	3.570382e+02
1.590000e-06	7.982046e-06	5.442131e-09	5.677599e+01	3.573322e+02
1.600000e-06	7.995554e-06	5.446746e-09	5.687207e+01	3.575785e+02
1.610000e-06	8.005979e-06	5.450143e-09	5.694623e+01	3.577682e+02
1.620000e-06	8.013298e-06	5.452761e-09	5.699828e+01	3.578918e+02
1.630000e-06	8.017776e-06	5.453737e-09	5.703014e+01	3.579407e+02
1.640000e-06	8.019374e-06	5.454941e-09	5.704150e+01	3.579086e+02
1.650000e-06	8.018142e-06	5.451522e-09	5.703274e+01	3.577928e+02
1.660000e-06	8.014396e-06	5.447104e-09	5.700610e+01	3.575948e+02
1.670000e-06	8.007983e-06	5.446262e-09	5.696048e+01	3.573200e+02
1.680000e-06	7.998853e-06	5.443248e-09	5.689554e+01	3.569774e+02
1.690000e-06	7.987084e-06	5.440135e-09	5.681182e+01	3.565788e+02
1.700000e-06	7.972446e-06	5.440102e-09	5.670771e+01	3.561372e+02
1.710000e-06	7.955176e-06	5.442682e-09	5.658487e+01	3.556651e+02
1.720000e-06	7.935653e-06	5.424965e-09	5.644600e+01	3.551735e+02
1.730000e-06	7.913573e-06	5.334335e-09	5.628895e+01	3.546703e+02
1.740000e-06	7.888218e-06	5.321891e-09	5.610859e+01	3.541595e+02
1.750000e-06	7.859162e-06	5.355641e-09	5.590192e+01	3.536409e+02
1.760000e-06	7.826791e-06	5.343030e-09	5.567167e+01	3.531099e+02
1.770000e-06	7.791926e-06	5.345322e-09	5.542368e+01	3.525585e+02
1.780000e-06	7.754828e-06	5.423419e-09	5.515980e+01	3.519756e+02
1.790000e-06	7.715534e-06	5.382436e-09	5.488030e+01	3.513487e+02
1.800000e-06	7.674124e-06	5.312658e-09	5.458575e+01	3.506651e+02
1.810000e-06	7.630195e-06	5.382245e-09	5.427329e+01	3.499129e+02
1.820000e-06	7.583618e-06	5.299155e-09	5.394199e+01	3.490820e+02
1.830000e-06	7.534315e-06	5.328234e-09	5.359130e+01	3.481649e+02
1.840000e-06	7.482035e-06	5.314215e-09	5.321943e+01	3.471572e+02
1.850000e-06	7.426827e-06	5.253223e-09	5.282674e+01	3.460574e+02
1.860000e-06	7.368820e-06	5.295802e-09	5.241414e+01	3.448666e+02
1.870000e-06	7.308266e-06	5.197762e-09	5.198342e+01	3.435883e+02
1.880000e-06	7.244925e-06	5.238088e-09	5.153288e+01	3.422273e+02
1.890000e-06	7.178703e-06	5.220284e-09	5.106184e+01	3.407892e+02
1.900000e-06	7.109778e-06	5.149527e-09	5.057158e+01	3.392797e+02
1.910000e-06	7.038022e-06	5.167813e-09	5.006118e+01	3.377042e+02
1.920000e-06	6.963584e-06	5.127011e-09	4.953171e+01	3.360667e+02
1.930000e-06	6.886380e-06	5.133313e-09	4.898256e+01	3.343703e+02
1.940000e-06	6.806429e-06	5.065119e-09	4.841387e+01	3.326166e+02
1.950000e-06	6.724023e-06	5.050632e-09	4.782772e+01	3.308057e+02
1.960000e-06	6.639189e-06	5.029628e-09	4.722430e+01	3.289366e+02
1.970000e-06	6.551841e-06	4.966077e-09	4.660299e+01	3.270072e+02
1.980000e-06	6.462062e-06	4.965246e-09	4.596440e+01	3.250143e+02
1.990000e-06	6.370161e-06	4.933789e-09	4.531072e+01	3.229545e+02
2.000000e-06	6.275984e-06	4.907093e-09	4.464084e+01	3.208237e+02
2.010000e-06	6.179457e-06	4.842357e-09	4.395425e+01	3.186181e+02
2.020000e-06	6.080771e-06	4.816343e-09	4.325229e+01	3.163339e+02
2.030000e-06	5.979952e-06	4.788680e-09	4.253517e+01	3.139676e+02
2.040000e-06	5.876952e-06	4.754340e-09	4.180253e+01	3.115167e+02
2.050000e-06	5.771830e-06	4.719412e-09	4.105481e+01	3.089790e+02
2.060000e-06	5.664820e-06	4.674830e-09	4.029365e+01	3.063536e+02
2.070000e-06	5.555874e-06	4.633975e-09	3.951872e+01	3.036401e+02
2.080000e-06	5.444881e-06	4.577057e-09	3.872923e+01	3.008388e+02
2.090000e-06	5.331835e-06	4.545487e-09	3.792514e+01	2.979506e+02
2.100000e-06	5.216793e-06	4.507430e-09	3.710685e+01	2.949764e+02
2.110000e-06	5.099733e-06	4.463648e-09	3.627420e+01	2.919170e+02
2.120000e-06	4.980618e-06	4.404601e-09	3.542695e+01	2.887725e+02
2.130000e-06	4.859634e-06	4.355145e-09	3.456639e+01	2.855420e+02
2.140000e-06	4.736961e-06	4.308007e-09	3.369382e+01	2.822232e+02
2.150000e-06	4.612590e-06	4.260992e-09	3.280918e+01	2.788126e+02
2.160000e-06	4.486433e-06	4.208735e-09	3.191183e+01	2.753055e+02
2.170000e-06	4.358629e-06	4.152513e-09	3.100277e+01	2.716958e+02
2.180000e-06	4.229288e-06	4.096760e-09	3.008276e+01	2.679772e+02
2.190000e-06	4.098456e-06	4.036834e-09	2.915216e+01	2.641431e+02
2.200000e-06	3.966173e-06	3.979821e-09	2.821124e+01	2.601875e+02
2.210000e-06	3.832359e-06	3.918149e-09	2.725942e+01	2.561057e+02
2.220000e-06	3.696999e-06	3.853772e-09	2.629661e+01	2.518944e+02
2.230000e-06	3.560264e-06	3.782102e-09	2.532402e+01	2.475520e+02
2.240000e-06	3.422239e-06	3.716139e-09	2.434226e+01	2.430784e+02
2.250000e-06	3.282924e-06	3.650289e-09	2.335131e+01	2.384749e+02
2.260000e-06	3.142294e-06	3.581807e-09	2.235102e+01	2.337429e+02
2.270000e-06	3.000295e-06	3.505327e-09	2.134098e+01	2.288838e+02
2.280000e-06	2.857049e-06	3.427539e-09	2.032208e+01	2.238976e+02
2.290000e-06	2.712785e-06	3.351134e-09	1.929594e+01	2.187819e+02
2.300000e-06	2.567652e-06	3.274611e-09	1.826361e+01	2.135318e+02
2.310000e-06	2.421714e-06	3.197932e-09	1.722556e+01	2.081392e+02
2.320000e-06	2.275030e-06	3.114913e-09	1.618220e+01	2.025932e+02
2.330000e-06	2.127572e-06	3.023391e-09	1.513334e+01	1.968804e+02
2.340000e-06	1.979368e-06	2.925122e-09	1.407917e+01	1.909862e+02
2.350000e-06	1.830506e-06	2.828791e-09	1.302032e+01	1.848957e+02
2.360000e-06	1.681069e-06	2.735312e-09	1.195738e+01	1.785950e+02
2.370000e-06	1.531055e-06	2.638960e-09	1.089033e+01	1.720728e+02
2.380000e-06	1.380464e-06	2.537939e-09	9.819186e+00	1.653205e+02
2.390000e-06	1.229362e-06	2.431334e-09	8.744408e+00	1.583329e+02
2.400000e-06	1.077842e-06	2.320327e-09	7.666646e+00	1.511080e+02
2.410000e-06	9.260126e-07	2.208830e-09	6.586692e+00	1.436455e+02
2.420000e-06	7.739316e-07	2.094073e-09	5.504946e+00	1.359454e+02
2.430000e-06	6.215697e-07	1.973858e-09	4.421202e+00	1.280065e+02
2.440000e-06	4.689233e-07	1.846625e-09	3.335434e+00	1.198234e+02
2.450000e-06	3.160914e-07	1.717585e-09	2.248346e+00	1.113854e+02
2.460000e-06	1.631251e-07	1.586152e-09	1.160303e+00	1.026747e+02
2.470000e-06	1.009032e-08	1.447777e-09	7.177206e-02	9.366636e+01
2.480000e-06	-1.429621e-07	1.303652e-09	-1.016884e+00	8.432851e+01
2.490000e-06	-2.959472e-07	1.154951e-09	-2.105061e+00	7.462444e+01
2.500000e-06	-4.488362e-07	1.000685e-09	-3.192555e+00	6.451552e+01
2.510000e-06	-6.016232e-07	8.402679e-10	-4.279323e+00	5.396521e+01
2.520000e-06	-7.542469e-07	6.749096e-10	-5.364930e+00	4.294359e+01
2.530000e-06	-9.066661e-07	5.003042e-10	-6.449082e+00	3.143217e+01
2.540000e-06	-1.058711e-06	3.156268e-10	-7.530568e+00	1.942826e+01
2.550000e-06	-1.210339e-06	1.234666e-10	-8.609092e+00	6.948551e+00
2.560000e-06	-1.361584e-06	-7.304350e-11	-9.684894e+00	-5.968650e+00
2.570000e-06	-1.512341e-06	-2.745157e-10	-1.075723e+01	-1.926288e+01
2.580000e-06	-1.662460e-06	-4.835520e-10	-1.182502e+01	-3.285277e+01
2.590000e-06	-1.811886e-06	-6.973102e-10	-1.288787e+01	-4.663911e+01
2.600000e-06	-1.960692e-06	-9.125423e-10	-1.394633e+01	-6.050959e+01
2.610000e-06	-2.108766e-06	-1.127389e-09	-1.499957e+01	-7.434459e+01
2.620000e-06	-2.255960e-06	-1.341501e-09	-1.604656e+01	-8.802384e+01
2.630000e-06	-2.402291e-06	-1.551521e-09	-1.708741e+01	-1.014330e+02
2.640000e-06	-2.547730e-06	-1.754821e-09	-1.812190e+01	-1.144696e+02
2.650000e-06	-2.692298e-06	-1.949029e-09	-1.915022e+01	-1.270482e+02
2.660000e-06	-2.835901e-06	-2.131318e-09	-2.017166e+01	-1.391039e+02
2.670000e-06	-2.978331e-06	-2.301392e-09	-2.118475e+01	-1.505937e+02
2.680000e-06	-3.119526e-06	-2.462229e-09	-2.218907e+01	-1.614963e+02
2.690000e-06	-3.259408e-06	-2.617213e-09	-2.318404e+01	-1.718108e+02
2.700000e-06	-3.397979e-06	-2.767283e-09	-2.416969e+01	-1.815527e+02
2.710000e-06	-3.535314e-06	-2.911236e-09	-2.514656e+01	-1.907503e+02
2.720000e-06	-3.671436e-06	-3.048548e-09	-2.611479e+01	-1.994399e+02
2.730000e-06	-3.806224e-06	-3.180222e-09	-2.707353e+01	-2.076612e+02
2.740000e-06	-3.939563e-06	-3.303305e-09	-2.802197e+01	-2.154537e+02
2.750000e-06	-4.071503e-06	-3.416773e-09	-2.896045e+01	-2.228536e+02
2.760000e-06	-4.202051e-06	-3.519951e-09	-2.988903e+01	-2.298922e+02
2.770000e-06	-4.331252e-06	-3.616129e-09	-3.080803e+01	-2.365948e+02
2.780000e-06	-4.458966e-06	-3.710810e-09	-3.171645e+01	-2.429816e+02
2.790000e-06	-4.585053e-06	-3.803907e-09	-3.261331e+01	-2.490684e+02
2.800000e-06	-4.709514e-06	-3.893519e-09	-3.349859e+01	-2.548687e+02
2.810000e-06	-4.832338e-06	-3.977924e-09	-3.437223e+01	-2.603952e+02
2.820000e-06	-4.953487e-06	-4.059334e-09	-3.523397e+01	-2.656610e+02
2.830000e-06	-5.072750e-06	-4.135988e-09	-3.608228e+01	-2.706813e+02
2.840000e-06	-5.189915e-06	-4.208167e-09	-3.691567e+01	-2.754729e+02
2.850000e-06	-5.304985e-06	-4.277936e-09	-3.773416e+01	-2.800546e+02
2.860000e-06	-5.417903e-06	-4.344361e-09	-3.853734e+01	-2.844455e+02
2.870000e-06	-5.528630e-06	-4.408343e-09	-3.932494e+01	-2.886643e+02
2.880000e-06	-5.637371e-06	-4.470372e-09	-4.009840e+01	-2.927271e+02
2.890000e-06	-5.744306e-06	-4.532946e-09	-4.085903e+01	-2.966467e+02
2.900000e-06	-5.849312e-06	-4.594094e-09	-4.160593e+01	-3.004309e+02
2.910000e-06	-5.952117e-06	-4.650648e-09	-4.233718e+01	-3.040827e+02
2.920000e-06	-6.052648e-06	-4.704465e-09	-4.305226e+01	-3.076002e+02
2.930000e-06	-6.151027e-06	-4.756731e-09	-4.375202e+01	-3.109774e+02
2.940000e-06	-6.247269e-06	-4.807434e-09	-4.443659e+01	-3.142061e+02
