# Temperatura_=_33.14
# Concentracion g/m^3_=_5000.0
# C_Vs_to_Am_M_A/Vsm_=_65563218390.804596
# pendiente_HvsI_1/m_=_3716.3
# ordenada_HvsI_A/m_=_1297.0
# frecuencia_Hz_=_302516.79536923073

Tiempo_(s)	Campo_(V.s)	Magnetizacion_(V.s)	Campo_(kA/m)	Magnetizacion_(A/m)
0.000000e+00	-8.038514e-06	-5.542474e-09	-5.685977e+01	-3.626716e+02
1.000000e-08	-8.034421e-06	-5.542747e-09	-5.683082e+01	-3.624314e+02
2.000000e-08	-8.027788e-06	-5.537526e-09	-5.678390e+01	-3.621261e+02
3.000000e-08	-8.018392e-06	-5.530377e-09	-5.671744e+01	-3.617706e+02
4.000000e-08	-8.006080e-06	-5.522831e-09	-5.663035e+01	-3.613811e+02
5.000000e-08	-7.990800e-06	-5.517286e-09	-5.652227e+01	-3.609733e+02
6.000000e-08	-7.972789e-06	-5.514618e-09	-5.639487e+01	-3.605607e+02
7.000000e-08	-7.952521e-06	-5.516347e-09	-5.625150e+01	-3.601525e+02
8.000000e-08	-7.929711e-06	-5.524974e-09	-5.609016e+01	-3.597529e+02
9.000000e-08	-7.903700e-06	-5.544714e-09	-5.590617e+01	-3.593603e+02
1.000000e-07	-7.874420e-06	-5.531161e-09	-5.569906e+01	-3.589677e+02
1.100000e-07	-7.842254e-06	-5.500524e-09	-5.547154e+01	-3.585634e+02
1.200000e-07	-7.807294e-06	-5.474892e-09	-5.522425e+01	-3.581326e+02
1.300000e-07	-7.769770e-06	-5.448676e-09	-5.495883e+01	-3.576591e+02
1.400000e-07	-7.730168e-06	-5.421743e-09	-5.467870e+01	-3.571269e+02
1.500000e-07	-7.688391e-06	-5.411746e-09	-5.438320e+01	-3.565219e+02
1.600000e-07	-7.643909e-06	-5.445261e-09	-5.406856e+01	-3.558335e+02
1.700000e-07	-7.596673e-06	-5.406725e-09	-5.373444e+01	-3.550551e+02
1.800000e-07	-7.546571e-06	-5.400342e-09	-5.338005e+01	-3.541840e+02
1.900000e-07	-7.493355e-06	-5.400364e-09	-5.300363e+01	-3.532219e+02
2.000000e-07	-7.437336e-06	-5.337953e-09	-5.260739e+01	-3.521733e+02
2.100000e-07	-7.378665e-06	-5.318369e-09	-5.219238e+01	-3.510447e+02
2.200000e-07	-7.317324e-06	-5.284603e-09	-5.175849e+01	-3.498433e+02
2.300000e-07	-7.253338e-06	-5.268068e-09	-5.130589e+01	-3.485759e+02
2.400000e-07	-7.186513e-06	-5.262209e-09	-5.083321e+01	-3.472479e+02
2.500000e-07	-7.116936e-06	-5.256269e-09	-5.034106e+01	-3.458626e+02
2.600000e-07	-7.044614e-06	-5.254841e-09	-4.982950e+01	-3.444210e+02
2.700000e-07	-6.969472e-06	-5.221745e-09	-4.929799e+01	-3.429219e+02
2.800000e-07	-6.891542e-06	-5.190768e-09	-4.874676e+01	-3.413625e+02
2.900000e-07	-6.810849e-06	-5.167693e-09	-4.817598e+01	-3.397391e+02
3.000000e-07	-6.727705e-06	-5.148478e-09	-4.758787e+01	-3.380476e+02
3.100000e-07	-6.642336e-06	-5.113471e-09	-4.698402e+01	-3.362844e+02
3.200000e-07	-6.554598e-06	-5.073690e-09	-4.636341e+01	-3.344466e+02
3.300000e-07	-6.464422e-06	-5.059817e-09	-4.572556e+01	-3.325329e+02
3.400000e-07	-6.371955e-06	-5.028064e-09	-4.507150e+01	-3.305429e+02
3.500000e-07	-6.277270e-06	-4.992360e-09	-4.440176e+01	-3.284775e+02
3.600000e-07	-6.180236e-06	-4.961390e-09	-4.371539e+01	-3.263379e+02
3.700000e-07	-6.080853e-06	-4.930997e-09	-4.301241e+01	-3.241256e+02
3.800000e-07	-5.979315e-06	-4.893240e-09	-4.229419e+01	-3.218417e+02
3.900000e-07	-5.875614e-06	-4.859876e-09	-4.156067e+01	-3.194866e+02
4.000000e-07	-5.769829e-06	-4.834912e-09	-4.081241e+01	-3.170596e+02
4.100000e-07	-5.662047e-06	-4.789590e-09	-4.005003e+01	-3.145589e+02
4.200000e-07	-5.552287e-06	-4.740209e-09	-3.927365e+01	-3.119817e+02
4.300000e-07	-5.440532e-06	-4.699501e-09	-3.848316e+01	-3.093246e+02
4.400000e-07	-5.326637e-06	-4.667927e-09	-3.767753e+01	-3.065835e+02
4.500000e-07	-5.210675e-06	-4.625600e-09	-3.685728e+01	-3.037542e+02
4.600000e-07	-5.092829e-06	-4.579866e-09	-3.602371e+01	-3.008327e+02
4.700000e-07	-4.973134e-06	-4.537599e-09	-3.517705e+01	-2.978151e+02
4.800000e-07	-4.851598e-06	-4.486088e-09	-3.431738e+01	-2.946977e+02
4.900000e-07	-4.728261e-06	-4.427955e-09	-3.344496e+01	-2.914770e+02
5.000000e-07	-4.603219e-06	-4.375709e-09	-3.256049e+01	-2.881496e+02
5.100000e-07	-4.476620e-06	-4.329934e-09	-3.166500e+01	-2.847121e+02
5.200000e-07	-4.348322e-06	-4.274922e-09	-3.075750e+01	-2.811606e+02
5.300000e-07	-4.218355e-06	-4.216972e-09	-2.983819e+01	-2.774912e+02
5.400000e-07	-4.086903e-06	-4.163427e-09	-2.890837e+01	-2.737000e+02
5.500000e-07	-3.953896e-06	-4.109216e-09	-2.796756e+01	-2.697830e+02
5.600000e-07	-3.819441e-06	-4.045205e-09	-2.701650e+01	-2.657367e+02
5.700000e-07	-3.683491e-06	-3.974276e-09	-2.605487e+01	-2.615583e+02
5.800000e-07	-3.546019e-06	-3.904314e-09	-2.508247e+01	-2.572458e+02
5.900000e-07	-3.407213e-06	-3.833451e-09	-2.410064e+01	-2.527981e+02
6.000000e-07	-3.266961e-06	-3.763368e-09	-2.310858e+01	-2.482150e+02
6.100000e-07	-3.125157e-06	-3.693986e-09	-2.210554e+01	-2.434965e+02
6.200000e-07	-2.982032e-06	-3.623276e-09	-2.109316e+01	-2.386428e+02
6.300000e-07	-2.837839e-06	-3.548914e-09	-2.007322e+01	-2.336529e+02
6.400000e-07	-2.692642e-06	-3.471330e-09	-1.904618e+01	-2.285242e+02
6.500000e-07	-2.546532e-06	-3.393498e-09	-1.801269e+01	-2.232519e+02
6.600000e-07	-2.399640e-06	-3.312319e-09	-1.697366e+01	-2.178285e+02
6.700000e-07	-2.252049e-06	-3.226838e-09	-1.592969e+01	-2.122437e+02
6.800000e-07	-2.103715e-06	-3.137966e-09	-1.488046e+01	-2.064845e+02
6.900000e-07	-1.954630e-06	-3.043585e-09	-1.382592e+01	-2.005362e+02
7.000000e-07	-1.804961e-06	-2.946638e-09	-1.276724e+01	-1.943833e+02
7.100000e-07	-1.654790e-06	-2.848530e-09	-1.170502e+01	-1.880105e+02
7.200000e-07	-1.504071e-06	-2.748512e-09	-1.063892e+01	-1.814042e+02
7.300000e-07	-1.352757e-06	-2.644640e-09	-9.568616e+00	-1.745534e+02
7.400000e-07	-1.200831e-06	-2.536692e-09	-8.493980e+00	-1.674505e+02
7.500000e-07	-1.048373e-06	-2.428791e-09	-7.415582e+00	-1.600910e+02
7.600000e-07	-8.955922e-07	-2.319490e-09	-6.334898e+00	-1.524734e+02
7.700000e-07	-7.425590e-07	-2.202733e-09	-5.252430e+00	-1.445977e+02
7.800000e-07	-5.892318e-07	-2.078100e-09	-4.167883e+00	-1.364638e+02
7.900000e-07	-4.356645e-07	-1.948006e-09	-3.081637e+00	-1.280694e+02
8.000000e-07	-2.819433e-07	-1.813270e-09	-1.994303e+00	-1.194083e+02
8.100000e-07	-1.281329e-07	-1.672458e-09	-9.063378e-01	-1.104680e+02
8.200000e-07	2.575547e-08	-1.527866e-09	1.821792e-01	-1.012295e+02
8.300000e-07	1.796948e-07	-1.379871e-09	1.271056e+00	-9.166673e+01
8.400000e-07	3.335809e-07	-1.226500e-09	2.359557e+00	-8.174795e+01
8.500000e-07	4.873453e-07	-1.068663e-09	3.447197e+00	-7.143779e+01
8.600000e-07	6.409698e-07	-9.062836e-10	4.533847e+00	-6.070087e+01
8.700000e-07	7.944545e-07	-7.381210e-10	5.619508e+00	-4.950592e+01
8.800000e-07	9.477151e-07	-5.605440e-10	6.703585e+00	-3.783049e+01
8.900000e-07	1.100661e-06	-3.749027e-10	7.785432e+00	-2.566555e+01
9.000000e-07	1.253298e-06	-1.840323e-10	8.865103e+00	-1.301948e+01
9.100000e-07	1.405481e-06	1.104726e-11	9.941552e+00	7.896416e-02
9.200000e-07	1.556999e-06	2.124446e-10	1.101330e+01	1.357933e+01
9.300000e-07	1.707761e-06	4.208670e-10	1.207971e+01	2.740977e+01
9.400000e-07	1.857868e-06	6.346757e-10	1.314148e+01	4.147930e+01
9.500000e-07	2.007403e-06	8.518563e-10	1.419920e+01	5.568173e+01
9.600000e-07	2.156234e-06	1.068437e-09	1.525194e+01	6.990105e+01
9.700000e-07	2.304243e-06	1.284690e-09	1.629887e+01	8.401762e+01
9.800000e-07	2.451328e-06	1.498640e-09	1.733926e+01	9.791483e+01
9.900000e-07	2.597578e-06	1.706705e-09	1.837375e+01	1.114853e+02
1.000000e-06	2.743007e-06	1.904250e-09	1.940244e+01	1.246365e+02
1.010000e-06	2.887342e-06	2.090909e-09	2.042338e+01	1.372944e+02
1.020000e-06	3.030522e-06	2.270096e-09	2.143615e+01	1.494061e+02
1.030000e-06	3.172550e-06	2.442733e-09	2.244077e+01	1.609402e+02
1.040000e-06	3.313333e-06	2.609235e-09	2.343659e+01	1.718854e+02
1.050000e-06	3.452762e-06	2.767379e-09	2.442283e+01	1.822483e+02
1.060000e-06	3.590833e-06	2.918840e-09	2.539946e+01	1.920488e+02
1.070000e-06	3.727468e-06	3.063312e-09	2.636594e+01	2.013164e+02
1.080000e-06	3.862585e-06	3.199765e-09	2.732168e+01	2.100856e+02
1.090000e-06	3.996365e-06	3.327240e-09	2.826796e+01	2.183921e+02
1.100000e-06	4.128815e-06	3.445333e-09	2.920483e+01	2.262695e+02
1.110000e-06	4.259771e-06	3.556817e-09	3.013114e+01	2.337478e+02
1.120000e-06	4.389240e-06	3.664524e-09	3.104693e+01	2.408520e+02
1.130000e-06	4.517139e-06	3.767835e-09	3.195161e+01	2.476030e+02
1.140000e-06	4.643443e-06	3.863859e-09	3.284501e+01	2.540179e+02
1.150000e-06	4.768259e-06	3.954858e-09	3.372788e+01	2.601122e+02
1.160000e-06	4.891446e-06	4.043102e-09	3.459924e+01	2.659009e+02
1.170000e-06	5.012928e-06	4.127524e-09	3.545853e+01	2.714002e+02
1.180000e-06	5.132557e-06	4.207223e-09	3.630472e+01	2.766284e+02
1.190000e-06	5.250304e-06	4.282485e-09	3.713760e+01	2.816056e+02
1.200000e-06	5.366141e-06	4.353829e-09	3.795696e+01	2.863537e+02
1.210000e-06	5.479847e-06	4.422023e-09	3.876125e+01	2.908951e+02
1.220000e-06	5.591407e-06	4.488213e-09	3.955036e+01	2.952512e+02
1.230000e-06	5.700958e-06	4.552898e-09	4.032526e+01	2.994403e+02
1.240000e-06	5.808563e-06	4.615312e-09	4.108639e+01	3.034768e+02
1.250000e-06	5.914034e-06	4.674844e-09	4.183243e+01	3.073698e+02
1.260000e-06	6.017279e-06	4.731435e-09	4.256273e+01	3.111225e+02
1.270000e-06	6.118370e-06	4.784733e-09	4.327779e+01	3.147328e+02
1.280000e-06	6.217257e-06	4.835926e-09	4.397725e+01	3.181944e+02
1.290000e-06	6.313761e-06	4.884441e-09	4.465987e+01	3.214983e+02
1.300000e-06	6.407933e-06	4.929153e-09	4.532598e+01	3.246349e+02
1.310000e-06	6.499860e-06	4.970512e-09	4.597623e+01	3.275959e+02
1.320000e-06	6.589394e-06	5.009946e-09	4.660954e+01	3.303765e+02
1.330000e-06	6.676526e-06	5.050029e-09	4.722586e+01	3.329762e+02
1.340000e-06	6.761375e-06	5.089051e-09	4.782603e+01	3.353999e+02
1.350000e-06	6.843881e-06	5.123692e-09	4.840963e+01	3.376575e+02
1.360000e-06	6.923887e-06	5.154432e-09	4.897555e+01	3.397630e+02
1.370000e-06	7.001308e-06	5.183951e-09	4.952317e+01	3.417331e+02
1.380000e-06	7.076108e-06	5.213003e-09	5.005227e+01	3.435853e+02
1.390000e-06	7.148261e-06	5.241614e-09	5.056263e+01	3.453359e+02
1.400000e-06	7.217860e-06	5.269064e-09	5.105494e+01	3.469984e+02
1.410000e-06	7.284901e-06	5.294155e-09	5.152915e+01	3.485821e+02
1.420000e-06	7.349287e-06	5.317195e-09	5.198457e+01	3.500917e+02
1.430000e-06	7.411171e-06	5.339238e-09	5.242231e+01	3.515270e+02
1.440000e-06	7.470591e-06	5.360234e-09	5.284261e+01	3.528844e+02
1.450000e-06	7.527375e-06	5.378404e-09	5.324427e+01	3.541575e+02
1.460000e-06	7.581408e-06	5.395319e-09	5.362646e+01	3.553392e+02
1.470000e-06	7.632368e-06	5.412280e-09	5.398693e+01	3.564236e+02
1.480000e-06	7.680223e-06	5.428340e-09	5.432543e+01	3.574071e+02
1.490000e-06	7.725355e-06	5.443750e-09	5.464466e+01	3.582897e+02
1.500000e-06	7.767799e-06	5.457409e-09	5.494489e+01	3.590756e+02
1.510000e-06	7.807414e-06	5.468828e-09	5.522510e+01	3.597725e+02
1.520000e-06	7.844309e-06	5.479079e-09	5.548607e+01	3.603911e+02
1.530000e-06	7.878480e-06	5.488212e-09	5.572778e+01	3.609434e+02
1.540000e-06	7.909774e-06	5.497517e-09	5.594913e+01	3.614413e+02
1.550000e-06	7.938344e-06	5.507639e-09	5.615123e+01	3.618947e+02
1.560000e-06	7.964074e-06	5.515985e-09	5.633322e+01	3.623104e+02
1.570000e-06	7.986790e-06	5.521783e-09	5.649390e+01	3.626907e+02
1.580000e-06	8.006792e-06	5.527348e-09	5.663538e+01	3.630336e+02
1.590000e-06	8.024005e-06	5.533207e-09	5.675714e+01	3.633329e+02
1.600000e-06	8.038163e-06	5.537807e-09	5.685728e+01	3.635797e+02
1.610000e-06	8.049171e-06	5.541457e-09	5.693515e+01	3.637633e+02
1.620000e-06	8.057045e-06	5.543738e-09	5.699084e+01	3.638737e+02
1.630000e-06	8.062061e-06	5.544496e-09	5.702633e+01	3.639030e+02
1.640000e-06	8.064206e-06	5.544024e-09	5.704150e+01	3.638470e+02
1.650000e-06	8.063470e-06	5.542917e-09	5.703629e+01	3.637062e+02
1.660000e-06	8.060147e-06	5.538442e-09	5.701279e+01	3.634864e+02
1.670000e-06	8.054138e-06	5.534613e-09	5.697028e+01	3.631979e+02
1.680000e-06	8.045383e-06	5.530553e-09	5.690836e+01	3.628546e+02
1.690000e-06	8.033934e-06	5.527081e-09	5.682737e+01	3.624726e+02
1.700000e-06	8.019597e-06	5.524006e-09	5.672596e+01	3.620681e+02
1.710000e-06	8.002625e-06	5.517030e-09	5.660591e+01	3.616552e+02
1.720000e-06	7.983416e-06	5.501444e-09	5.647004e+01	3.612447e+02
1.730000e-06	7.961684e-06	5.459956e-09	5.631632e+01	3.608420e+02
1.740000e-06	7.936712e-06	5.431380e-09	5.613968e+01	3.604475e+02
1.750000e-06	7.908077e-06	5.446985e-09	5.593713e+01	3.600554e+02
1.760000e-06	7.876016e-06	5.456787e-09	5.571035e+01	3.596554e+02
1.770000e-06	7.841311e-06	5.460084e-09	5.546487e+01	3.592333e+02
1.780000e-06	7.804383e-06	5.480482e-09	5.520366e+01	3.587732e+02
1.790000e-06	7.765254e-06	5.488598e-09	5.492689e+01	3.582588e+02
1.800000e-06	7.724001e-06	5.444762e-09	5.463509e+01	3.576754e+02
1.810000e-06	7.680251e-06	5.461535e-09	5.432563e+01	3.570113e+02
1.820000e-06	7.633836e-06	5.456446e-09	5.399731e+01	3.562585e+02
1.830000e-06	7.584690e-06	5.417218e-09	5.364968e+01	3.554135e+02
1.840000e-06	7.532490e-06	5.425889e-09	5.328045e+01	3.544766e+02
1.850000e-06	7.477416e-06	5.392167e-09	5.289089e+01	3.534516e+02
1.860000e-06	7.419572e-06	5.415890e-09	5.248173e+01	3.523446e+02
1.870000e-06	7.359085e-06	5.396375e-09	5.205388e+01	3.511628e+02
1.880000e-06	7.295891e-06	5.358623e-09	5.160689e+01	3.499132e+02
1.890000e-06	7.229763e-06	5.340249e-09	5.113913e+01	3.486016e+02
1.900000e-06	7.160871e-06	5.268140e-09	5.065183e+01	3.472320e+02
1.910000e-06	7.089137e-06	5.275930e-09	5.014443e+01	3.458060e+02
1.920000e-06	7.014669e-06	5.261940e-09	4.961768e+01	3.443231e+02
1.930000e-06	6.937472e-06	5.250858e-09	4.907163e+01	3.427809e+02
1.940000e-06	6.857518e-06	5.230868e-09	4.850609e+01	3.411757e+02
1.950000e-06	6.775105e-06	5.184721e-09	4.792315e+01	3.395036e+02
1.960000e-06	6.690217e-06	5.176396e-09	4.732270e+01	3.377607e+02
1.970000e-06	6.602784e-06	5.120172e-09	4.670425e+01	3.359439e+02
1.980000e-06	6.512924e-06	5.104996e-09	4.606863e+01	3.340515e+02
1.990000e-06	6.420905e-06	5.076611e-09	4.541774e+01	3.320829e+02
2.000000e-06	6.326583e-06	5.038701e-09	4.475056e+01	3.300384e+02
2.010000e-06	6.229873e-06	5.009567e-09	4.406649e+01	3.279193e+02
2.020000e-06	6.131018e-06	4.982468e-09	4.336725e+01	3.257272e+02
2.030000e-06	6.029999e-06	4.957452e-09	4.265270e+01	3.234632e+02
2.040000e-06	5.926759e-06	4.902898e-09	4.192244e+01	3.211280e+02
2.050000e-06	5.821431e-06	4.869304e-09	4.117742e+01	3.187212e+02
2.060000e-06	5.714238e-06	4.832318e-09	4.041919e+01	3.162413e+02
2.070000e-06	5.605046e-06	4.799464e-09	3.964683e+01	3.136859e+02
2.080000e-06	5.493734e-06	4.755070e-09	3.885948e+01	3.110515e+02
2.090000e-06	5.380397e-06	4.718278e-09	3.805780e+01	3.083343e+02
2.100000e-06	5.265032e-06	4.676856e-09	3.724177e+01	3.055302e+02
2.110000e-06	5.147580e-06	4.626876e-09	3.641098e+01	3.026350e+02
2.120000e-06	5.028115e-06	4.580607e-09	3.556596e+01	2.996447e+02
2.130000e-06	4.906793e-06	4.538759e-09	3.470779e+01	2.965557e+02
2.140000e-06	4.783756e-06	4.498037e-09	3.383751e+01	2.933644e+02
2.150000e-06	4.658973e-06	4.441993e-09	3.295487e+01	2.900674e+02
2.160000e-06	4.532501e-06	4.389033e-09	3.206027e+01	2.866613e+02
2.170000e-06	4.404408e-06	4.335411e-09	3.115422e+01	2.831422e+02
2.180000e-06	4.274661e-06	4.282226e-09	3.023646e+01	2.795065e+02
2.190000e-06	4.143419e-06	4.220582e-09	2.930813e+01	2.757500e+02
2.200000e-06	4.010588e-06	4.161686e-09	2.836857e+01	2.718689e+02
2.210000e-06	3.876253e-06	4.103035e-09	2.741836e+01	2.678594e+02
2.220000e-06	3.740468e-06	4.044642e-09	2.645789e+01	2.637185e+02
2.230000e-06	3.603259e-06	3.982514e-09	2.548736e+01	2.594439e+02
2.240000e-06	3.464697e-06	3.917178e-09	2.450725e+01	2.550345e+02
2.250000e-06	3.324728e-06	3.846673e-09	2.351719e+01	2.504895e+02
2.260000e-06	3.183432e-06	3.770747e-09	2.251775e+01	2.458093e+02
2.270000e-06	3.040905e-06	3.694301e-09	2.150959e+01	2.409938e+02
2.280000e-06	2.897240e-06	3.617614e-09	2.049339e+01	2.360425e+02
2.290000e-06	2.752425e-06	3.541657e-09	1.946905e+01	2.309534e+02
2.300000e-06	2.606632e-06	3.460607e-09	1.843780e+01	2.257223e+02
2.310000e-06	2.460090e-06	3.379657e-09	1.740124e+01	2.203425e+02
2.320000e-06	2.312801e-06	3.296857e-09	1.635941e+01	2.148046e+02
2.330000e-06	2.164618e-06	3.211534e-09	1.531125e+01	2.090962e+02
2.340000e-06	2.015560e-06	3.120961e-09	1.425690e+01	2.032030e+02
2.350000e-06	1.865785e-06	3.027441e-09	1.319748e+01	1.971097e+02
2.360000e-06	1.715454e-06	2.930930e-09	1.213412e+01	1.908007e+02
2.370000e-06	1.564661e-06	2.829275e-09	1.106750e+01	1.842619e+02
2.380000e-06	1.413412e-06	2.725545e-09	9.997652e+00	1.774815e+02
2.390000e-06	1.261733e-06	2.617409e-09	8.924767e+00	1.704507e+02
2.400000e-06	1.109608e-06	2.502148e-09	7.848718e+00	1.631643e+02
2.410000e-06	9.570330e-07	2.384549e-09	6.769494e+00	1.556200e+02
2.420000e-06	8.041476e-07	2.266523e-09	5.688072e+00	1.478175e+02
2.430000e-06	6.509658e-07	2.146939e-09	4.604553e+00	1.397570e+02
2.440000e-06	4.974727e-07	2.022390e-09	3.518832e+00	1.314370e+02
2.450000e-06	3.438173e-07	1.892922e-09	2.431964e+00	1.228526e+02
2.460000e-06	1.900219e-07	1.758599e-09	1.344105e+00	1.139932e+02
2.470000e-06	3.613201e-08	1.617126e-09	2.555768e-01	1.048418e+02
2.480000e-06	-1.178127e-07	1.471059e-09	-8.333384e-01	9.537425e+01
2.490000e-06	-2.717328e-07	1.322056e-09	-1.922080e+00	8.556023e+01
2.500000e-06	-4.255263e-07	1.168157e-09	-3.009925e+00	7.536510e+01
2.510000e-06	-5.792152e-07	1.006760e-09	-4.097031e+00	6.475310e+01
2.520000e-06	-7.327140e-07	8.380350e-10	-5.182792e+00	5.369131e+01
2.530000e-06	-8.859296e-07	6.604405e-10	-6.266550e+00	4.215427e+01
2.540000e-06	-1.038857e-06	4.742036e-10	-7.348267e+00	3.012869e+01
2.550000e-06	-1.191363e-06	2.818203e-10	-8.427009e+00	1.761762e+01
2.560000e-06	-1.343308e-06	8.398413e-11	-9.501781e+00	4.643759e+00
2.570000e-06	-1.494719e-06	-1.203781e-10	-1.057277e+01	-8.748666e+00
2.580000e-06	-1.645609e-06	-3.318328e-10	-1.164008e+01	-2.249378e+01
2.590000e-06	-1.795999e-06	-5.472628e-10	-1.270385e+01	-3.650573e+01
2.600000e-06	-1.945841e-06	-7.653165e-10	-1.376375e+01	-5.068218e+01
2.610000e-06	-2.094929e-06	-9.853283e-10	-1.481831e+01	-6.490932e+01
2.620000e-06	-2.243078e-06	-1.205157e-09	-1.586623e+01	-7.906787e+01
2.630000e-06	-2.390287e-06	-1.421998e-09	-1.690750e+01	-9.303970e+01
2.640000e-06	-2.536673e-06	-1.633038e-09	-1.794295e+01	-1.067142e+02
2.650000e-06	-2.682199e-06	-1.838311e-09	-1.897231e+01	-1.199941e+02
2.660000e-06	-2.826708e-06	-2.034794e-09	-1.999448e+01	-1.327997e+02
2.670000e-06	-2.970104e-06	-2.219420e-09	-2.100879e+01	-1.450721e+02
2.680000e-06	-3.112380e-06	-2.395166e-09	-2.201516e+01	-1.567736e+02
2.690000e-06	-3.253430e-06	-2.563318e-09	-2.301287e+01	-1.678877e+02
2.700000e-06	-3.393138e-06	-2.723387e-09	-2.400108e+01	-1.784159e+02
2.710000e-06	-3.531548e-06	-2.875045e-09	-2.498011e+01	-1.883748e+02
2.720000e-06	-3.668631e-06	-3.018950e-09	-2.594976e+01	-1.977918e+02
2.730000e-06	-3.804265e-06	-3.157033e-09	-2.690916e+01	-2.067002e+02
2.740000e-06	-3.938581e-06	-3.289841e-09	-2.785923e+01	-2.151358e+02
2.750000e-06	-4.071535e-06	-3.415503e-09	-2.879967e+01	-2.231331e+02
2.760000e-06	-4.202986e-06	-3.532590e-09	-2.972948e+01	-2.307231e+02
2.770000e-06	-4.333054e-06	-3.642204e-09	-3.064950e+01	-2.379324e+02
2.780000e-06	-4.461623e-06	-3.745234e-09	-3.155892e+01	-2.447828e+02
2.790000e-06	-4.588652e-06	-3.843027e-09	-3.245746e+01	-2.512926e+02
2.800000e-06	-4.714111e-06	-3.936704e-09	-3.334488e+01	-2.574774e+02
2.810000e-06	-4.837834e-06	-4.025058e-09	-3.422002e+01	-2.633524e+02
2.820000e-06	-4.959835e-06	-4.108391e-09	-3.508299e+01	-2.689331e+02
2.830000e-06	-5.080089e-06	-4.187561e-09	-3.593359e+01	-2.742372e+02
2.840000e-06	-5.198443e-06	-4.264219e-09	-3.677076e+01	-2.792844e+02
2.850000e-06	-5.314685e-06	-4.338788e-09	-3.759299e+01	-2.840962e+02
2.860000e-06	-5.428688e-06	-4.410500e-09	-3.839938e+01	-2.886949e+02
2.870000e-06	-5.540428e-06	-4.480183e-09	-3.918976e+01	-2.931023e+02
2.880000e-06	-5.650106e-06	-4.546761e-09	-3.996556e+01	-2.973379e+02
2.890000e-06	-5.757933e-06	-4.610829e-09	-4.072827e+01	-3.014174e+02
2.900000e-06	-5.863841e-06	-4.672326e-09	-4.147740e+01	-3.053513e+02
2.910000e-06	-5.967626e-06	-4.730805e-09	-4.221151e+01	-3.091445e+02
2.920000e-06	-6.069105e-06	-4.786846e-09	-4.292931e+01	-3.127964e+02
2.930000e-06	-6.168307e-06	-4.840394e-09	-4.363101e+01	-3.163018e+02
2.940000e-06	-6.265374e-06	-4.891609e-09	-4.431760e+01	-3.196522e+02
