# Temperatura_=_37.2
# Concentracion g/m^3_=_5000.0
# C_Vs_to_Am_M_A/Vsm_=_65563218390.804596
# pendiente_HvsI_1/m_=_3716.3
# ordenada_HvsI_A/m_=_1297.0
# frecuencia_Hz_=_302505.1091401891

Tiempo_(s)	Campo_(V.s)	Magnetizacion_(V.s)	Campo_(kA/m)	Magnetizacion_(A/m)
0.000000e+00	-7.928413e-06	-5.247517e-09	-5.688155e+01	-3.437300e+02
1.000000e-08	-7.926451e-06	-5.253645e-09	-5.686748e+01	-3.435652e+02
2.000000e-08	-7.921769e-06	-5.252402e-09	-5.683389e+01	-3.433182e+02
3.000000e-08	-7.914464e-06	-5.248182e-09	-5.678148e+01	-3.430012e+02
4.000000e-08	-7.904428e-06	-5.244053e-09	-5.670947e+01	-3.426300e+02
5.000000e-08	-7.891494e-06	-5.238281e-09	-5.661668e+01	-3.422216e+02
6.000000e-08	-7.875570e-06	-5.227830e-09	-5.650243e+01	-3.417924e+02
7.000000e-08	-7.857102e-06	-5.210936e-09	-5.636994e+01	-3.413563e+02
8.000000e-08	-7.836476e-06	-5.198708e-09	-5.622196e+01	-3.409233e+02
9.000000e-08	-7.813206e-06	-5.263463e-09	-5.605501e+01	-3.404978e+02
1.000000e-07	-7.786685e-06	-5.279673e-09	-5.586474e+01	-3.400786e+02
1.100000e-07	-7.756997e-06	-5.220729e-09	-5.565174e+01	-3.396589e+02
1.200000e-07	-7.724499e-06	-5.191982e-09	-5.541859e+01	-3.392275e+02
1.300000e-07	-7.689325e-06	-5.180666e-09	-5.516624e+01	-3.387695e+02
1.400000e-07	-7.651742e-06	-5.132341e-09	-5.489661e+01	-3.382688e+02
1.500000e-07	-7.612157e-06	-5.077403e-09	-5.461260e+01	-3.377093e+02
1.600000e-07	-7.570343e-06	-5.193831e-09	-5.431262e+01	-3.370770e+02
1.700000e-07	-7.525750e-06	-5.143840e-09	-5.399269e+01	-3.363608e+02
1.800000e-07	-7.478482e-06	-5.064990e-09	-5.365357e+01	-3.355539e+02
1.900000e-07	-7.428324e-06	-5.150295e-09	-5.329372e+01	-3.346535e+02
2.000000e-07	-7.375105e-06	-5.065989e-09	-5.291190e+01	-3.336613e+02
2.100000e-07	-7.319144e-06	-5.048678e-09	-5.251042e+01	-3.325821e+02
2.200000e-07	-7.260450e-06	-5.037973e-09	-5.208932e+01	-3.314231e+02
2.300000e-07	-7.199132e-06	-4.997176e-09	-5.164940e+01	-3.301926e+02
2.400000e-07	-7.135217e-06	-5.013439e-09	-5.119085e+01	-3.288988e+02
2.500000e-07	-7.068573e-06	-4.970439e-09	-5.071272e+01	-3.275487e+02
2.600000e-07	-6.999265e-06	-4.972954e-09	-5.021548e+01	-3.261475e+02
2.700000e-07	-6.927265e-06	-4.958146e-09	-4.969892e+01	-3.246979e+02
2.800000e-07	-6.852481e-06	-4.919272e-09	-4.916239e+01	-3.232004e+02
2.900000e-07	-6.774930e-06	-4.865184e-09	-4.860601e+01	-3.216530e+02
3.000000e-07	-6.694605e-06	-4.865791e-09	-4.802973e+01	-3.200524e+02
3.100000e-07	-6.611819e-06	-4.879088e-09	-4.743579e+01	-3.183940e+02
3.200000e-07	-6.526888e-06	-4.801528e-09	-4.682646e+01	-3.166732e+02
3.300000e-07	-6.439706e-06	-4.790716e-09	-4.620098e+01	-3.148853e+02
3.400000e-07	-6.350174e-06	-4.774900e-09	-4.555864e+01	-3.130267e+02
3.500000e-07	-6.258332e-06	-4.730098e-09	-4.489974e+01	-3.110945e+02
3.600000e-07	-6.164215e-06	-4.692763e-09	-4.422450e+01	-3.090871e+02
3.700000e-07	-6.067838e-06	-4.674729e-09	-4.353306e+01	-3.070038e+02
3.800000e-07	-5.969227e-06	-4.652220e-09	-4.282558e+01	-3.048446e+02
3.900000e-07	-5.868471e-06	-4.593063e-09	-4.210271e+01	-3.026098e+02
4.000000e-07	-5.765651e-06	-4.563184e-09	-4.136505e+01	-3.003000e+02
4.100000e-07	-5.660847e-06	-4.536174e-09	-4.061314e+01	-2.979155e+02
4.200000e-07	-5.554073e-06	-4.505650e-09	-3.984710e+01	-2.954564e+02
4.300000e-07	-5.445301e-06	-4.449179e-09	-3.906673e+01	-2.929220e+02
4.400000e-07	-5.334564e-06	-4.411117e-09	-3.827226e+01	-2.903114e+02
4.500000e-07	-5.221871e-06	-4.382937e-09	-3.746376e+01	-2.876230e+02
4.600000e-07	-5.107090e-06	-4.335850e-09	-3.664027e+01	-2.848545e+02
4.700000e-07	-4.990299e-06	-4.286820e-09	-3.580237e+01	-2.820036e+02
4.800000e-07	-4.871726e-06	-4.248382e-09	-3.495168e+01	-2.790671e+02
4.900000e-07	-4.751449e-06	-4.206182e-09	-3.408877e+01	-2.760418e+02
5.000000e-07	-4.629398e-06	-4.146607e-09	-3.321312e+01	-2.729238e+02
5.100000e-07	-4.505556e-06	-4.099575e-09	-3.232463e+01	-2.697089e+02
5.200000e-07	-4.380092e-06	-4.052705e-09	-3.142450e+01	-2.663926e+02
5.300000e-07	-4.253064e-06	-4.000147e-09	-3.051316e+01	-2.629702e+02
5.400000e-07	-4.124580e-06	-3.936259e-09	-2.959136e+01	-2.594371e+02
5.500000e-07	-3.994561e-06	-3.878136e-09	-2.865855e+01	-2.557885e+02
5.600000e-07	-3.862927e-06	-3.823850e-09	-2.771416e+01	-2.520205e+02
5.700000e-07	-3.729813e-06	-3.765749e-09	-2.675915e+01	-2.481295e+02
5.800000e-07	-3.595324e-06	-3.704654e-09	-2.579427e+01	-2.441132e+02
5.900000e-07	-3.459530e-06	-3.641336e-09	-2.482003e+01	-2.399699e+02
6.000000e-07	-3.322474e-06	-3.578249e-09	-2.383674e+01	-2.356989e+02
6.100000e-07	-3.184006e-06	-3.510004e-09	-2.284331e+01	-2.312998e+02
6.200000e-07	-3.044048e-06	-3.443496e-09	-2.183920e+01	-2.267727e+02
6.300000e-07	-2.902849e-06	-3.373848e-09	-2.082618e+01	-2.221167e+02
6.400000e-07	-2.760563e-06	-3.300175e-09	-1.980536e+01	-2.173302e+02
6.500000e-07	-2.617202e-06	-3.221051e-09	-1.877683e+01	-2.124099e+02
6.600000e-07	-2.472828e-06	-3.141408e-09	-1.774104e+01	-2.073501e+02
6.700000e-07	-2.327442e-06	-3.059192e-09	-1.669798e+01	-2.021432e+02
6.800000e-07	-2.181221e-06	-2.976861e-09	-1.564894e+01	-1.967791e+02
6.900000e-07	-2.034399e-06	-2.897593e-09	-1.459558e+01	-1.912462e+02
7.000000e-07	-1.886997e-06	-2.810475e-09	-1.353806e+01	-1.855317e+02
7.100000e-07	-1.739018e-06	-2.718653e-09	-1.247640e+01	-1.796230e+02
7.200000e-07	-1.590511e-06	-2.623661e-09	-1.141095e+01	-1.735078e+02
7.300000e-07	-1.441567e-06	-2.529628e-09	-1.034237e+01	-1.671761e+02
7.400000e-07	-1.292184e-06	-2.429517e-09	-9.270638e+00	-1.606197e+02
7.500000e-07	-1.142348e-06	-2.324078e-09	-8.195652e+00	-1.538332e+02
7.600000e-07	-9.921296e-07	-2.218423e-09	-7.117928e+00	-1.468134e+02
7.700000e-07	-8.415883e-07	-2.109890e-09	-6.037885e+00	-1.395581e+02
7.800000e-07	-6.907638e-07	-1.995495e-09	-4.955811e+00	-1.320655e+02
7.900000e-07	-5.397049e-07	-1.876614e-09	-3.872055e+00	-1.243321e+02
8.000000e-07	-3.884406e-07	-1.757746e-09	-2.786825e+00	-1.163512e+02
8.100000e-07	-2.370130e-07	-1.630853e-09	-1.700424e+00	-1.081111e+02
8.200000e-07	-8.547021e-08	-1.498166e-09	-6.131969e-01	-9.959453e+01
8.300000e-07	6.611654e-08	-1.362833e-09	4.743461e-01	-9.077814e+01
8.400000e-07	2.176876e-07	-1.222220e-09	1.561777e+00	-8.163304e+01
8.500000e-07	3.692475e-07	-1.073236e-09	2.649127e+00	-7.212662e+01
8.600000e-07	5.207137e-07	-9.200278e-10	3.735804e+00	-6.222520e+01
8.700000e-07	6.720223e-07	-7.634926e-10	4.821352e+00	-5.189751e+01
8.800000e-07	8.231328e-07	-5.995303e-10	5.905478e+00	-4.111875e+01
8.900000e-07	9.739684e-07	-4.287911e-10	6.987632e+00	-2.987481e+01
9.000000e-07	1.124479e-06	-2.521636e-10	8.067453e+00	-1.816612e+01
9.100000e-07	1.274624e-06	-7.148130e-11	9.144654e+00	-6.010794e+00
9.200000e-07	1.424332e-06	1.169093e-10	1.021871e+01	6.553382e+00
9.300000e-07	1.573577e-06	3.113294e-10	1.128946e+01	1.946849e+01
9.400000e-07	1.722289e-06	5.100538e-10	1.235638e+01	3.265761e+01
9.500000e-07	1.870387e-06	7.123619e-10	1.341889e+01	4.602757e+01
9.600000e-07	2.017803e-06	9.171927e-10	1.447651e+01	5.947315e+01
9.700000e-07	2.164446e-06	1.121252e-09	1.552859e+01	7.288239e+01
9.800000e-07	2.310336e-06	1.322462e-09	1.657526e+01	8.614245e+01
9.900000e-07	2.455395e-06	1.521895e-09	1.761597e+01	9.914567e+01
1.000000e-06	2.599486e-06	1.712795e-09	1.864973e+01	1.117950e+02
1.010000e-06	2.742549e-06	1.894029e-09	1.967613e+01	1.240088e+02
1.020000e-06	2.884572e-06	2.067140e-09	2.069505e+01	1.357237e+02
1.030000e-06	3.025459e-06	2.234978e-09	2.170584e+01	1.468966e+02
1.040000e-06	3.165049e-06	2.397324e-09	2.270730e+01	1.575047e+02
1.050000e-06	3.303296e-06	2.551117e-09	2.369914e+01	1.675435e+02
1.060000e-06	3.440253e-06	2.696031e-09	2.468173e+01	1.770247e+02
1.070000e-06	3.575928e-06	2.833603e-09	2.565512e+01	1.859723e+02
1.080000e-06	3.710294e-06	2.965652e-09	2.661911e+01	1.944184e+02
1.090000e-06	3.843342e-06	3.088805e-09	2.757364e+01	2.023996e+02
1.100000e-06	3.974993e-06	3.202233e-09	2.851816e+01	2.099530e+02
1.110000e-06	4.105167e-06	3.307874e-09	2.945208e+01	2.171141e+02
1.120000e-06	4.233919e-06	3.411204e-09	3.037580e+01	2.239143e+02
1.130000e-06	4.361186e-06	3.512638e-09	3.128886e+01	2.303805e+02
1.140000e-06	4.486975e-06	3.608656e-09	3.219132e+01	2.365352e+02
1.150000e-06	4.611302e-06	3.698439e-09	3.308329e+01	2.423967e+02
1.160000e-06	4.733970e-06	3.783173e-09	3.396336e+01	2.479812e+02
1.170000e-06	4.854946e-06	3.863062e-09	3.483129e+01	2.533029e+02
1.180000e-06	4.974225e-06	3.937335e-09	3.568705e+01	2.583763e+02
1.190000e-06	5.091731e-06	4.008672e-09	3.653008e+01	2.632160e+02
1.200000e-06	5.207278e-06	4.077085e-09	3.735906e+01	2.678374e+02
1.210000e-06	5.320798e-06	4.142190e-09	3.817350e+01	2.722565e+02
1.220000e-06	5.432321e-06	4.206292e-09	3.897361e+01	2.764888e+02
1.230000e-06	5.541892e-06	4.270985e-09	3.975971e+01	2.805488e+02
1.240000e-06	5.649498e-06	4.333819e-09	4.053172e+01	2.844487e+02
1.250000e-06	5.755028e-06	4.392201e-09	4.128883e+01	2.881977e+02
1.260000e-06	5.858416e-06	4.446766e-09	4.203058e+01	2.918012e+02
1.270000e-06	5.959604e-06	4.497318e-09	4.275654e+01	2.952611e+02
1.280000e-06	6.058567e-06	4.542330e-09	4.346654e+01	2.985761e+02
1.290000e-06	6.155234e-06	4.584233e-09	4.416007e+01	3.017426e+02
1.300000e-06	6.249664e-06	4.627066e-09	4.483755e+01	3.047561e+02
1.310000e-06	6.341917e-06	4.669032e-09	4.549940e+01	3.076123e+02
1.320000e-06	6.431956e-06	4.708489e-09	4.614538e+01	3.103090e+02
1.330000e-06	6.519616e-06	4.747365e-09	4.677429e+01	3.128466e+02
1.340000e-06	6.604920e-06	4.786152e-09	4.738629e+01	3.152293e+02
1.350000e-06	6.688018e-06	4.822015e-09	4.798247e+01	3.174644e+02
1.360000e-06	6.768716e-06	4.853196e-09	4.856143e+01	3.195627e+02
1.370000e-06	6.846910e-06	4.881119e-09	4.912243e+01	3.215368e+02
1.380000e-06	6.922565e-06	4.906739e-09	4.966520e+01	3.233999e+02
1.390000e-06	6.995581e-06	4.931893e-09	5.018905e+01	3.251647e+02
1.400000e-06	7.066091e-06	4.957301e-09	5.069492e+01	3.268416e+02
1.410000e-06	7.134148e-06	4.983986e-09	5.118319e+01	3.284379e+02
1.420000e-06	7.199586e-06	5.009255e-09	5.165266e+01	3.299573e+02
1.430000e-06	7.262459e-06	5.031502e-09	5.210374e+01	3.313994e+02
1.440000e-06	7.322932e-06	5.052924e-09	5.253759e+01	3.327610e+02
1.450000e-06	7.380894e-06	5.072894e-09	5.295344e+01	3.340369e+02
1.460000e-06	7.436183e-06	5.089794e-09	5.335010e+01	3.352211e+02
1.470000e-06	7.488626e-06	5.102994e-09	5.372634e+01	3.363085e+02
1.480000e-06	7.538004e-06	5.114636e-09	5.408060e+01	3.372966e+02
1.490000e-06	7.584472e-06	5.127156e-09	5.441398e+01	3.381859e+02
1.500000e-06	7.628324e-06	5.141271e-09	5.472860e+01	3.389809e+02
1.510000e-06	7.669423e-06	5.154398e-09	5.502346e+01	3.396897e+02
1.520000e-06	7.707718e-06	5.165905e-09	5.529820e+01	3.403236e+02
1.530000e-06	7.743354e-06	5.176162e-09	5.555387e+01	3.408954e+02
1.540000e-06	7.776249e-06	5.184970e-09	5.578987e+01	3.414181e+02
1.550000e-06	7.806401e-06	5.193762e-09	5.600619e+01	3.419031e+02
1.560000e-06	7.833840e-06	5.203406e-09	5.620305e+01	3.423587e+02
1.570000e-06	7.858353e-06	5.212128e-09	5.637891e+01	3.427891e+02
1.580000e-06	7.879994e-06	5.216940e-09	5.653417e+01	3.431934e+02
1.590000e-06	7.899016e-06	5.219510e-09	5.667065e+01	3.435661e+02
1.600000e-06	7.915193e-06	5.223842e-09	5.678671e+01	3.438977e+02
1.610000e-06	7.928296e-06	5.230447e-09	5.688071e+01	3.441760e+02
1.620000e-06	7.938300e-06	5.235683e-09	5.695249e+01	3.443880e+02
1.630000e-06	7.945267e-06	5.238309e-09	5.700247e+01	3.445219e+02
1.640000e-06	7.949408e-06	5.240213e-09	5.703218e+01	3.445685e+02
1.650000e-06	7.950707e-06	5.244547e-09	5.704150e+01	3.445231e+02
1.660000e-06	7.949241e-06	5.240710e-09	5.703098e+01	3.443865e+02
1.670000e-06	7.945220e-06	5.234651e-09	5.700213e+01	3.441645e+02
1.680000e-06	7.938527e-06	5.230934e-09	5.695411e+01	3.438683e+02
1.690000e-06	7.929147e-06	5.225176e-09	5.688682e+01	3.435125e+02
1.700000e-06	7.917075e-06	5.219858e-09	5.680021e+01	3.431139e+02
1.710000e-06	7.902259e-06	5.220562e-09	5.669391e+01	3.426895e+02
1.720000e-06	7.884956e-06	5.233209e-09	5.656977e+01	3.422542e+02
1.730000e-06	7.865389e-06	5.212072e-09	5.642939e+01	3.418192e+02
1.740000e-06	7.843187e-06	5.111572e-09	5.627011e+01	3.413910e+02
1.750000e-06	7.817666e-06	5.117900e-09	5.608701e+01	3.409700e+02
1.760000e-06	7.788521e-06	5.156474e-09	5.587791e+01	3.405514e+02
1.770000e-06	7.756160e-06	5.139174e-09	5.564574e+01	3.401250e+02
1.780000e-06	7.721385e-06	5.163207e-09	5.539625e+01	3.396770e+02
1.790000e-06	7.684369e-06	5.246747e-09	5.513068e+01	3.391917e+02
1.800000e-06	7.645176e-06	5.141399e-09	5.484950e+01	3.386526e+02
1.810000e-06	7.603843e-06	5.122324e-09	5.455296e+01	3.380448e+02
1.820000e-06	7.560026e-06	5.203491e-09	5.423860e+01	3.373564e+02
1.830000e-06	7.513651e-06	5.084298e-09	5.390589e+01	3.365789e+02
1.840000e-06	7.464490e-06	5.178899e-09	5.355318e+01	3.357084e+02
1.850000e-06	7.412326e-06	5.117201e-09	5.317894e+01	3.347451e+02
1.860000e-06	7.357270e-06	5.088158e-09	5.278395e+01	3.336930e+02
1.870000e-06	7.299466e-06	5.144742e-09	5.236924e+01	3.325586e+02
1.880000e-06	7.239141e-06	5.011804e-09	5.193644e+01	3.313499e+02
1.890000e-06	7.176045e-06	5.072994e-09	5.148377e+01	3.300754e+02
1.900000e-06	7.110098e-06	5.014569e-09	5.101064e+01	3.287425e+02
1.910000e-06	7.041468e-06	4.968513e-09	5.051826e+01	3.273571e+02
1.920000e-06	6.970046e-06	4.990183e-09	5.000585e+01	3.259228e+02
1.930000e-06	6.896017e-06	4.961612e-09	4.947474e+01	3.244405e+02
1.940000e-06	6.819249e-06	4.979684e-09	4.892397e+01	3.229093e+02
1.950000e-06	6.739700e-06	4.883779e-09	4.835326e+01	3.213260e+02
1.960000e-06	6.657718e-06	4.903190e-09	4.776508e+01	3.196866e+02
1.970000e-06	6.573424e-06	4.861230e-09	4.716033e+01	3.179861e+02
1.980000e-06	6.486664e-06	4.805521e-09	4.653788e+01	3.162200e+02
1.990000e-06	6.397424e-06	4.815069e-09	4.589763e+01	3.143843e+02
2.000000e-06	6.306022e-06	4.778764e-09	4.524188e+01	3.124758e+02
2.010000e-06	6.212372e-06	4.757017e-09	4.457000e+01	3.104925e+02
2.020000e-06	6.116413e-06	4.693107e-09	4.388155e+01	3.084335e+02
2.030000e-06	6.018270e-06	4.685254e-09	4.317744e+01	3.062984e+02
2.040000e-06	5.918067e-06	4.649041e-09	4.245854e+01	3.040876e+02
2.050000e-06	5.815740e-06	4.614563e-09	4.172440e+01	3.018017e+02
2.060000e-06	5.711246e-06	4.576158e-09	4.097472e+01	2.994410e+02
2.070000e-06	5.604846e-06	4.541872e-09	4.021137e+01	2.970057e+02
2.080000e-06	5.496605e-06	4.503609e-09	3.943481e+01	2.944954e+02
2.090000e-06	5.386495e-06	4.446834e-09	3.864484e+01	2.919093e+02
2.100000e-06	5.274401e-06	4.423390e-09	3.784063e+01	2.892459e+02
2.110000e-06	5.160265e-06	4.385652e-09	3.702177e+01	2.865032e+02
2.120000e-06	5.044188e-06	4.339058e-09	3.618898e+01	2.836789e+02
2.130000e-06	4.926115e-06	4.282931e-09	3.534189e+01	2.807700e+02
2.140000e-06	4.806017e-06	4.246777e-09	3.448026e+01	2.777735e+02
2.150000e-06	4.684165e-06	4.200366e-09	3.360604e+01	2.746855e+02
2.160000e-06	4.560678e-06	4.153246e-09	3.272009e+01	2.715020e+02
2.170000e-06	4.435572e-06	4.103902e-09	3.182254e+01	2.682186e+02
2.180000e-06	4.308791e-06	4.056985e-09	3.091296e+01	2.648307e+02
2.190000e-06	4.180335e-06	4.002421e-09	2.999137e+01	2.613335e+02
2.200000e-06	4.050385e-06	3.942665e-09	2.905905e+01	2.577223e+02
2.210000e-06	3.918959e-06	3.889282e-09	2.811615e+01	2.539928e+02
2.220000e-06	3.786150e-06	3.831730e-09	2.716333e+01	2.501415e+02
2.230000e-06	3.651869e-06	3.772225e-09	2.619994e+01	2.461655e+02
2.240000e-06	3.516103e-06	3.706023e-09	2.522591e+01	2.420630e+02
2.250000e-06	3.379057e-06	3.645883e-09	2.424268e+01	2.378329e+02
2.260000e-06	3.240833e-06	3.579527e-09	2.325101e+01	2.334748e+02
2.270000e-06	3.101400e-06	3.510403e-09	2.225066e+01	2.289886e+02
2.280000e-06	2.960748e-06	3.437002e-09	2.124157e+01	2.243739e+02
2.290000e-06	2.818909e-06	3.365384e-09	2.022396e+01	2.196295e+02
2.300000e-06	2.675932e-06	3.292372e-09	1.919819e+01	2.147525e+02
2.310000e-06	2.531947e-06	3.219039e-09	1.816518e+01	2.097381e+02
2.320000e-06	2.387097e-06	3.145117e-09	1.712597e+01	2.045792e+02
2.330000e-06	2.241514e-06	3.063475e-09	1.608150e+01	1.992666e+02
2.340000e-06	2.095159e-06	2.975409e-09	1.503149e+01	1.937892e+02
2.350000e-06	1.948081e-06	2.884436e-09	1.397630e+01	1.881343e+02
2.360000e-06	1.800380e-06	2.795881e-09	1.291664e+01	1.822892e+02
2.370000e-06	1.652105e-06	2.707661e-09	1.185285e+01	1.762414e+02
2.380000e-06	1.503304e-06	2.615362e-09	1.078529e+01	1.699800e+02
2.390000e-06	1.354031e-06	2.517235e-09	9.714352e+00	1.634964e+02
2.400000e-06	1.204407e-06	2.412838e-09	8.640889e+00	1.567841e+02
2.410000e-06	1.054505e-06	2.302832e-09	7.565434e+00	1.498393e+02
2.420000e-06	9.042756e-07	2.193437e-09	6.487629e+00	1.426597e+02
2.430000e-06	7.536750e-07	2.081520e-09	5.407160e+00	1.352435e+02
2.440000e-06	6.027502e-07	1.965484e-09	4.324367e+00	1.275879e+02
2.450000e-06	4.515054e-07	1.846527e-09	3.239277e+00	1.196873e+02
2.460000e-06	2.999701e-07	1.725165e-09	2.152103e+00	1.115319e+02
2.470000e-06	1.482608e-07	1.598548e-09	1.063681e+00	1.031063e+02
2.480000e-06	-3.561669e-09	1.463666e-09	-2.555282e-02	9.438895e+01
2.490000e-06	-1.554222e-07	1.324028e-09	-1.115060e+00	8.535273e+01
2.500000e-06	-3.071789e-07	1.179584e-09	-2.203822e+00	7.596594e+01
2.510000e-06	-4.587598e-07	1.029329e-09	-3.291323e+00	6.619489e+01
2.520000e-06	-6.101260e-07	8.742730e-10	-4.377283e+00	5.600711e+01
2.530000e-06	-7.612643e-07	7.138626e-10	-5.461609e+00	4.537528e+01
2.540000e-06	-9.121481e-07	5.447437e-10	-6.544109e+00	3.428139e+01
2.550000e-06	-1.062644e-06	3.687559e-10	-7.623825e+00	2.272081e+01
2.560000e-06	-1.212735e-06	1.889575e-10	-8.700636e+00	1.070569e+01
2.570000e-06	-1.362441e-06	1.791370e-12	-9.774689e+00	-1.732620e+00
2.580000e-06	-1.511771e-06	-1.951980e-10	-1.084604e+01	-1.454264e+01
2.590000e-06	-1.660654e-06	-4.001737e-10	-1.191419e+01	-2.765334e+01
2.600000e-06	-1.808917e-06	-6.091583e-10	-1.297788e+01	-4.097636e+01
2.610000e-06	-1.956455e-06	-8.201193e-10	-1.403638e+01	-5.440984e+01
2.620000e-06	-2.103209e-06	-1.031259e-09	-1.508925e+01	-6.784334e+01
2.630000e-06	-2.249168e-06	-1.239227e-09	-1.613641e+01	-8.116366e+01
2.640000e-06	-2.394389e-06	-1.442856e-09	-1.717829e+01	-9.426083e+01
2.650000e-06	-2.538760e-06	-1.641332e-09	-1.821407e+01	-1.070339e+02
2.660000e-06	-2.682006e-06	-1.829874e-09	-1.924176e+01	-1.193957e+02
2.670000e-06	-2.824088e-06	-2.006812e-09	-2.026112e+01	-1.312768e+02
2.680000e-06	-2.965071e-06	-2.175651e-09	-2.127259e+01	-1.426276e+02
2.690000e-06	-3.104871e-06	-2.337585e-09	-2.227557e+01	-1.534187e+02
2.700000e-06	-3.243396e-06	-2.492867e-09	-2.326940e+01	-1.636401e+02
2.710000e-06	-3.380718e-06	-2.641589e-09	-2.425460e+01	-1.732987e+02
2.720000e-06	-3.516836e-06	-2.783558e-09	-2.523117e+01	-1.824148e+02
2.730000e-06	-3.651582e-06	-2.918042e-09	-2.619788e+01	-1.910184e+02
2.740000e-06	-3.785020e-06	-3.043871e-09	-2.715522e+01	-1.991451e+02
2.750000e-06	-3.917144e-06	-3.162681e-09	-2.810313e+01	-2.068323e+02
2.760000e-06	-4.047839e-06	-3.274792e-09	-2.904079e+01	-2.141160e+02
2.770000e-06	-4.177241e-06	-3.378824e-09	-2.996917e+01	-2.210293e+02
2.780000e-06	-4.305270e-06	-3.477365e-09	-3.088770e+01	-2.276004e+02
2.790000e-06	-4.431703e-06	-3.572748e-09	-3.179478e+01	-2.338532e+02
2.800000e-06	-4.556608e-06	-3.664041e-09	-3.269090e+01	-2.398073e+02
2.810000e-06	-4.679935e-06	-3.750000e-09	-3.357569e+01	-2.454794e+02
2.820000e-06	-4.801576e-06	-3.830607e-09	-3.444840e+01	-2.508843e+02
2.830000e-06	-4.921433e-06	-3.908417e-09	-3.530830e+01	-2.560361e+02
2.840000e-06	-5.039366e-06	-3.983660e-09	-3.615439e+01	-2.609494e+02
2.850000e-06	-5.155311e-06	-4.055173e-09	-3.698622e+01	-2.656395e+02
2.860000e-06	-5.269086e-06	-4.122877e-09	-3.780250e+01	-2.701221e+02
2.870000e-06	-5.380726e-06	-4.187944e-09	-3.860344e+01	-2.744130e+02
2.880000e-06	-5.490406e-06	-4.253806e-09	-3.939033e+01	-2.785271e+02
2.890000e-06	-5.598214e-06	-4.318453e-09	-4.016379e+01	-2.824775e+02
2.900000e-06	-5.704192e-06	-4.380218e-09	-4.092412e+01	-2.862745e+02
2.910000e-06	-5.808161e-06	-4.438492e-09	-4.167003e+01	-2.899245e+02
2.920000e-06	-5.909883e-06	-4.492871e-09	-4.239983e+01	-2.934308e+02
2.930000e-06	-6.009361e-06	-4.545537e-09	-4.311352e+01	-2.967929e+02
2.940000e-06	-6.106735e-06	-4.594610e-09	-4.381211e+01	-3.000078e+02
