# Temperatura_=_36.32
# Concentracion g/m^3_=_5000.0
# C_Vs_to_Am_M_A/Vsm_=_65563218390.804596
# pendiente_HvsI_1/m_=_3716.3
# ordenada_HvsI_A/m_=_1297.0
# frecuencia_Hz_=_302511.8020588955

Tiempo_(s)	Campo_(V.s)	Magnetizacion_(V.s)	Campo_(kA/m)	Magnetizacion_(A/m)
0.000000e+00	-8.032173e-06	-5.316748e-09	-5.686337e+01	-3.483235e+02
1.000000e-08	-8.027971e-06	-5.314209e-09	-5.683362e+01	-3.481048e+02
2.000000e-08	-8.021206e-06	-5.309238e-09	-5.678572e+01	-3.478167e+02
3.000000e-08	-8.011735e-06	-5.305438e-09	-5.671867e+01	-3.474704e+02
4.000000e-08	-7.999372e-06	-5.303244e-09	-5.663115e+01	-3.470791e+02
5.000000e-08	-7.983987e-06	-5.298768e-09	-5.652223e+01	-3.466564e+02
6.000000e-08	-7.965859e-06	-5.293184e-09	-5.639390e+01	-3.462152e+02
7.000000e-08	-7.945502e-06	-5.293389e-09	-5.624979e+01	-3.457653e+02
8.000000e-08	-7.922564e-06	-5.291959e-09	-5.608740e+01	-3.453132e+02
9.000000e-08	-7.896453e-06	-5.308937e-09	-5.590254e+01	-3.448606e+02
1.000000e-07	-7.867145e-06	-5.307563e-09	-5.569506e+01	-3.444049e+02
1.100000e-07	-7.834920e-06	-5.275722e-09	-5.546693e+01	-3.439390e+02
1.200000e-07	-7.799938e-06	-5.249856e-09	-5.521927e+01	-3.434525e+02
1.300000e-07	-7.762451e-06	-5.231398e-09	-5.495388e+01	-3.429328e+02
1.400000e-07	-7.722771e-06	-5.210777e-09	-5.467297e+01	-3.423663e+02
1.500000e-07	-7.680813e-06	-5.175388e-09	-5.437593e+01	-3.417402e+02
1.600000e-07	-7.636225e-06	-5.202052e-09	-5.406027e+01	-3.410435e+02
1.700000e-07	-7.588933e-06	-5.188541e-09	-5.372547e+01	-3.402678e+02
1.800000e-07	-7.538749e-06	-5.145551e-09	-5.337019e+01	-3.394080e+02
1.900000e-07	-7.485479e-06	-5.170754e-09	-5.299307e+01	-3.384625e+02
2.000000e-07	-7.429400e-06	-5.139949e-09	-5.259607e+01	-3.374327e+02
2.100000e-07	-7.370661e-06	-5.107745e-09	-5.218023e+01	-3.363225e+02
2.200000e-07	-7.309250e-06	-5.087576e-09	-5.174547e+01	-3.351373e+02
2.300000e-07	-7.245103e-06	-5.059893e-09	-5.129134e+01	-3.338834e+02
2.400000e-07	-7.178163e-06	-5.047993e-09	-5.081745e+01	-3.325668e+02
2.500000e-07	-7.108572e-06	-5.024609e-09	-5.032478e+01	-3.311924e+02
2.600000e-07	-7.036236e-06	-5.022270e-09	-4.981268e+01	-3.297639e+02
2.700000e-07	-6.961042e-06	-4.989873e-09	-4.928035e+01	-3.282829e+02
2.800000e-07	-6.883045e-06	-4.959963e-09	-4.872817e+01	-3.267494e+02
2.900000e-07	-6.802272e-06	-4.945571e-09	-4.815634e+01	-3.251617e+02
3.000000e-07	-6.719062e-06	-4.920945e-09	-4.756727e+01	-3.235168e+02
3.100000e-07	-6.633670e-06	-4.898621e-09	-4.696273e+01	-3.218108e+02
3.200000e-07	-6.545913e-06	-4.863891e-09	-4.634146e+01	-3.200397e+02
3.300000e-07	-6.455718e-06	-4.846001e-09	-4.570293e+01	-3.181991e+02
3.400000e-07	-6.363206e-06	-4.814683e-09	-4.504800e+01	-3.162854e+02
3.500000e-07	-6.268448e-06	-4.781933e-09	-4.437716e+01	-3.142953e+02
3.600000e-07	-6.171362e-06	-4.750260e-09	-4.368985e+01	-3.122262e+02
3.700000e-07	-6.071935e-06	-4.713908e-09	-4.298596e+01	-3.100764e+02
3.800000e-07	-5.970351e-06	-4.680338e-09	-4.226680e+01	-3.078447e+02
3.900000e-07	-5.866674e-06	-4.648250e-09	-4.153282e+01	-3.055305e+02
4.000000e-07	-5.760946e-06	-4.622342e-09	-4.078433e+01	-3.031336e+02
4.100000e-07	-5.653218e-06	-4.576922e-09	-4.002167e+01	-3.006541e+02
4.200000e-07	-5.543540e-06	-4.530883e-09	-3.924521e+01	-2.980925e+02
4.300000e-07	-5.431859e-06	-4.489653e-09	-3.845457e+01	-2.954488e+02
4.400000e-07	-5.318037e-06	-4.453276e-09	-3.764877e+01	-2.927234e+02
4.500000e-07	-5.202101e-06	-4.411080e-09	-3.682801e+01	-2.899160e+02
4.600000e-07	-5.084274e-06	-4.371151e-09	-3.599386e+01	-2.870259e+02
4.700000e-07	-4.964617e-06	-4.331824e-09	-3.514675e+01	-2.840517e+02
4.800000e-07	-4.843100e-06	-4.279331e-09	-3.428648e+01	-2.809911e+02
4.900000e-07	-4.719793e-06	-4.224686e-09	-3.341354e+01	-2.778410e+02
5.000000e-07	-4.594786e-06	-4.174528e-09	-3.252856e+01	-2.745972e+02
5.100000e-07	-4.468169e-06	-4.128923e-09	-3.163218e+01	-2.712546e+02
5.200000e-07	-4.339861e-06	-4.074448e-09	-3.072383e+01	-2.678075e+02
5.300000e-07	-4.209930e-06	-4.017131e-09	-2.980399e+01	-2.642497e+02
5.400000e-07	-4.078511e-06	-3.959023e-09	-2.887361e+01	-2.605751e+02
5.500000e-07	-3.945578e-06	-3.903738e-09	-2.793252e+01	-2.567781e+02
5.600000e-07	-3.811139e-06	-3.847195e-09	-2.698076e+01	-2.528539e+02
5.700000e-07	-3.675193e-06	-3.787402e-09	-2.601834e+01	-2.487991e+02
5.800000e-07	-3.537816e-06	-3.725572e-09	-2.504579e+01	-2.446113e+02
5.900000e-07	-3.399065e-06	-3.658331e-09	-2.406351e+01	-2.402898e+02
6.000000e-07	-3.258865e-06	-3.587933e-09	-2.307097e+01	-2.358348e+02
6.100000e-07	-3.117221e-06	-3.515386e-09	-2.206821e+01	-2.312467e+02
6.200000e-07	-2.974308e-06	-3.442899e-09	-2.105646e+01	-2.265263e+02
6.300000e-07	-2.830240e-06	-3.366437e-09	-2.003654e+01	-2.216731e+02
6.400000e-07	-2.685090e-06	-3.288152e-09	-1.900896e+01	-2.166851e+02
6.500000e-07	-2.539021e-06	-3.209866e-09	-1.797487e+01	-2.115582e+02
6.600000e-07	-2.392124e-06	-3.130038e-09	-1.693492e+01	-2.062858e+02
6.700000e-07	-2.244523e-06	-3.048835e-09	-1.588998e+01	-2.008588e+02
6.800000e-07	-2.096241e-06	-2.964940e-09	-1.484024e+01	-1.952658e+02
6.900000e-07	-1.947217e-06	-2.876526e-09	-1.378523e+01	-1.894944e+02
7.000000e-07	-1.797502e-06	-2.783731e-09	-1.272532e+01	-1.835312e+02
7.100000e-07	-1.647242e-06	-2.687844e-09	-1.166157e+01	-1.773636e+02
7.200000e-07	-1.496523e-06	-2.589962e-09	-1.059456e+01	-1.709803e+02
7.300000e-07	-1.345355e-06	-2.489927e-09	-9.524374e+00	-1.643723e+02
7.400000e-07	-1.193717e-06	-2.383941e-09	-8.450862e+00	-1.575327e+02
7.500000e-07	-1.041583e-06	-2.276967e-09	-7.373835e+00	-1.504572e+02
7.600000e-07	-8.890338e-07	-2.169781e-09	-6.293870e+00	-1.431429e+02
7.700000e-07	-7.361517e-07	-2.055990e-09	-5.211549e+00	-1.355872e+02
7.800000e-07	-5.829894e-07	-1.935947e-09	-4.127244e+00	-1.277860e+02
7.900000e-07	-4.295941e-07	-1.810427e-09	-3.041290e+00	-1.197324e+02
8.000000e-07	-2.760955e-07	-1.681852e-09	-1.954604e+00	-1.114149e+02
8.100000e-07	-1.224989e-07	-1.547526e-09	-8.672249e-01	-1.028161e+02
8.200000e-07	3.127975e-08	-1.408629e-09	2.214434e-01	-9.391274e+01
8.300000e-07	1.850861e-07	-1.266089e-09	1.310308e+00	-8.467568e+01
8.400000e-07	3.387850e-07	-1.116352e-09	2.398412e+00	-7.507187e+01
8.500000e-07	4.923830e-07	-9.622600e-10	3.485800e+00	-6.506674e+01
8.600000e-07	6.458442e-07	-8.039713e-10	4.572221e+00	-5.462771e+01
8.700000e-07	7.991472e-07	-6.405542e-10	5.657522e+00	-4.372827e+01
8.800000e-07	9.522875e-07	-4.685461e-10	6.741672e+00	-3.235222e+01
8.900000e-07	1.105102e-06	-2.870100e-10	7.823511e+00	-2.049777e+01
9.000000e-07	1.257396e-06	-9.979947e-11	8.901668e+00	-8.180849e+00
9.100000e-07	1.409160e-06	9.065640e-11	9.976076e+00	4.562683e+00
9.200000e-07	1.560398e-06	2.847850e-10	1.104676e+01	1.767627e+01
9.300000e-07	1.711094e-06	4.859424e-10	1.211360e+01	3.108359e+01
9.400000e-07	1.861192e-06	6.938843e-10	1.317621e+01	4.469111e+01
9.500000e-07	2.010603e-06	9.037325e-10	1.423396e+01	5.839221e+01
9.600000e-07	2.159289e-06	1.110329e-09	1.528658e+01	7.207246e+01
9.700000e-07	2.307196e-06	1.314305e-09	1.633368e+01	8.561564e+01
9.800000e-07	2.454263e-06	1.518466e-09	1.737483e+01	9.890992e+01
9.900000e-07	2.600437e-06	1.717264e-09	1.840966e+01	1.118537e+02
1.000000e-06	2.745727e-06	1.903695e-09	1.943824e+01	1.243606e+02
1.010000e-06	2.889988e-06	2.081308e-09	2.045952e+01	1.363628e+02
1.020000e-06	3.033076e-06	2.252038e-09	2.147251e+01	1.478134e+02
1.030000e-06	3.174944e-06	2.414738e-09	2.247686e+01	1.586865e+02
1.040000e-06	3.315515e-06	2.569264e-09	2.347202e+01	1.689758e+02
1.050000e-06	3.454752e-06	2.716791e-09	2.445774e+01	1.786922e+02
1.060000e-06	3.592623e-06	2.858842e-09	2.543380e+01	1.878597e+02
1.070000e-06	3.729091e-06	2.994378e-09	2.639991e+01	1.965118e+02
1.080000e-06	3.864147e-06	3.121003e-09	2.735604e+01	2.046865e+02
1.090000e-06	3.997792e-06	3.239506e-09	2.830217e+01	2.124233e+02
1.100000e-06	4.130032e-06	3.351716e-09	2.923836e+01	2.197592e+02
1.110000e-06	4.260865e-06	3.458475e-09	3.016458e+01	2.267276e+02
1.120000e-06	4.390197e-06	3.560143e-09	3.108018e+01	2.333564e+02
1.130000e-06	4.517975e-06	3.656098e-09	3.198478e+01	2.396682e+02
1.140000e-06	4.644187e-06	3.745946e-09	3.287829e+01	2.456814e+02
1.150000e-06	4.768826e-06	3.830714e-09	3.376066e+01	2.514110e+02
1.160000e-06	4.891872e-06	3.912290e-09	3.463176e+01	2.568703e+02
1.170000e-06	5.013162e-06	3.991225e-09	3.549043e+01	2.620722e+02
1.180000e-06	5.132577e-06	4.067092e-09	3.633582e+01	2.670303e+02
1.190000e-06	5.250118e-06	4.138114e-09	3.716794e+01	2.717595e+02
1.200000e-06	5.365694e-06	4.205927e-09	3.798616e+01	2.762757e+02
1.210000e-06	5.479184e-06	4.271834e-09	3.878960e+01	2.805953e+02
1.220000e-06	5.590565e-06	4.335343e-09	3.957812e+01	2.847343e+02
1.230000e-06	5.699944e-06	4.395437e-09	4.035247e+01	2.887072e+02
1.240000e-06	5.807402e-06	4.453749e-09	4.111321e+01	2.925254e+02
1.250000e-06	5.912786e-06	4.509808e-09	4.185927e+01	2.961971e+02
1.260000e-06	6.015936e-06	4.562806e-09	4.258952e+01	2.997261e+02
1.270000e-06	6.116862e-06	4.612216e-09	4.330402e+01	3.031124e+02
1.280000e-06	6.215498e-06	4.658930e-09	4.400231e+01	3.063531e+02
1.290000e-06	6.311744e-06	4.704066e-09	4.468367e+01	3.094429e+02
1.300000e-06	6.405667e-06	4.746837e-09	4.534860e+01	3.123760e+02
1.310000e-06	6.497397e-06	4.787072e-09	4.599799e+01	3.151476e+02
1.320000e-06	6.586824e-06	4.825286e-09	4.663109e+01	3.177550e+02
1.330000e-06	6.673809e-06	4.863007e-09	4.724689e+01	3.201991e+02
1.340000e-06	6.758472e-06	4.899061e-09	4.784627e+01	3.224845e+02
1.350000e-06	6.840870e-06	4.931095e-09	4.842960e+01	3.246195e+02
1.360000e-06	6.920799e-06	4.960328e-09	4.899545e+01	3.266156e+02
1.370000e-06	6.998115e-06	4.989375e-09	4.954280e+01	3.284865e+02
1.380000e-06	7.072745e-06	5.017558e-09	5.007114e+01	3.302462e+02
1.390000e-06	7.144690e-06	5.044640e-09	5.058047e+01	3.319082e+02
1.400000e-06	7.214181e-06	5.069522e-09	5.107243e+01	3.334836e+02
1.410000e-06	7.281163e-06	5.092657e-09	5.154663e+01	3.349804e+02
1.420000e-06	7.345482e-06	5.114473e-09	5.200197e+01	3.364027e+02
1.430000e-06	7.407274e-06	5.133516e-09	5.243942e+01	3.377513e+02
1.440000e-06	7.466546e-06	5.151694e-09	5.285904e+01	3.390237e+02
1.450000e-06	7.523177e-06	5.169979e-09	5.325995e+01	3.402155e+02
1.460000e-06	7.577041e-06	5.187557e-09	5.364128e+01	3.413216e+02
1.470000e-06	7.627830e-06	5.204309e-09	5.400084e+01	3.423376e+02
1.480000e-06	7.675549e-06	5.219782e-09	5.433866e+01	3.432611e+02
1.490000e-06	7.720566e-06	5.234276e-09	5.465736e+01	3.440926e+02
1.500000e-06	7.762852e-06	5.246642e-09	5.495672e+01	3.448356e+02
1.510000e-06	7.802277e-06	5.256895e-09	5.523583e+01	3.454968e+02
1.520000e-06	7.839009e-06	5.266291e-09	5.549587e+01	3.460855e+02
1.530000e-06	7.873061e-06	5.274568e-09	5.573694e+01	3.466119e+02
1.540000e-06	7.904270e-06	5.283265e-09	5.595788e+01	3.470864e+02
1.550000e-06	7.932696e-06	5.292995e-09	5.615912e+01	3.475180e+02
1.560000e-06	7.958266e-06	5.302210e-09	5.634014e+01	3.479129e+02
1.570000e-06	7.980919e-06	5.309628e-09	5.650051e+01	3.482739e+02
1.580000e-06	8.000856e-06	5.315579e-09	5.664166e+01	3.485999e+02
1.590000e-06	8.017927e-06	5.321543e-09	5.676251e+01	3.488862e+02
1.600000e-06	8.031898e-06	5.326189e-09	5.686142e+01	3.491252e+02
1.610000e-06	8.042713e-06	5.328641e-09	5.693799e+01	3.493076e+02
1.620000e-06	8.050424e-06	5.329705e-09	5.699257e+01	3.494239e+02
1.630000e-06	8.055290e-06	5.330519e-09	5.702702e+01	3.494660e+02
1.640000e-06	8.057335e-06	5.330703e-09	5.704150e+01	3.494284e+02
1.650000e-06	8.056508e-06	5.329645e-09	5.703564e+01	3.493095e+02
1.660000e-06	8.053023e-06	5.326396e-09	5.701097e+01	3.491119e+02
1.670000e-06	8.046865e-06	5.323395e-09	5.696738e+01	3.488422e+02
1.680000e-06	8.037966e-06	5.320522e-09	5.690438e+01	3.485108e+02
1.690000e-06	8.026399e-06	5.316388e-09	5.682249e+01	3.481305e+02
1.700000e-06	8.012040e-06	5.310945e-09	5.672084e+01	3.477151e+02
1.710000e-06	7.995032e-06	5.302108e-09	5.660043e+01	3.472775e+02
1.720000e-06	7.975729e-06	5.284558e-09	5.646377e+01	3.468289e+02
1.730000e-06	7.953900e-06	5.259501e-09	5.630924e+01	3.463766e+02
1.740000e-06	7.928855e-06	5.222279e-09	5.613193e+01	3.459238e+02
1.750000e-06	7.900177e-06	5.225503e-09	5.592891e+01	3.454692e+02
1.760000e-06	7.868088e-06	5.238838e-09	5.570173e+01	3.450067e+02
1.770000e-06	7.833312e-06	5.238646e-09	5.545554e+01	3.445269e+02
1.780000e-06	7.796229e-06	5.239157e-09	5.519301e+01	3.440176e+02
1.790000e-06	7.756932e-06	5.271420e-09	5.491481e+01	3.434654e+02
1.800000e-06	7.715592e-06	5.227563e-09	5.462214e+01	3.428572e+02
1.810000e-06	7.671840e-06	5.192851e-09	5.431240e+01	3.421812e+02
1.820000e-06	7.625435e-06	5.236382e-09	5.398388e+01	3.414283e+02
1.830000e-06	7.576214e-06	5.179347e-09	5.363543e+01	3.405925e+02
1.840000e-06	7.523832e-06	5.190482e-09	5.326459e+01	3.396710e+02
1.850000e-06	7.468530e-06	5.167384e-09	5.287308e+01	3.386646e+02
1.860000e-06	7.410567e-06	5.151876e-09	5.246274e+01	3.375764e+02
1.870000e-06	7.350033e-06	5.165446e-09	5.203419e+01	3.364116e+02
1.880000e-06	7.286802e-06	5.109019e-09	5.158655e+01	3.351763e+02
1.890000e-06	7.220701e-06	5.117975e-09	5.111859e+01	3.338766e+02
1.900000e-06	7.151814e-06	5.060061e-09	5.063091e+01	3.325179e+02
1.910000e-06	7.080068e-06	5.048753e-09	5.012298e+01	3.311042e+02
1.920000e-06	7.005623e-06	5.042467e-09	4.959596e+01	3.296377e+02
1.930000e-06	6.928429e-06	5.003242e-09	4.904947e+01	3.281189e+02
1.940000e-06	6.848453e-06	5.003095e-09	4.848328e+01	3.265465e+02
1.950000e-06	6.766006e-06	4.947427e-09	4.789960e+01	3.249179e+02
1.960000e-06	6.681100e-06	4.940829e-09	4.729851e+01	3.232294e+02
1.970000e-06	6.593654e-06	4.901279e-09	4.667944e+01	3.214769e+02
1.980000e-06	6.503768e-06	4.876955e-09	4.604310e+01	3.196562e+02
1.990000e-06	6.411637e-06	4.857018e-09	4.539086e+01	3.177633e+02
2.000000e-06	6.317260e-06	4.810884e-09	4.472272e+01	3.157949e+02
2.010000e-06	6.220596e-06	4.789775e-09	4.403839e+01	3.137482e+02
2.020000e-06	6.121760e-06	4.751941e-09	4.333869e+01	3.116212e+02
2.030000e-06	6.020787e-06	4.728625e-09	4.262386e+01	3.094126e+02
2.040000e-06	5.917603e-06	4.679078e-09	4.189337e+01	3.071215e+02
2.050000e-06	5.812322e-06	4.647598e-09	4.114804e+01	3.047478e+02
2.060000e-06	5.705147e-06	4.613940e-09	4.038930e+01	3.022915e+02
2.070000e-06	5.596025e-06	4.577155e-09	3.961678e+01	2.997529e+02
2.080000e-06	5.484844e-06	4.537739e-09	3.882968e+01	2.971323e+02
2.090000e-06	5.371602e-06	4.495782e-09	3.802799e+01	2.944298e+02
2.100000e-06	5.256311e-06	4.454745e-09	3.721179e+01	2.916454e+02
2.110000e-06	5.138924e-06	4.405465e-09	3.638075e+01	2.887786e+02
2.120000e-06	5.019483e-06	4.366649e-09	3.553518e+01	2.858282e+02
2.130000e-06	4.898234e-06	4.321189e-09	3.467680e+01	2.827922e+02
2.140000e-06	4.775238e-06	4.275827e-09	3.380606e+01	2.796677e+02
2.150000e-06	4.650492e-06	4.222657e-09	3.292292e+01	2.764507e+02
2.160000e-06	4.524043e-06	4.174597e-09	3.202773e+01	2.731365e+02
2.170000e-06	4.395888e-06	4.122582e-09	3.112047e+01	2.697195e+02
2.180000e-06	4.266174e-06	4.069355e-09	3.020217e+01	2.661935e+02
2.190000e-06	4.134962e-06	4.012779e-09	2.927325e+01	2.625525e+02
2.200000e-06	4.002154e-06	3.955094e-09	2.833305e+01	2.587905e+02
2.210000e-06	3.867851e-06	3.896073e-09	2.738226e+01	2.549027e+02
2.220000e-06	3.732085e-06	3.835759e-09	2.642111e+01	2.508851e+02
2.230000e-06	3.594885e-06	3.774403e-09	2.544981e+01	2.467350e+02
2.240000e-06	3.456325e-06	3.709392e-09	2.446888e+01	2.424514e+02
2.250000e-06	3.316421e-06	3.641879e-09	2.347844e+01	2.380340e+02
2.260000e-06	3.175258e-06	3.571845e-09	2.247908e+01	2.334835e+02
2.270000e-06	3.032847e-06	3.502447e-09	2.147089e+01	2.288004e+02
2.280000e-06	2.889168e-06	3.429341e-09	2.045372e+01	2.239848e+02
2.290000e-06	2.744407e-06	3.354375e-09	1.942889e+01	2.190353e+02
2.300000e-06	2.598826e-06	3.275232e-09	1.839826e+01	2.139482e+02
2.310000e-06	2.452442e-06	3.197315e-09	1.736194e+01	2.087178e+02
2.320000e-06	2.305232e-06	3.117558e-09	1.631978e+01	2.033356e+02
2.330000e-06	2.157141e-06	3.033548e-09	1.527137e+01	1.977909e+02
2.340000e-06	2.008198e-06	2.943737e-09	1.421693e+01	1.920714e+02
2.350000e-06	1.858608e-06	2.850877e-09	1.315793e+01	1.861639e+02
2.360000e-06	1.708494e-06	2.756448e-09	1.209520e+01	1.800555e+02
2.370000e-06	1.557864e-06	2.658684e-09	1.102882e+01	1.737345e+02
2.380000e-06	1.406752e-06	2.560092e-09	9.959027e+00	1.671910e+02
2.390000e-06	1.255196e-06	2.458856e-09	8.886094e+00	1.604177e+02
2.400000e-06	1.103217e-06	2.352902e-09	7.810173e+00	1.534096e+02
2.410000e-06	9.508248e-07	2.241714e-09	6.731316e+00	1.461634e+02
2.420000e-06	7.980452e-07	2.128371e-09	5.649721e+00	1.386765e+02
2.430000e-06	6.449566e-07	2.012859e-09	4.565938e+00	1.309456e+02
2.440000e-06	4.916470e-07	1.891893e-09	3.480590e+00	1.229647e+02
2.450000e-06	3.381895e-07	1.767860e-09	2.394196e+00	1.147237e+02
2.460000e-06	1.845950e-07	1.639149e-09	1.306831e+00	1.062070e+02
2.470000e-06	3.086093e-08	1.503966e-09	2.184784e-01	9.739291e+01
2.480000e-06	-1.229699e-07	1.362322e-09	-8.705592e-01	8.825401e+01
2.490000e-06	-2.767333e-07	1.216222e-09	-1.959120e+00	7.875809e+01
2.500000e-06	-4.303419e-07	1.065913e-09	-3.046584e+00	6.887069e+01
2.510000e-06	-5.838024e-07	9.092490e-10	-4.133000e+00	5.855828e+01
2.520000e-06	-7.370735e-07	7.469280e-10	-5.218075e+00	4.779216e+01
2.530000e-06	-8.900848e-07	5.757299e-10	-6.301310e+00	3.655275e+01
2.540000e-06	-1.042741e-06	3.957180e-10	-7.382035e+00	2.483378e+01
2.550000e-06	-1.195002e-06	2.094840e-10	-8.459958e+00	1.264581e+01
2.560000e-06	-1.346857e-06	1.721500e-11	-9.535007e+00	1.888891e-02
2.570000e-06	-1.498231e-06	-1.806188e-10	-1.060665e+01	-1.299634e+01
2.580000e-06	-1.649079e-06	-3.859531e-10	-1.167457e+01	-2.632900e+01
2.590000e-06	-1.799352e-06	-5.973515e-10	-1.273842e+01	-3.989013e+01
2.600000e-06	-1.948941e-06	-8.101318e-10	-1.379743e+01	-5.357635e+01
2.610000e-06	-2.097781e-06	-1.022646e-09	-1.485113e+01	-6.727488e+01
2.620000e-06	-2.245752e-06	-1.234092e-09	-1.589869e+01	-8.086935e+01
2.630000e-06	-2.392845e-06	-1.442747e-09	-1.694002e+01	-9.424607e+01
2.640000e-06	-2.539103e-06	-1.647944e-09	-1.797545e+01	-1.073000e+02
2.650000e-06	-2.684445e-06	-1.844846e-09	-1.900439e+01	-1.199399e+02
2.660000e-06	-2.828792e-06	-2.028664e-09	-2.002629e+01	-1.320924e+02
2.670000e-06	-2.972049e-06	-2.199933e-09	-2.104047e+01	-1.437046e+02
2.680000e-06	-3.114107e-06	-2.362133e-09	-2.204617e+01	-1.547445e+02
2.690000e-06	-3.254919e-06	-2.520423e-09	-2.304304e+01	-1.652006e+02
2.700000e-06	-3.394404e-06	-2.673178e-09	-2.403051e+01	-1.750792e+02
2.710000e-06	-3.532617e-06	-2.818738e-09	-2.500899e+01	-1.844009e+02
2.720000e-06	-3.669543e-06	-2.956128e-09	-2.597835e+01	-1.931969e+02
2.730000e-06	-3.805084e-06	-3.084830e-09	-2.693790e+01	-2.015044e+02
2.740000e-06	-3.939232e-06	-3.207482e-09	-2.788759e+01	-2.093627e+02
2.750000e-06	-4.071967e-06	-3.323484e-09	-2.882728e+01	-2.168100e+02
2.760000e-06	-4.203267e-06	-3.430224e-09	-2.975681e+01	-2.238807e+02
2.770000e-06	-4.333148e-06	-3.529526e-09	-3.067631e+01	-2.306044e+02
2.780000e-06	-4.461620e-06	-3.623786e-09	-3.158582e+01	-2.370052e+02
2.790000e-06	-4.588558e-06	-3.714974e-09	-3.248447e+01	-2.431025e+02
2.800000e-06	-4.713837e-06	-3.802998e-09	-3.337137e+01	-2.489121e+02
2.810000e-06	-4.837440e-06	-3.887022e-09	-3.424641e+01	-2.544477e+02
2.820000e-06	-4.959349e-06	-3.968539e-09	-3.510946e+01	-2.597222e+02
2.830000e-06	-5.079501e-06	-4.045684e-09	-3.596007e+01	-2.647490e+02
2.840000e-06	-5.197695e-06	-4.119124e-09	-3.679682e+01	-2.695424e+02
2.850000e-06	-5.313725e-06	-4.190156e-09	-3.761825e+01	-2.741181e+02
2.860000e-06	-5.427570e-06	-4.258463e-09	-3.842421e+01	-2.784926e+02
2.870000e-06	-5.539185e-06	-4.324041e-09	-3.921438e+01	-2.826821e+02
2.880000e-06	-5.648715e-06	-4.385312e-09	-3.998979e+01	-2.867016e+02
2.890000e-06	-5.756400e-06	-4.444428e-09	-4.075214e+01	-2.905634e+02
2.900000e-06	-5.862150e-06	-4.503019e-09	-4.150080e+01	-2.942768e+02
2.910000e-06	-5.965727e-06	-4.560172e-09	-4.223406e+01	-2.978468e+02
2.920000e-06	-6.067029e-06	-4.614448e-09	-4.295123e+01	-3.012745e+02
2.930000e-06	-6.166099e-06	-4.664976e-09	-4.365259e+01	-3.045577e+02
2.940000e-06	-6.263041e-06	-4.713386e-09	-4.433888e+01	-3.076916e+02
