# Temperatura_=_42.18
# Concentracion g/m^3_=_5000.0
# C_Vs_to_Am_M_A/Vsm_=_65563218390.804596
# pendiente_HvsI_1/m_=_3716.3
# ordenada_HvsI_A/m_=_1297.0
# frecuencia_Hz_=_302510.0275599616

Tiempo_(s)	Campo_(V.s)	Magnetizacion_(V.s)	Campo_(kA/m)	Magnetizacion_(A/m)
0.000000e+00	-8.013972e-06	-5.566664e-09	-5.686542e+01	-3.638182e+02
1.000000e-08	-8.009549e-06	-5.563624e-09	-5.683403e+01	-3.635621e+02
2.000000e-08	-8.002569e-06	-5.558622e-09	-5.678451e+01	-3.632338e+02
3.000000e-08	-7.992800e-06	-5.555346e-09	-5.671519e+01	-3.628458e+02
4.000000e-08	-7.980062e-06	-5.550637e-09	-5.662480e+01	-3.624119e+02
5.000000e-08	-7.964326e-06	-5.543615e-09	-5.651314e+01	-3.619454e+02
6.000000e-08	-7.945963e-06	-5.533829e-09	-5.638284e+01	-3.614579e+02
7.000000e-08	-7.925394e-06	-5.526875e-09	-5.623689e+01	-3.609576e+02
8.000000e-08	-7.902225e-06	-5.555977e-09	-5.607249e+01	-3.604483e+02
9.000000e-08	-7.875835e-06	-5.574396e-09	-5.588523e+01	-3.599296e+02
1.000000e-07	-7.846225e-06	-5.540986e-09	-5.567512e+01	-3.593965e+02
1.100000e-07	-7.813780e-06	-5.507053e-09	-5.544490e+01	-3.588404e+02
1.200000e-07	-7.778622e-06	-5.490732e-09	-5.519543e+01	-3.582502e+02
1.300000e-07	-7.740999e-06	-5.461929e-09	-5.492846e+01	-3.576134e+02
1.400000e-07	-7.701273e-06	-5.408321e-09	-5.464657e+01	-3.569178e+02
1.500000e-07	-7.659238e-06	-5.433914e-09	-5.434830e+01	-3.561526e+02
1.600000e-07	-7.614485e-06	-5.450492e-09	-5.403074e+01	-3.553092e+02
1.700000e-07	-7.566978e-06	-5.375070e-09	-5.369364e+01	-3.543818e+02
1.800000e-07	-7.516571e-06	-5.393205e-09	-5.333597e+01	-3.533676e+02
1.900000e-07	-7.463125e-06	-5.390215e-09	-5.295673e+01	-3.522668e+02
2.000000e-07	-7.406840e-06	-5.338771e-09	-5.255734e+01	-3.510816e+02
2.100000e-07	-7.347840e-06	-5.329810e-09	-5.213869e+01	-3.498157e+02
2.200000e-07	-7.286291e-06	-5.305364e-09	-5.170195e+01	-3.484735e+02
2.300000e-07	-7.222176e-06	-5.280935e-09	-5.124701e+01	-3.470592e+02
2.400000e-07	-7.155201e-06	-5.246442e-09	-5.077176e+01	-3.455765e+02
2.500000e-07	-7.085411e-06	-5.248141e-09	-5.027655e+01	-3.440279e+02
2.600000e-07	-7.012902e-06	-5.230646e-09	-4.976204e+01	-3.424146e+02
2.700000e-07	-6.937600e-06	-5.179401e-09	-4.922771e+01	-3.407367e+02
2.800000e-07	-6.859446e-06	-5.142851e-09	-4.867315e+01	-3.389934e+02
2.900000e-07	-6.778536e-06	-5.121877e-09	-4.809903e+01	-3.371832e+02
3.000000e-07	-6.695250e-06	-5.109278e-09	-4.750805e+01	-3.353041e+02
3.100000e-07	-6.609779e-06	-5.074511e-09	-4.690157e+01	-3.333544e+02
3.200000e-07	-6.521945e-06	-5.045398e-09	-4.627832e+01	-3.313322e+02
3.300000e-07	-6.431681e-06	-5.018898e-09	-4.563782e+01	-3.292361e+02
3.400000e-07	-6.339132e-06	-4.980884e-09	-4.498111e+01	-3.270646e+02
3.500000e-07	-6.244338e-06	-4.943321e-09	-4.430848e+01	-3.248165e+02
3.600000e-07	-6.147232e-06	-4.914180e-09	-4.361943e+01	-3.224907e+02
3.700000e-07	-6.047884e-06	-4.883042e-09	-4.291448e+01	-3.200859e+02
3.800000e-07	-5.946381e-06	-4.836376e-09	-4.219424e+01	-3.176006e+02
3.900000e-07	-5.842743e-06	-4.795209e-09	-4.145885e+01	-3.150334e+02
4.000000e-07	-5.737027e-06	-4.758968e-09	-4.070871e+01	-3.123828e+02
4.100000e-07	-5.629369e-06	-4.716408e-09	-3.994479e+01	-3.096475e+02
4.200000e-07	-5.519734e-06	-4.670184e-09	-3.916684e+01	-3.068265e+02
4.300000e-07	-5.408029e-06	-4.627224e-09	-3.837421e+01	-3.039190e+02
4.400000e-07	-5.294269e-06	-4.583698e-09	-3.756700e+01	-3.009247e+02
4.500000e-07	-5.178419e-06	-4.538130e-09	-3.674495e+01	-2.978434e+02
4.600000e-07	-5.060600e-06	-4.491313e-09	-3.590893e+01	-2.946748e+02
4.700000e-07	-4.940946e-06	-4.442529e-09	-3.505989e+01	-2.914182e+02
4.800000e-07	-4.819487e-06	-4.387842e-09	-3.419804e+01	-2.880724e+02
4.900000e-07	-4.696288e-06	-4.328658e-09	-3.332385e+01	-2.846349e+02
5.000000e-07	-4.571432e-06	-4.273747e-09	-3.243789e+01	-2.811019e+02
5.100000e-07	-4.444939e-06	-4.222799e-09	-3.154033e+01	-2.774685e+02
5.200000e-07	-4.316740e-06	-4.169429e-09	-3.063066e+01	-2.737288e+02
5.300000e-07	-4.186881e-06	-4.106568e-09	-2.970920e+01	-2.698757e+02
5.400000e-07	-4.055532e-06	-4.038800e-09	-2.877718e+01	-2.659024e+02
5.500000e-07	-3.922671e-06	-3.973442e-09	-2.783443e+01	-2.618024e+02
5.600000e-07	-3.788316e-06	-3.912105e-09	-2.688108e+01	-2.575702e+02
5.700000e-07	-3.652534e-06	-3.848662e-09	-2.591759e+01	-2.532020e+02
5.800000e-07	-3.515341e-06	-3.782044e-09	-2.494410e+01	-2.486958e+02
5.900000e-07	-3.376743e-06	-3.712257e-09	-2.396064e+01	-2.440513e+02
6.000000e-07	-3.236697e-06	-3.637330e-09	-2.296690e+01	-2.392698e+02
6.100000e-07	-3.095259e-06	-3.559384e-09	-2.196329e+01	-2.343535e+02
6.200000e-07	-2.952515e-06	-3.481558e-09	-2.095041e+01	-2.293043e+02
6.300000e-07	-2.808540e-06	-3.403478e-09	-1.992879e+01	-2.241228e+02
6.400000e-07	-2.663564e-06	-3.319224e-09	-1.890008e+01	-2.188080e+02
6.500000e-07	-2.517764e-06	-3.231761e-09	-1.786551e+01	-2.133557e+02
6.600000e-07	-2.371133e-06	-3.145346e-09	-1.682505e+01	-2.077586e+02
6.700000e-07	-2.223733e-06	-3.059811e-09	-1.577913e+01	-2.020065e+02
6.800000e-07	-2.075660e-06	-2.972032e-09	-1.472844e+01	-1.960866e+02
6.900000e-07	-1.926995e-06	-2.878639e-09	-1.367354e+01	-1.899844e+02
7.000000e-07	-1.777725e-06	-2.781500e-09	-1.261435e+01	-1.836853e+02
7.100000e-07	-1.627835e-06	-2.679763e-09	-1.155076e+01	-1.771756e+02
7.200000e-07	-1.477352e-06	-2.576840e-09	-1.048297e+01	-1.704440e+02
7.300000e-07	-1.326363e-06	-2.470105e-09	-9.411587e+00	-1.634822e+02
7.400000e-07	-1.174940e-06	-2.356983e-09	-8.337121e+00	-1.562855e+02
7.500000e-07	-1.023085e-06	-2.243368e-09	-7.259593e+00	-1.488519e+02
7.600000e-07	-8.708779e-07	-2.131163e-09	-6.179562e+00	-1.411813e+02
7.700000e-07	-7.183787e-07	-2.013395e-09	-5.097461e+00	-1.332736e+02
7.800000e-07	-5.655445e-07	-1.888547e-09	-4.012982e+00	-1.251268e+02
7.900000e-07	-4.124580e-07	-1.760623e-09	-2.926713e+00	-1.167345e+02
8.000000e-07	-2.592206e-07	-1.626959e-09	-1.839374e+00	-1.080842e+02
8.100000e-07	-1.058462e-07	-1.486450e-09	-7.510617e-01	-9.915566e+01
8.200000e-07	4.761804e-08	-1.340302e-09	3.378874e-01	-8.992113e+01
8.300000e-07	2.011092e-07	-1.190676e-09	1.427028e+00	-8.034580e+01
8.400000e-07	3.545492e-07	-1.036666e-09	2.515805e+00	-7.039026e+01
8.500000e-07	5.079351e-07	-8.783613e-10	3.604198e+00	-6.001383e+01
8.600000e-07	6.611792e-07	-7.144531e-10	4.691586e+00	-4.917908e+01
8.700000e-07	8.141191e-07	-5.433884e-10	5.776814e+00	-3.785674e+01
8.800000e-07	9.667625e-07	-3.647636e-10	6.859938e+00	-2.603083e+01
8.900000e-07	1.119060e-06	-1.790690e-10	7.940610e+00	-1.370316e+01
9.000000e-07	1.270915e-06	1.146838e-11	9.018142e+00	-8.968240e-01
9.100000e-07	1.422306e-06	2.091105e-10	1.009238e+01	1.234187e+01
9.200000e-07	1.573219e-06	4.146300e-10	1.116322e+01	2.594337e+01
9.300000e-07	1.723523e-06	6.254999e-10	1.222975e+01	3.981683e+01
9.400000e-07	1.873111e-06	8.393113e-10	1.329119e+01	5.385400e+01
9.500000e-07	2.022030e-06	1.055542e-09	1.434789e+01	6.793471e+01
9.600000e-07	2.170259e-06	1.269971e-09	1.539969e+01	8.193353e+01
9.700000e-07	2.317724e-06	1.478464e-09	1.644607e+01	9.572690e+01
9.800000e-07	2.464343e-06	1.682756e-09	1.748645e+01	1.092001e+02
9.900000e-07	2.610034e-06	1.880265e-09	1.852024e+01	1.222535e+02
1.000000e-06	2.754790e-06	2.068226e-09	1.954740e+01	1.348070e+02
1.010000e-06	2.898543e-06	2.245813e-09	2.056743e+01	1.468035e+02
1.020000e-06	3.041158e-06	2.414856e-09	2.157940e+01	1.582093e+02
1.030000e-06	3.182539e-06	2.577837e-09	2.258261e+01	1.690134e+02
1.040000e-06	3.322603e-06	2.732168e-09	2.357647e+01	1.792245e+02
1.050000e-06	3.461422e-06	2.880000e-09	2.456151e+01	1.888673e+02
1.060000e-06	3.598880e-06	3.021673e-09	2.553688e+01	1.979772e+02
1.070000e-06	3.734845e-06	3.158480e-09	2.650165e+01	2.065953e+02
1.080000e-06	3.869445e-06	3.286469e-09	2.745675e+01	2.147642e+02
1.090000e-06	4.002703e-06	3.403759e-09	2.840232e+01	2.225237e+02
1.100000e-06	4.134544e-06	3.513913e-09	2.933783e+01	2.299084e+02
1.110000e-06	4.264960e-06	3.618932e-09	3.026324e+01	2.369464e+02
1.120000e-06	4.393887e-06	3.719428e-09	3.117808e+01	2.436591e+02
1.130000e-06	4.521162e-06	3.814771e-09	3.208119e+01	2.500625e+02
1.140000e-06	4.646880e-06	3.906565e-09	3.297326e+01	2.561687e+02
1.150000e-06	4.771103e-06	3.996818e-09	3.385472e+01	2.619883e+02
1.160000e-06	4.893654e-06	4.083522e-09	3.472431e+01	2.675321e+02
1.170000e-06	5.014456e-06	4.164824e-09	3.558150e+01	2.728127e+02
1.180000e-06	5.133417e-06	4.241516e-09	3.642562e+01	2.778456e+02
1.190000e-06	5.250493e-06	4.312148e-09	3.725637e+01	2.826491e+02
1.200000e-06	5.365589e-06	4.378555e-09	3.807307e+01	2.872432e+02
1.210000e-06	5.478551e-06	4.443558e-09	3.887462e+01	2.916490e+02
1.220000e-06	5.589453e-06	4.509125e-09	3.966155e+01	2.958864e+02
1.230000e-06	5.698403e-06	4.573050e-09	4.043464e+01	2.999723e+02
1.240000e-06	5.805356e-06	4.633895e-09	4.119356e+01	3.039193e+02
1.250000e-06	5.910193e-06	4.692774e-09	4.193745e+01	3.077349e+02
1.260000e-06	6.012856e-06	4.750873e-09	4.266593e+01	3.114207e+02
1.270000e-06	6.113350e-06	4.804463e-09	4.337902e+01	3.149733e+02
1.280000e-06	6.211551e-06	4.852463e-09	4.407583e+01	3.183856e+02
1.290000e-06	6.307303e-06	4.897988e-09	4.475527e+01	3.216482e+02
1.300000e-06	6.400786e-06	4.941032e-09	4.541860e+01	3.247516e+02
1.310000e-06	6.492085e-06	4.982001e-09	4.606644e+01	3.276883e+02
1.320000e-06	6.581000e-06	5.020937e-09	4.669736e+01	3.304545e+02
1.330000e-06	6.667546e-06	5.059021e-09	4.731147e+01	3.330508e+02
1.340000e-06	6.751844e-06	5.097183e-09	4.790963e+01	3.354829e+02
1.350000e-06	6.833807e-06	5.132750e-09	4.849122e+01	3.377613e+02
1.360000e-06	6.913278e-06	5.167893e-09	4.905513e+01	3.399000e+02
1.370000e-06	6.990196e-06	5.200821e-09	4.960092e+01	3.419147e+02
1.380000e-06	7.064402e-06	5.229653e-09	5.012748e+01	3.438216e+02
1.390000e-06	7.135906e-06	5.256697e-09	5.063486e+01	3.456348e+02
1.400000e-06	7.204990e-06	5.282989e-09	5.112506e+01	3.473652e+02
1.410000e-06	7.271598e-06	5.309178e-09	5.159770e+01	3.490195e+02
1.420000e-06	7.335541e-06	5.332744e-09	5.205142e+01	3.505996e+02
1.430000e-06	7.396950e-06	5.354661e-09	5.248717e+01	3.521032e+02
1.440000e-06	7.455827e-06	5.376075e-09	5.290494e+01	3.535248e+02
1.450000e-06	7.512020e-06	5.395202e-09	5.330368e+01	3.548571e+02
1.460000e-06	7.565469e-06	5.413057e-09	5.368294e+01	3.560926e+02
1.470000e-06	7.615868e-06	5.430245e-09	5.404056e+01	3.572256e+02
1.480000e-06	7.663168e-06	5.446250e-09	5.437619e+01	3.582531e+02
1.490000e-06	7.707778e-06	5.461031e-09	5.469273e+01	3.591762e+02
1.500000e-06	7.749659e-06	5.473168e-09	5.498991e+01	3.599997e+02
1.510000e-06	7.788638e-06	5.485177e-09	5.526650e+01	3.607321e+02
1.520000e-06	7.824993e-06	5.498461e-09	5.552447e+01	3.613845e+02
1.530000e-06	7.858649e-06	5.509936e-09	5.576328e+01	3.619691e+02
1.540000e-06	7.889387e-06	5.519880e-09	5.598139e+01	3.624973e+02
1.550000e-06	7.917345e-06	5.529885e-09	5.617977e+01	3.629785e+02
1.560000e-06	7.942452e-06	5.538466e-09	5.635793e+01	3.634188e+02
1.570000e-06	7.964716e-06	5.544157e-09	5.651591e+01	3.638200e+02
1.580000e-06	7.984297e-06	5.548259e-09	5.665485e+01	3.641797e+02
1.590000e-06	8.000991e-06	5.552551e-09	5.677331e+01	3.644915e+02
1.600000e-06	8.014578e-06	5.556047e-09	5.686972e+01	3.647466e+02
1.610000e-06	8.025004e-06	5.557656e-09	5.694370e+01	3.649347e+02
1.620000e-06	8.032402e-06	5.559566e-09	5.699619e+01	3.650461e+02
1.630000e-06	8.037017e-06	5.563738e-09	5.702894e+01	3.650732e+02
1.640000e-06	8.038787e-06	5.569378e-09	5.704150e+01	3.650117e+02
1.650000e-06	8.037671e-06	5.567864e-09	5.703358e+01	3.648617e+02
1.660000e-06	8.033969e-06	5.559768e-09	5.700731e+01	3.646277e+02
1.670000e-06	8.027636e-06	5.553744e-09	5.696237e+01	3.643184e+02
1.680000e-06	8.018545e-06	5.549137e-09	5.689787e+01	3.639455e+02
1.690000e-06	8.006730e-06	5.544159e-09	5.681403e+01	3.635228e+02
1.700000e-06	7.992055e-06	5.540179e-09	5.670990e+01	3.630638e+02
1.710000e-06	7.974786e-06	5.538899e-09	5.658736e+01	3.625808e+02
1.720000e-06	7.955296e-06	5.519677e-09	5.644906e+01	3.620831e+02
1.730000e-06	7.933256e-06	5.455770e-09	5.629267e+01	3.615757e+02
1.740000e-06	7.907896e-06	5.437006e-09	5.611273e+01	3.610596e+02
1.750000e-06	7.878830e-06	5.458843e-09	5.590648e+01	3.605308e+02
1.760000e-06	7.846449e-06	5.452434e-09	5.567671e+01	3.599818e+02
1.770000e-06	7.811544e-06	5.447619e-09	5.542903e+01	3.594021e+02
1.780000e-06	7.774394e-06	5.500050e-09	5.516542e+01	3.587794e+02
1.790000e-06	7.735075e-06	5.478321e-09	5.488643e+01	3.581013e+02
1.800000e-06	7.693618e-06	5.411232e-09	5.459225e+01	3.573565e+02
1.810000e-06	7.649668e-06	5.450279e-09	5.428039e+01	3.565356e+02
1.820000e-06	7.603140e-06	5.414520e-09	5.395025e+01	3.556321e+02
1.830000e-06	7.553784e-06	5.409267e-09	5.360003e+01	3.546423e+02
1.840000e-06	7.501319e-06	5.403565e-09	5.322775e+01	3.535656e+02
1.850000e-06	7.445928e-06	5.355048e-09	5.283470e+01	3.524037e+02
1.860000e-06	7.387788e-06	5.363834e-09	5.242215e+01	3.511599e+02
1.870000e-06	7.327066e-06	5.309906e-09	5.199128e+01	3.498385e+02
1.880000e-06	7.263603e-06	5.318854e-09	5.154096e+01	3.484439e+02
1.890000e-06	7.197304e-06	5.298506e-09	5.107052e+01	3.469800e+02
1.900000e-06	7.128284e-06	5.238330e-09	5.058077e+01	3.454495e+02
1.910000e-06	7.056397e-06	5.250347e-09	5.007067e+01	3.438541e+02
1.920000e-06	6.981773e-06	5.222771e-09	4.954116e+01	3.421942e+02
1.930000e-06	6.904494e-06	5.211174e-09	4.899280e+01	3.404693e+02
1.940000e-06	6.824493e-06	5.172861e-09	4.842513e+01	3.386778e+02
1.950000e-06	6.741937e-06	5.137322e-09	4.783934e+01	3.368182e+02
1.960000e-06	6.656874e-06	5.113449e-09	4.723574e+01	3.348883e+02
1.970000e-06	6.569325e-06	5.059807e-09	4.661452e+01	3.328865e+02
1.980000e-06	6.479427e-06	5.043998e-09	4.597662e+01	3.308111e+02
1.990000e-06	6.387338e-06	5.022649e-09	4.532317e+01	3.286608e+02
2.000000e-06	6.292981e-06	4.986563e-09	4.465364e+01	3.264342e+02
2.010000e-06	6.196269e-06	4.937315e-09	4.396739e+01	3.241303e+02
2.020000e-06	6.097354e-06	4.900659e-09	4.326551e+01	3.217476e+02
2.030000e-06	5.996309e-06	4.867250e-09	4.254852e+01	3.192850e+02
2.040000e-06	5.893124e-06	4.825474e-09	4.181634e+01	3.167408e+02
2.050000e-06	5.787831e-06	4.792321e-09	4.106920e+01	3.141137e+02
2.060000e-06	5.680614e-06	4.753660e-09	4.030842e+01	3.114022e+02
2.070000e-06	5.571482e-06	4.709382e-09	3.953403e+01	3.086053e+02
2.080000e-06	5.460356e-06	4.658501e-09	3.874551e+01	3.057220e+02
2.090000e-06	5.347179e-06	4.616663e-09	3.794243e+01	3.027521e+02
2.100000e-06	5.231893e-06	4.576165e-09	3.712439e+01	2.996951e+02
2.110000e-06	5.114559e-06	4.529722e-09	3.629181e+01	2.965510e+02
2.120000e-06	4.995286e-06	4.477930e-09	3.544548e+01	2.933192e+02
2.130000e-06	4.874155e-06	4.426289e-09	3.458595e+01	2.899986e+02
2.140000e-06	4.751217e-06	4.378173e-09	3.371362e+01	2.865871e+02
2.150000e-06	4.626572e-06	4.326641e-09	3.282916e+01	2.830813e+02
2.160000e-06	4.500202e-06	4.270777e-09	3.193246e+01	2.794767e+02
2.170000e-06	4.372177e-06	4.213340e-09	3.102402e+01	2.757675e+02
2.180000e-06	4.242618e-06	4.156514e-09	3.010470e+01	2.719470e+02
2.190000e-06	4.111522e-06	4.098534e-09	2.917447e+01	2.680083e+02
2.200000e-06	3.978906e-06	4.038872e-09	2.823346e+01	2.639446e+02
2.210000e-06	3.844778e-06	3.976250e-09	2.728172e+01	2.597502e+02
2.220000e-06	3.709171e-06	3.909122e-09	2.631948e+01	2.554206e+02
2.230000e-06	3.572239e-06	3.836189e-09	2.534784e+01	2.509534e+02
2.240000e-06	3.433949e-06	3.765652e-09	2.436656e+01	2.463478e+02
2.250000e-06	3.294277e-06	3.699013e-09	2.337548e+01	2.416048e+02
2.260000e-06	3.153305e-06	3.629198e-09	2.237517e+01	2.367263e+02
2.270000e-06	3.010987e-06	3.550806e-09	2.136532e+01	2.317144e+02
2.280000e-06	2.867427e-06	3.469213e-09	2.034665e+01	2.265702e+02
2.290000e-06	2.722924e-06	3.388963e-09	1.932128e+01	2.212933e+02
2.300000e-06	2.577637e-06	3.307180e-09	1.829036e+01	2.158803e+02
2.310000e-06	2.431469e-06	3.226582e-09	1.725318e+01	2.103250e+02
2.320000e-06	2.284458e-06	3.143639e-09	1.621002e+01	2.046180e+02
2.330000e-06	2.136669e-06	3.052810e-09	1.516135e+01	1.987469e+02
2.340000e-06	1.988107e-06	2.955392e-09	1.410718e+01	1.926978e+02
2.350000e-06	1.838866e-06	2.858022e-09	1.304820e+01	1.864559e+02
2.360000e-06	1.689065e-06	2.760490e-09	1.198524e+01	1.800071e+02
2.370000e-06	1.538693e-06	2.657824e-09	1.091824e+01	1.733394e+02
2.380000e-06	1.387734e-06	2.552551e-09	9.847063e+00	1.664436e+02
2.390000e-06	1.236330e-06	2.445428e-09	8.772730e+00	1.593138e+02
2.400000e-06	1.084523e-06	2.334047e-09	7.695539e+00	1.519474e+02
2.410000e-06	9.324105e-07	2.219319e-09	6.616184e+00	1.443440e+02
2.420000e-06	7.800384e-07	2.101357e-09	5.534985e+00	1.365036e+02
2.430000e-06	6.273834e-07	1.980545e-09	4.451778e+00	1.284251e+02
2.440000e-06	4.744996e-07	1.852356e-09	3.366947e+00	1.201034e+02
2.450000e-06	3.214517e-07	1.719021e-09	2.280952e+00	1.115280e+02
2.460000e-06	1.682701e-07	1.584750e-09	1.194009e+00	1.026810e+02
2.470000e-06	1.499731e-08	1.444724e-09	1.064177e-01	9.353665e+01
2.480000e-06	-1.383030e-07	1.299886e-09	-9.813680e-01	8.406206e+01
2.490000e-06	-2.915489e-07	1.151038e-09	-2.068768e+00	7.421882e+01
2.500000e-06	-4.447059e-07	9.968108e-10	-3.155537e+00	6.396620e+01
2.510000e-06	-5.977669e-07	8.353942e-10	-4.241625e+00	5.326533e+01
2.520000e-06	-7.506590e-07	6.655605e-10	-5.326514e+00	4.208411e+01
2.530000e-06	-9.033337e-07	4.869793e-10	-6.409861e+00	3.040224e+01
2.540000e-06	-1.055662e-06	2.989822e-10	-7.490749e+00	1.821605e+01
2.550000e-06	-1.207582e-06	1.026132e-10	-8.568744e+00	5.542287e+00
2.560000e-06	-1.359119e-06	-1.007762e-10	-9.644018e+00	-7.579475e+00
2.570000e-06	-1.510256e-06	-3.076179e-10	-1.071645e+01	-2.108621e+01
2.580000e-06	-1.660857e-06	-5.174865e-10	-1.178508e+01	-3.489285e+01
2.590000e-06	-1.810777e-06	-7.310004e-10	-1.284889e+01	-4.889561e+01
2.600000e-06	-1.959974e-06	-9.476757e-10	-1.390755e+01	-6.297708e+01
2.610000e-06	-2.108394e-06	-1.165337e-09	-1.496071e+01	-7.701262e+01
2.620000e-06	-2.256001e-06	-1.381546e-09	-1.600809e+01	-9.087741e+01
2.630000e-06	-2.402759e-06	-1.593911e-09	-1.704946e+01	-1.044535e+02
2.640000e-06	-2.548658e-06	-1.800530e-09	-1.808473e+01	-1.176364e+02
2.650000e-06	-2.693600e-06	-1.997372e-09	-1.911320e+01	-1.303402e+02
2.660000e-06	-2.837516e-06	-2.181049e-09	-2.013441e+01	-1.425008e+02
2.670000e-06	-2.980408e-06	-2.354215e-09	-2.114833e+01	-1.540779e+02
2.680000e-06	-3.122063e-06	-2.517679e-09	-2.215348e+01	-1.650543e+02
2.690000e-06	-3.262373e-06	-2.673079e-09	-2.314910e+01	-1.754335e+02
2.700000e-06	-3.401360e-06	-2.821816e-09	-2.413532e+01	-1.852359e+02
2.710000e-06	-3.539070e-06	-2.965671e-09	-2.511248e+01	-1.944945e+02
2.720000e-06	-3.675460e-06	-3.103767e-09	-2.608027e+01	-2.032493e+02
2.730000e-06	-3.810514e-06	-3.233067e-09	-2.703859e+01	-2.115428e+02
2.740000e-06	-3.944233e-06	-3.354681e-09	-2.798743e+01	-2.194160e+02
2.750000e-06	-4.076544e-06	-3.469224e-09	-2.892628e+01	-2.269051e+02
2.760000e-06	-4.207428e-06	-3.577452e-09	-2.985501e+01	-2.340402e+02
2.770000e-06	-4.336914e-06	-3.680257e-09	-3.077381e+01	-2.408445e+02
2.780000e-06	-4.465030e-06	-3.779278e-09	-3.168289e+01	-2.473354e+02
2.790000e-06	-4.591608e-06	-3.874797e-09	-3.258106e+01	-2.535259e+02
2.800000e-06	-4.716448e-06	-3.963350e-09	-3.346690e+01	-2.594268e+02
2.810000e-06	-4.839570e-06	-4.046202e-09	-3.434055e+01	-2.650487e+02
2.820000e-06	-4.961051e-06	-4.125878e-09	-3.520255e+01	-2.704036e+02
2.830000e-06	-5.080677e-06	-4.203143e-09	-3.605139e+01	-2.755060e+02
2.840000e-06	-5.198268e-06	-4.278301e-09	-3.688579e+01	-2.803735e+02
2.850000e-06	-5.313708e-06	-4.349959e-09	-3.770493e+01	-2.850258e+02
2.860000e-06	-5.426941e-06	-4.418499e-09	-3.850840e+01	-2.894839e+02
2.870000e-06	-5.537969e-06	-4.486223e-09	-3.929624e+01	-2.937680e+02
2.880000e-06	-5.646980e-06	-4.552437e-09	-4.006975e+01	-2.978961e+02
2.890000e-06	-5.754232e-06	-4.615406e-09	-4.083079e+01	-3.018824e+02
2.900000e-06	-5.859560e-06	-4.674939e-09	-4.157818e+01	-3.057356e+02
2.910000e-06	-5.962681e-06	-4.733032e-09	-4.230990e+01	-3.094591e+02
2.920000e-06	-6.063489e-06	-4.789201e-09	-4.302521e+01	-3.130509e+02
2.930000e-06	-6.162115e-06	-4.841004e-09	-4.372504e+01	-3.165046e+02
2.940000e-06	-6.258664e-06	-4.890602e-09	-4.441013e+01	-3.198115e+02
