# Temperatura_=_43.85
# Concentracion g/m^3_=_5000.0
# C_Vs_to_Am_M_A/Vsm_=_65563218390.804596
# pendiente_HvsI_1/m_=_3716.3
# ordenada_HvsI_A/m_=_1297.0
# frecuencia_Hz_=_302509.685188006

Tiempo_(s)	Campo_(V.s)	Magnetizacion_(V.s)	Campo_(kA/m)	Magnetizacion_(A/m)
0.000000e+00	-8.027630e-06	-5.569710e-09	-5.686180e+01	-3.643521e+02
1.000000e-08	-8.023400e-06	-5.567509e-09	-5.683184e+01	-3.641345e+02
2.000000e-08	-8.016623e-06	-5.562775e-09	-5.678384e+01	-3.638384e+02
3.000000e-08	-8.007101e-06	-5.557422e-09	-5.671639e+01	-3.634756e+02
4.000000e-08	-7.994661e-06	-5.551700e-09	-5.662828e+01	-3.630601e+02
5.000000e-08	-7.979235e-06	-5.545812e-09	-5.651901e+01	-3.626063e+02
6.000000e-08	-7.961125e-06	-5.538569e-09	-5.639073e+01	-3.621275e+02
7.000000e-08	-7.940730e-06	-5.533134e-09	-5.624627e+01	-3.616342e+02
8.000000e-08	-7.917730e-06	-5.542930e-09	-5.608335e+01	-3.611331e+02
9.000000e-08	-7.891548e-06	-5.565981e-09	-5.589790e+01	-3.606262e+02
1.000000e-07	-7.862139e-06	-5.554206e-09	-5.568958e+01	-3.601107e+02
1.100000e-07	-7.829816e-06	-5.516920e-09	-5.546063e+01	-3.595796e+02
1.200000e-07	-7.794755e-06	-5.494505e-09	-5.521229e+01	-3.590221e+02
1.300000e-07	-7.757208e-06	-5.475986e-09	-5.494633e+01	-3.584254e+02
1.400000e-07	-7.717468e-06	-5.433602e-09	-5.466484e+01	-3.577758e+02
1.500000e-07	-7.675546e-06	-5.406977e-09	-5.436790e+01	-3.570600e+02
1.600000e-07	-7.630976e-06	-5.443393e-09	-5.405220e+01	-3.562665e+02
1.700000e-07	-7.583606e-06	-5.419293e-09	-5.371666e+01	-3.553863e+02
1.800000e-07	-7.533415e-06	-5.389090e-09	-5.336114e+01	-3.544137e+02
1.900000e-07	-7.480186e-06	-5.402881e-09	-5.298411e+01	-3.533459e+02
2.000000e-07	-7.424098e-06	-5.353779e-09	-5.258683e+01	-3.521834e+02
2.100000e-07	-7.365255e-06	-5.320033e-09	-5.217003e+01	-3.509293e+02
2.200000e-07	-7.303789e-06	-5.298033e-09	-5.173465e+01	-3.495880e+02
2.300000e-07	-7.239700e-06	-5.283066e-09	-5.128068e+01	-3.481653e+02
2.400000e-07	-7.172787e-06	-5.274216e-09	-5.080672e+01	-3.466669e+02
2.500000e-07	-7.103187e-06	-5.245699e-09	-5.031373e+01	-3.450982e+02
2.600000e-07	-7.030883e-06	-5.234297e-09	-4.980158e+01	-3.434634e+02
2.700000e-07	-6.955726e-06	-5.202437e-09	-4.926923e+01	-3.417655e+02
2.800000e-07	-6.877719e-06	-5.166989e-09	-4.871668e+01	-3.400061e+02
2.900000e-07	-6.796946e-06	-5.143066e-09	-4.814454e+01	-3.381855e+02
3.000000e-07	-6.713739e-06	-5.124204e-09	-4.755517e+01	-3.363026e+02
3.100000e-07	-6.628281e-06	-5.095716e-09	-4.694985e+01	-3.343554e+02
3.200000e-07	-6.540465e-06	-5.051903e-09	-4.632782e+01	-3.323411e+02
3.300000e-07	-6.450258e-06	-5.029605e-09	-4.568887e+01	-3.302564e+02
3.400000e-07	-6.357752e-06	-4.999119e-09	-4.503362e+01	-3.280980e+02
3.500000e-07	-6.262944e-06	-4.959121e-09	-4.436207e+01	-3.258621e+02
3.600000e-07	-6.165826e-06	-4.920469e-09	-4.367416e+01	-3.235455e+02
3.700000e-07	-6.066469e-06	-4.887731e-09	-4.297039e+01	-3.211450e+02
3.800000e-07	-5.964921e-06	-4.855426e-09	-4.225109e+01	-3.186580e+02
3.900000e-07	-5.861229e-06	-4.817452e-09	-4.151661e+01	-3.160826e+02
4.000000e-07	-5.755509e-06	-4.778298e-09	-4.076777e+01	-3.134175e+02
4.100000e-07	-5.647770e-06	-4.730441e-09	-4.000463e+01	-3.106623e+02
4.200000e-07	-5.538020e-06	-4.684518e-09	-3.922724e+01	-3.078175e+02
4.300000e-07	-5.426272e-06	-4.639188e-09	-3.843570e+01	-3.048839e+02
4.400000e-07	-5.312453e-06	-4.597772e-09	-3.762949e+01	-3.018630e+02
4.500000e-07	-5.196537e-06	-4.551748e-09	-3.680843e+01	-2.987564e+02
4.600000e-07	-5.078637e-06	-4.502847e-09	-3.597331e+01	-2.955652e+02
4.700000e-07	-4.958896e-06	-4.452818e-09	-3.512516e+01	-2.922900e+02
4.800000e-07	-4.837354e-06	-4.398855e-09	-3.426425e+01	-2.889302e+02
4.900000e-07	-4.714085e-06	-4.342310e-09	-3.339109e+01	-2.854837e+02
5.000000e-07	-4.589154e-06	-4.285569e-09	-3.250618e+01	-2.819470e+02
5.100000e-07	-4.462545e-06	-4.232210e-09	-3.160937e+01	-2.783150e+02
5.200000e-07	-4.334244e-06	-4.174977e-09	-3.070058e+01	-2.745815e+02
5.300000e-07	-4.204342e-06	-4.116719e-09	-2.978045e+01	-2.707395e+02
5.400000e-07	-4.072916e-06	-4.055801e-09	-2.884953e+01	-2.667819e+02
5.500000e-07	-3.939973e-06	-3.993206e-09	-2.790786e+01	-2.627022e+02
5.600000e-07	-3.805510e-06	-3.926350e-09	-2.695542e+01	-2.584951e+02
5.700000e-07	-3.669562e-06	-3.856520e-09	-2.599247e+01	-2.541566e+02
5.800000e-07	-3.532219e-06	-3.788694e-09	-2.501963e+01	-2.496848e+02
5.900000e-07	-3.393465e-06	-3.719475e-09	-2.403680e+01	-2.450793e+02
6.000000e-07	-3.253207e-06	-3.645836e-09	-2.304332e+01	-2.403411e+02
6.100000e-07	-3.111528e-06	-3.570223e-09	-2.203976e+01	-2.354717e+02
6.200000e-07	-2.968631e-06	-3.495317e-09	-2.102759e+01	-2.304720e+02
6.300000e-07	-2.824598e-06	-3.417962e-09	-2.000736e+01	-2.253420e+02
6.400000e-07	-2.679549e-06	-3.337577e-09	-1.897994e+01	-2.200790e+02
6.500000e-07	-2.533597e-06	-3.254984e-09	-1.794613e+01	-2.146779e+02
6.600000e-07	-2.386721e-06	-3.169329e-09	-1.690577e+01	-2.091302e+02
6.700000e-07	-2.239070e-06	-3.080430e-09	-1.585992e+01	-2.034247e+02
6.800000e-07	-2.090765e-06	-2.989718e-09	-1.480943e+01	-1.975478e+02
6.900000e-07	-1.941780e-06	-2.896290e-09	-1.375413e+01	-1.914848e+02
7.000000e-07	-1.792171e-06	-2.799882e-09	-1.269442e+01	-1.852208e+02
7.100000e-07	-1.641994e-06	-2.699297e-09	-1.163067e+01	-1.787423e+02
7.200000e-07	-1.491260e-06	-2.597760e-09	-1.056299e+01	-1.720382e+02
7.300000e-07	-1.339979e-06	-2.494540e-09	-9.491419e+00	-1.651007e+02
7.400000e-07	-1.188188e-06	-2.384637e-09	-8.416248e+00	-1.579252e+02
7.500000e-07	-1.036002e-06	-2.271454e-09	-7.338276e+00	-1.505097e+02
7.600000e-07	-8.835154e-07	-2.158042e-09	-6.258171e+00	-1.428540e+02
7.700000e-07	-7.307505e-07	-2.039663e-09	-5.176097e+00	-1.349575e+02
7.800000e-07	-5.777359e-07	-1.913674e-09	-4.092255e+00	-1.268176e+02
7.900000e-07	-4.245580e-07	-1.784242e-09	-3.007256e+00	-1.184269e+02
8.000000e-07	-2.712388e-07	-1.652098e-09	-1.921255e+00	-1.097718e+02
8.100000e-07	-1.177581e-07	-1.513348e-09	-8.341116e-01	-1.008312e+02
8.200000e-07	3.585760e-08	-1.368119e-09	2.539888e-01	-9.157643e+01
8.300000e-07	1.894824e-07	-1.217364e-09	1.342154e+00	-8.197207e+01
8.400000e-07	3.430145e-07	-1.062189e-09	2.429661e+00	-7.197841e+01
8.500000e-07	4.964591e-07	-9.027820e-10	3.516550e+00	-6.155484e+01
8.600000e-07	6.497810e-07	-7.372940e-10	4.602569e+00	-5.066430e+01
8.700000e-07	8.029061e-07	-5.656337e-10	5.687194e+00	-3.927818e+01
8.800000e-07	9.557948e-07	-3.849831e-10	6.770144e+00	-2.738132e+01
8.900000e-07	1.108416e-06	-1.972652e-10	7.851202e+00	-1.497643e+01
9.000000e-07	1.260664e-06	-5.348966e-12	8.929610e+00	-2.087473e+00
9.100000e-07	1.412431e-06	1.925265e-10	1.000462e+01	1.123852e+01
9.200000e-07	1.563685e-06	3.982160e-10	1.107599e+01	2.493139e+01
9.300000e-07	1.714365e-06	6.104409e-10	1.214329e+01	3.889989e+01
9.400000e-07	1.864431e-06	8.269267e-10	1.320625e+01	5.303545e+01
9.500000e-07	2.013804e-06	1.044471e-09	1.426430e+01	6.721760e+01
9.600000e-07	2.162380e-06	1.259555e-09	1.531670e+01	8.132056e+01
9.700000e-07	2.310174e-06	1.472030e-09	1.636357e+01	9.522017e+01
9.800000e-07	2.457140e-06	1.680832e-09	1.740456e+01	1.088009e+02
9.900000e-07	2.603116e-06	1.881480e-09	1.843855e+01	1.219617e+02
1.000000e-06	2.748125e-06	2.068476e-09	1.946569e+01	1.346211e+02
1.010000e-06	2.892206e-06	2.245468e-09	2.048625e+01	1.467198e+02
1.020000e-06	3.035196e-06	2.416558e-09	2.149908e+01	1.582219e+02
1.030000e-06	3.177014e-06	2.581075e-09	2.250362e+01	1.691142e+02
1.040000e-06	3.317482e-06	2.736436e-09	2.349859e+01	1.794033e+02
1.050000e-06	3.456538e-06	2.883956e-09	2.448356e+01	1.891117e+02
1.060000e-06	3.594331e-06	3.026375e-09	2.545958e+01	1.982736e+02
1.070000e-06	3.730808e-06	3.163687e-09	2.642629e+01	2.069294e+02
1.080000e-06	3.865825e-06	3.292327e-09	2.738265e+01	2.151215e+02
1.090000e-06	3.999437e-06	3.410359e-09	2.832906e+01	2.228904e+02
1.100000e-06	4.131661e-06	3.518722e-09	2.926564e+01	2.302722e+02
1.110000e-06	4.262351e-06	3.622767e-09	3.019135e+01	2.372967e+02
1.120000e-06	4.391555e-06	3.725641e-09	3.110653e+01	2.439880e+02
1.130000e-06	4.519289e-06	3.824042e-09	3.201131e+01	2.503644e+02
1.140000e-06	4.645465e-06	3.915680e-09	3.290504e+01	2.564407e+02
1.150000e-06	4.770073e-06	4.001291e-09	3.378767e+01	2.622299e+02
1.160000e-06	4.892992e-06	4.083960e-09	3.465834e+01	2.677448e+02
1.170000e-06	5.014194e-06	4.164369e-09	3.551685e+01	2.729995e+02
1.180000e-06	5.133626e-06	4.241336e-09	3.636281e+01	2.780105e+02
1.190000e-06	5.251122e-06	4.314069e-09	3.719507e+01	2.827965e+02
1.200000e-06	5.366589e-06	4.383465e-09	3.801295e+01	2.873779e+02
1.210000e-06	5.479995e-06	4.449263e-09	3.881624e+01	2.917751e+02
1.220000e-06	5.591310e-06	4.514491e-09	3.960471e+01	2.960074e+02
1.230000e-06	5.700620e-06	4.578804e-09	4.037898e+01	3.000910e+02
1.240000e-06	5.807975e-06	4.640305e-09	4.113940e+01	3.040377e+02
1.250000e-06	5.913163e-06	4.697923e-09	4.188448e+01	3.078539e+02
1.260000e-06	6.016097e-06	4.752910e-09	4.261359e+01	3.115407e+02
1.270000e-06	6.116831e-06	4.805990e-09	4.332711e+01	3.150939e+02
1.280000e-06	6.215355e-06	4.856178e-09	4.402498e+01	3.185059e+02
1.290000e-06	6.311500e-06	4.903099e-09	4.470601e+01	3.217668e+02
1.300000e-06	6.405337e-06	4.946605e-09	4.537067e+01	3.248670e+02
1.310000e-06	6.496887e-06	4.986747e-09	4.601915e+01	3.277987e+02
1.320000e-06	6.586104e-06	5.026676e-09	4.665110e+01	3.305579e+02
1.330000e-06	6.673009e-06	5.066894e-09	4.726667e+01	3.331455e+02
1.340000e-06	6.757618e-06	5.104434e-09	4.786598e+01	3.355672e+02
1.350000e-06	6.839889e-06	5.138599e-09	4.844872e+01	3.378340e+02
1.360000e-06	6.919628e-06	5.171057e-09	4.901353e+01	3.399602e+02
1.370000e-06	6.996815e-06	5.202302e-09	4.956027e+01	3.419625e+02
1.380000e-06	7.071403e-06	5.231398e-09	5.008860e+01	3.438576e+02
1.390000e-06	7.143332e-06	5.258862e-09	5.059809e+01	3.456606e+02
1.400000e-06	7.212730e-06	5.285191e-09	5.108965e+01	3.473834e+02
1.410000e-06	7.279563e-06	5.309540e-09	5.156305e+01	3.490331e+02
1.420000e-06	7.343683e-06	5.332826e-09	5.201723e+01	3.506125e+02
1.430000e-06	7.405271e-06	5.356510e-09	5.245347e+01	3.521193e+02
1.440000e-06	7.464441e-06	5.378308e-09	5.287258e+01	3.535481e+02
1.450000e-06	7.520978e-06	5.396387e-09	5.327305e+01	3.548911e+02
1.460000e-06	7.574717e-06	5.413268e-09	5.365370e+01	3.561401e+02
1.470000e-06	7.625397e-06	5.431190e-09	5.401268e+01	3.572884e+02
1.480000e-06	7.673027e-06	5.449120e-09	5.435005e+01	3.583322e+02
1.490000e-06	7.717961e-06	5.465645e-09	5.466833e+01	3.592713e+02
1.500000e-06	7.760184e-06	5.479305e-09	5.496741e+01	3.601099e+02
1.510000e-06	7.799560e-06	5.490852e-09	5.524632e+01	3.608560e+02
1.520000e-06	7.836193e-06	5.501848e-09	5.550580e+01	3.615208e+02
1.530000e-06	7.870078e-06	5.513046e-09	5.574582e+01	3.621166e+02
1.540000e-06	7.901153e-06	5.524483e-09	5.596593e+01	3.626560e+02
1.550000e-06	7.929470e-06	5.534704e-09	5.616651e+01	3.631495e+02
1.560000e-06	7.954835e-06	5.543876e-09	5.634618e+01	3.636046e+02
1.570000e-06	7.977283e-06	5.551881e-09	5.650518e+01	3.640245e+02
1.580000e-06	7.997074e-06	5.558243e-09	5.664537e+01	3.644078e+02
1.590000e-06	8.014088e-06	5.563112e-09	5.676588e+01	3.647489e+02
1.600000e-06	8.028057e-06	5.567167e-09	5.686482e+01	3.650390e+02
1.610000e-06	8.038783e-06	5.572250e-09	5.694080e+01	3.652674e+02
1.620000e-06	8.046358e-06	5.576058e-09	5.699446e+01	3.654231e+02
1.630000e-06	8.051094e-06	5.577819e-09	5.702801e+01	3.654966e+02
1.640000e-06	8.052999e-06	5.579672e-09	5.704150e+01	3.654816e+02
1.650000e-06	8.052083e-06	5.578492e-09	5.703501e+01	3.653759e+02
1.660000e-06	8.048586e-06	5.573357e-09	5.701024e+01	3.651820e+02
1.670000e-06	8.042388e-06	5.569272e-09	5.696634e+01	3.649068e+02
1.680000e-06	8.033452e-06	5.567315e-09	5.690304e+01	3.645613e+02
1.690000e-06	8.021870e-06	5.565016e-09	5.682100e+01	3.641590e+02
1.700000e-06	8.007470e-06	5.561252e-09	5.671900e+01	3.637143e+02
1.710000e-06	7.990402e-06	5.554883e-09	5.659811e+01	3.632411e+02
1.720000e-06	7.971049e-06	5.539554e-09	5.646102e+01	3.627507e+02
1.730000e-06	7.949189e-06	5.496464e-09	5.630618e+01	3.622510e+02
1.740000e-06	7.924107e-06	5.460891e-09	5.612852e+01	3.617455e+02
1.750000e-06	7.895323e-06	5.472663e-09	5.592463e+01	3.612326e+02
1.760000e-06	7.863139e-06	5.479189e-09	5.569667e+01	3.607065e+02
1.770000e-06	7.828408e-06	5.468829e-09	5.545066e+01	3.601573e+02
1.780000e-06	7.791377e-06	5.492392e-09	5.518836e+01	3.595728e+02
1.790000e-06	7.752102e-06	5.521074e-09	5.491016e+01	3.589394e+02
1.800000e-06	7.710744e-06	5.463924e-09	5.461722e+01	3.582434e+02
1.810000e-06	7.666914e-06	5.438390e-09	5.430676e+01	3.574728e+02
1.820000e-06	7.620442e-06	5.441250e-09	5.397759e+01	3.566177e+02
1.830000e-06	7.571173e-06	5.409832e-09	5.362860e+01	3.556714e+02
1.840000e-06	7.518843e-06	5.427196e-09	5.325793e+01	3.546305e+02
1.850000e-06	7.463637e-06	5.396379e-09	5.286689e+01	3.534945e+02
1.860000e-06	7.405672e-06	5.392959e-09	5.245631e+01	3.522658e+02
1.870000e-06	7.345036e-06	5.371830e-09	5.202681e+01	3.509485e+02
1.880000e-06	7.281643e-06	5.321211e-09	5.157778e+01	3.495480e+02
1.890000e-06	7.215453e-06	5.325454e-09	5.110894e+01	3.480703e+02
1.900000e-06	7.146516e-06	5.270885e-09	5.062064e+01	3.465208e+02
1.910000e-06	7.074706e-06	5.256530e-09	5.011199e+01	3.449041e+02
1.920000e-06	7.000188e-06	5.237260e-09	4.958416e+01	3.432236e+02
1.930000e-06	6.922932e-06	5.215630e-09	4.903694e+01	3.414814e+02
1.940000e-06	6.842914e-06	5.199485e-09	4.847015e+01	3.396779e+02
1.950000e-06	6.760423e-06	5.146868e-09	4.788584e+01	3.378126e+02
1.960000e-06	6.675418e-06	5.139457e-09	4.728373e+01	3.358836e+02
1.970000e-06	6.587860e-06	5.090060e-09	4.666353e+01	3.338884e+02
1.980000e-06	6.497961e-06	5.057920e-09	4.602675e+01	3.318238e+02
1.990000e-06	6.405899e-06	5.034277e-09	4.537466e+01	3.296864e+02
2.000000e-06	6.311555e-06	4.996035e-09	4.470639e+01	3.274726e+02
2.010000e-06	6.214888e-06	4.964546e-09	4.402168e+01	3.251790e+02
2.020000e-06	6.116037e-06	4.917468e-09	4.332149e+01	3.228024e+02
2.030000e-06	6.015015e-06	4.884638e-09	4.260592e+01	3.203399e+02
2.040000e-06	5.911825e-06	4.838705e-09	4.187500e+01	3.177895e+02
2.050000e-06	5.806557e-06	4.806865e-09	4.112936e+01	3.151498e+02
2.060000e-06	5.699382e-06	4.769894e-09	4.037021e+01	3.124200e+02
2.070000e-06	5.590254e-06	4.730255e-09	3.959723e+01	3.096002e+02
2.080000e-06	5.479063e-06	4.679857e-09	3.880964e+01	3.066915e+02
2.090000e-06	5.365819e-06	4.626906e-09	3.800750e+01	3.036950e+02
2.100000e-06	5.250464e-06	4.582240e-09	3.719041e+01	3.006123e+02
2.110000e-06	5.133028e-06	4.534933e-09	3.635858e+01	2.974448e+02
2.120000e-06	5.013634e-06	4.489355e-09	3.551288e+01	2.941933e+02
2.130000e-06	4.892406e-06	4.438098e-09	3.465419e+01	2.908574e+02
2.140000e-06	4.769429e-06	4.391630e-09	3.378311e+01	2.874355e+02
2.150000e-06	4.644712e-06	4.338274e-09	3.289971e+01	2.839247e+02
2.160000e-06	4.518298e-06	4.284091e-09	3.200429e+01	2.803201e+02
2.170000e-06	4.390232e-06	4.225446e-09	3.109716e+01	2.766159e+02
2.180000e-06	4.260550e-06	4.166196e-09	3.017859e+01	2.728052e+02
2.190000e-06	4.129350e-06	4.103614e-09	2.924926e+01	2.688810e+02
2.200000e-06	3.996651e-06	4.042684e-09	2.830933e+01	2.648364e+02
2.210000e-06	3.862405e-06	3.984031e-09	2.735842e+01	2.606657e+02
2.220000e-06	3.726650e-06	3.922173e-09	2.639683e+01	2.563647e+02
2.230000e-06	3.589498e-06	3.854186e-09	2.542535e+01	2.519306e+02
2.240000e-06	3.450904e-06	3.781752e-09	2.444365e+01	2.473629e+02
2.250000e-06	3.310942e-06	3.709447e-09	2.345227e+01	2.426621e+02
2.260000e-06	3.169757e-06	3.635867e-09	2.245222e+01	2.378297e+02
2.270000e-06	3.027328e-06	3.561241e-09	2.144335e+01	2.328668e+02
2.280000e-06	2.883724e-06	3.484083e-09	2.042617e+01	2.277737e+02
2.290000e-06	2.739096e-06	3.405775e-09	1.940173e+01	2.225487e+02
2.300000e-06	2.593560e-06	3.322895e-09	1.837087e+01	2.171874e+02
2.310000e-06	2.447156e-06	3.241057e-09	1.733385e+01	2.116823e+02
2.320000e-06	2.299924e-06	3.157303e-09	1.629096e+01	2.060228e+02
2.330000e-06	2.151868e-06	3.067289e-09	1.524224e+01	2.001959e+02
2.340000e-06	2.003065e-06	2.971446e-09	1.418823e+01	1.941872e+02
2.350000e-06	1.853609e-06	2.874433e-09	1.312960e+01	1.879817e+02
2.360000e-06	1.703583e-06	2.777977e-09	1.206693e+01	1.815653e+02
2.370000e-06	1.552948e-06	2.677351e-09	1.099994e+01	1.749263e+02
2.380000e-06	1.401773e-06	2.572216e-09	9.929124e+00	1.680557e+02
2.390000e-06	1.250239e-06	2.462048e-09	8.855770e+00	1.609481e+02
2.400000e-06	1.098305e-06	2.346967e-09	7.779580e+00	1.536008e+02
2.410000e-06	9.459778e-07	2.232299e-09	6.700608e+00	1.460134e+02
2.420000e-06	7.933533e-07	2.117815e-09	5.619529e+00	1.381855e+02
2.430000e-06	6.405048e-07	1.998232e-09	4.536863e+00	1.301152e+02
2.440000e-06	4.873885e-07	1.870484e-09	3.452300e+00	1.217969e+02
2.450000e-06	3.340453e-07	1.737221e-09	2.366130e+00	1.132187e+02
2.460000e-06	1.805203e-07	1.602417e-09	1.278672e+00	1.043619e+02
2.470000e-06	2.688641e-08	1.463100e-09	1.904435e-01	9.519986e+01
2.480000e-06	-1.267685e-07	1.318293e-09	-8.979346e-01	8.569891e+01
2.490000e-06	-2.803854e-07	1.168765e-09	-1.986043e+00	7.582027e+01
2.500000e-06	-4.339031e-07	1.012316e-09	-3.073449e+00	6.552317e+01
2.510000e-06	-5.872563e-07	8.479061e-10	-4.159690e+00	5.476905e+01
2.520000e-06	-7.404198e-07	6.762672e-10	-5.244587e+00	4.352636e+01
2.530000e-06	-8.933412e-07	4.971548e-10	-6.327769e+00	3.177561e+01
2.540000e-06	-1.045950e-06	3.109737e-10	-7.408734e+00	1.951401e+01
2.550000e-06	-1.198235e-06	1.164092e-10	-8.487414e+00	6.759194e+00
2.560000e-06	-1.350104e-06	-8.684263e-11	-9.563136e+00	-6.448487e+00
2.570000e-06	-1.501465e-06	-2.950121e-10	-1.063527e+01	-2.004538e+01
2.580000e-06	-1.652294e-06	-5.080314e-10	-1.170363e+01	-3.394593e+01
2.590000e-06	-1.802508e-06	-7.258193e-10	-1.276764e+01	-4.804603e+01
2.600000e-06	-1.952019e-06	-9.462210e-10	-1.382666e+01	-6.222800e+01
2.610000e-06	-2.100835e-06	-1.165430e-09	-1.488076e+01	-7.636684e+01
2.620000e-06	-2.248834e-06	-1.381446e-09	-1.592908e+01	-9.033724e+01
2.630000e-06	-2.395934e-06	-1.593476e-09	-1.697102e+01	-1.040205e+02
2.640000e-06	-2.542154e-06	-1.799036e-09	-1.800674e+01	-1.173109e+02
2.650000e-06	-2.687412e-06	-1.995962e-09	-1.903564e+01	-1.301210e+02
2.660000e-06	-2.831645e-06	-2.182728e-09	-2.005728e+01	-1.423850e+02
2.670000e-06	-2.974795e-06	-2.358508e-09	-2.107125e+01	-1.540603e+02
2.680000e-06	-3.116748e-06	-2.523080e-09	-2.207674e+01	-1.651273e+02
2.690000e-06	-3.257475e-06	-2.679805e-09	-2.307355e+01	-1.755874e+02
2.700000e-06	-3.396953e-06	-2.831544e-09	-2.406151e+01	-1.854591e+02
2.710000e-06	-3.535118e-06	-2.978122e-09	-2.504016e+01	-1.947736e+02
2.720000e-06	-3.671925e-06	-3.116253e-09	-2.600920e+01	-2.035701e+02
2.730000e-06	-3.807381e-06	-3.244652e-09	-2.696868e+01	-2.118908e+02
2.740000e-06	-3.941504e-06	-3.366038e-09	-2.791870e+01	-2.197771e+02
2.750000e-06	-4.074247e-06	-3.481590e-09	-2.885896e+01	-2.272665e+02
2.760000e-06	-4.205513e-06	-3.590625e-09	-2.978875e+01	-2.343908e+02
2.770000e-06	-4.335314e-06	-3.693698e-09	-3.070816e+01	-2.411756e+02
2.780000e-06	-4.463631e-06	-3.791942e-09	-3.161706e+01	-2.476407e+02
2.790000e-06	-4.590404e-06	-3.885140e-09	-3.251503e+01	-2.538018e+02
2.800000e-06	-4.715607e-06	-3.974229e-09	-3.340188e+01	-2.596722e+02
2.810000e-06	-4.839112e-06	-4.058830e-09	-3.427669e+01	-2.652644e+02
2.820000e-06	-4.960875e-06	-4.139421e-09	-3.513917e+01	-2.705922e+02
2.830000e-06	-5.080816e-06	-4.215657e-09	-3.598874e+01	-2.756715e+02
2.840000e-06	-5.198852e-06	-4.287967e-09	-3.682482e+01	-2.805202e+02
2.850000e-06	-5.314790e-06	-4.358103e-09	-3.764605e+01	-2.851583e+02
2.860000e-06	-5.428493e-06	-4.425984e-09	-3.845144e+01	-2.896065e+02
2.870000e-06	-5.540077e-06	-4.494549e-09	-3.924181e+01	-2.938845e+02
2.880000e-06	-5.649607e-06	-4.561970e-09	-4.001764e+01	-2.980095e+02
2.890000e-06	-5.757162e-06	-4.625286e-09	-4.077949e+01	-3.019948e+02
2.900000e-06	-5.862759e-06	-4.685973e-09	-4.152746e+01	-3.058484e+02
2.910000e-06	-5.966233e-06	-4.743276e-09	-4.226039e+01	-3.095727e+02
2.920000e-06	-6.067462e-06	-4.799020e-09	-4.297742e+01	-3.131651e+02
2.930000e-06	-6.166468e-06	-4.851845e-09	-4.367870e+01	-3.166188e+02
2.940000e-06	-6.263274e-06	-4.901239e-09	-4.436441e+01	-3.199243e+02
