# Temperatura_=_42.08
# Concentracion g/m^3_=_5000.0
# C_Vs_to_Am_M_A/Vsm_=_65563218390.804596
# pendiente_HvsI_1/m_=_3716.3
# ordenada_HvsI_A/m_=_1297.0
# frecuencia_Hz_=_302509.61258813593

Tiempo_(s)	Campo_(V.s)	Magnetizacion_(V.s)	Campo_(kA/m)	Magnetizacion_(A/m)
0.000000e+00	-7.991549e-06	-5.532680e-09	-5.686063e+01	-3.622467e+02
1.000000e-08	-7.987125e-06	-5.526558e-09	-5.682915e+01	-3.619794e+02
2.000000e-08	-7.980178e-06	-5.521825e-09	-5.677972e+01	-3.616411e+02
3.000000e-08	-7.970419e-06	-5.520325e-09	-5.671028e+01	-3.612464e+02
4.000000e-08	-7.957730e-06	-5.519200e-09	-5.662000e+01	-3.608113e+02
5.000000e-08	-7.942085e-06	-5.513067e-09	-5.650869e+01	-3.603512e+02
6.000000e-08	-7.923782e-06	-5.502322e-09	-5.637846e+01	-3.598793e+02
7.000000e-08	-7.903220e-06	-5.493423e-09	-5.623216e+01	-3.594046e+02
8.000000e-08	-7.880031e-06	-5.523217e-09	-5.606717e+01	-3.589315e+02
9.000000e-08	-7.853664e-06	-5.532233e-09	-5.587956e+01	-3.584587e+02
1.000000e-07	-7.824119e-06	-5.502345e-09	-5.566935e+01	-3.579801e+02
1.100000e-07	-7.791680e-06	-5.475751e-09	-5.543854e+01	-3.574847e+02
1.200000e-07	-7.756513e-06	-5.457029e-09	-5.518833e+01	-3.569589e+02
1.300000e-07	-7.718916e-06	-5.421777e-09	-5.492082e+01	-3.563873e+02
1.400000e-07	-7.679168e-06	-5.369899e-09	-5.463801e+01	-3.557544e+02
1.500000e-07	-7.637165e-06	-5.420455e-09	-5.433915e+01	-3.550468e+02
1.600000e-07	-7.592484e-06	-5.406391e-09	-5.402124e+01	-3.542536e+02
1.700000e-07	-7.545117e-06	-5.355375e-09	-5.368422e+01	-3.533673e+02
1.800000e-07	-7.494897e-06	-5.383398e-09	-5.332690e+01	-3.523846e+02
1.900000e-07	-7.441573e-06	-5.339964e-09	-5.294749e+01	-3.513056e+02
2.000000e-07	-7.385403e-06	-5.306961e-09	-5.254784e+01	-3.501336e+02
2.100000e-07	-7.326523e-06	-5.292416e-09	-5.212890e+01	-3.488738e+02
2.200000e-07	-7.265054e-06	-5.276702e-09	-5.169155e+01	-3.475329e+02
2.300000e-07	-7.200939e-06	-5.260438e-09	-5.123536e+01	-3.461176e+02
2.400000e-07	-7.134021e-06	-5.224791e-09	-5.075924e+01	-3.446337e+02
2.500000e-07	-7.064434e-06	-5.222134e-09	-5.026412e+01	-3.430860e+02
2.600000e-07	-6.992162e-06	-5.199310e-09	-4.974990e+01	-3.414775e+02
2.700000e-07	-6.917043e-06	-5.158884e-09	-4.921542e+01	-3.398094e+02
2.800000e-07	-6.839109e-06	-5.118578e-09	-4.866091e+01	-3.380813e+02
2.900000e-07	-6.758473e-06	-5.105336e-09	-4.808717e+01	-3.362917e+02
3.000000e-07	-6.675417e-06	-5.094588e-09	-4.749623e+01	-3.344380e+02
3.100000e-07	-6.590166e-06	-5.046846e-09	-4.688966e+01	-3.325174e+02
3.200000e-07	-6.502573e-06	-5.026391e-09	-4.626643e+01	-3.305270e+02
3.300000e-07	-6.412580e-06	-5.000451e-09	-4.562612e+01	-3.284636e+02
3.400000e-07	-6.320310e-06	-4.962626e-09	-4.496960e+01	-3.263249e+02
3.500000e-07	-6.225758e-06	-4.927504e-09	-4.429686e+01	-3.241085e+02
3.600000e-07	-6.128905e-06	-4.904962e-09	-4.360774e+01	-3.218123e+02
3.700000e-07	-6.029779e-06	-4.872922e-09	-4.290245e+01	-3.194344e+02
3.800000e-07	-5.928472e-06	-4.816821e-09	-4.218164e+01	-3.169732e+02
3.900000e-07	-5.825036e-06	-4.777236e-09	-4.144568e+01	-3.144270e+02
4.000000e-07	-5.719518e-06	-4.738815e-09	-4.069491e+01	-3.117943e+02
4.100000e-07	-5.612011e-06	-4.696835e-09	-3.992999e+01	-3.090738e+02
4.200000e-07	-5.502566e-06	-4.649508e-09	-3.915128e+01	-3.062647e+02
4.300000e-07	-5.391204e-06	-4.614222e-09	-3.835893e+01	-3.033662e+02
4.400000e-07	-5.277770e-06	-4.575834e-09	-3.755184e+01	-3.003780e+02
4.500000e-07	-5.162188e-06	-4.528100e-09	-3.672945e+01	-2.973000e+02
4.600000e-07	-5.044649e-06	-4.480604e-09	-3.589315e+01	-2.941319e+02
4.700000e-07	-4.925274e-06	-4.433058e-09	-3.504379e+01	-2.908734e+02
4.800000e-07	-4.804111e-06	-4.378196e-09	-3.418170e+01	-2.875235e+02
4.900000e-07	-4.681238e-06	-4.315703e-09	-3.330745e+01	-2.840806e+02
5.000000e-07	-4.556622e-06	-4.261137e-09	-3.242080e+01	-2.805417e+02
5.100000e-07	-4.430370e-06	-4.207368e-09	-3.152250e+01	-2.769029e+02
5.200000e-07	-4.302531e-06	-4.152561e-09	-3.061292e+01	-2.731594e+02
5.300000e-07	-4.173136e-06	-4.090227e-09	-2.969226e+01	-2.693054e+02
5.400000e-07	-4.042277e-06	-4.026936e-09	-2.876118e+01	-2.653350e+02
5.500000e-07	-3.909801e-06	-3.966340e-09	-2.781860e+01	-2.612426e+02
5.600000e-07	-3.775775e-06	-3.906207e-09	-2.686499e+01	-2.570229e+02
5.700000e-07	-3.640394e-06	-3.842130e-09	-2.590175e+01	-2.526723e+02
5.800000e-07	-3.503570e-06	-3.773175e-09	-2.492823e+01	-2.481883e+02
5.900000e-07	-3.365358e-06	-3.703030e-09	-2.394484e+01	-2.435697e+02
6.000000e-07	-3.225750e-06	-3.627183e-09	-2.295152e+01	-2.388168e+02
6.100000e-07	-3.084695e-06	-3.549618e-09	-2.194790e+01	-2.339302e+02
6.200000e-07	-2.942334e-06	-3.472550e-09	-2.093499e+01	-2.289105e+02
6.300000e-07	-2.798808e-06	-3.396580e-09	-1.991378e+01	-2.237572e+02
6.400000e-07	-2.654264e-06	-3.315806e-09	-1.888534e+01	-2.184681e+02
6.500000e-07	-2.508765e-06	-3.230726e-09	-1.785010e+01	-2.130386e+02
6.600000e-07	-2.362402e-06	-3.144341e-09	-1.680871e+01	-2.074613e+02
6.700000e-07	-2.215393e-06	-3.057444e-09	-1.576273e+01	-2.017261e+02
6.800000e-07	-2.067732e-06	-2.969777e-09	-1.471211e+01	-1.958211e+02
6.900000e-07	-1.919356e-06	-2.876684e-09	-1.365640e+01	-1.897328e+02
7.000000e-07	-1.770364e-06	-2.780711e-09	-1.259631e+01	-1.834476e+02
7.100000e-07	-1.620849e-06	-2.680380e-09	-1.153249e+01	-1.769531e+02
7.200000e-07	-1.470864e-06	-2.580268e-09	-1.046534e+01	-1.702386e+02
7.300000e-07	-1.320342e-06	-2.475235e-09	-9.394360e+00	-1.632967e+02
7.400000e-07	-1.169322e-06	-2.363626e-09	-8.319834e+00	-1.561227e+02
7.500000e-07	-1.017934e-06	-2.251676e-09	-7.242698e+00	-1.487145e+02
7.600000e-07	-8.662034e-07	-2.138814e-09	-6.163119e+00	-1.410718e+02
7.700000e-07	-7.141176e-07	-2.020139e-09	-5.081014e+00	-1.331939e+02
7.800000e-07	-5.617202e-07	-1.893457e-09	-3.996692e+00	-1.250781e+02
7.900000e-07	-4.090754e-07	-1.764363e-09	-2.910610e+00	-1.167178e+02
8.000000e-07	-2.562708e-07	-1.630277e-09	-1.823391e+00	-1.081002e+02
8.100000e-07	-1.033856e-07	-1.490295e-09	-7.355983e-01	-9.920558e+01
8.200000e-07	4.954876e-08	-1.346475e-09	3.525441e-01	-9.000671e+01
8.300000e-07	2.025058e-07	-1.200414e-09	1.440848e+00	-8.046993e+01
8.400000e-07	3.554673e-07	-1.050424e-09	2.529184e+00	-7.055717e+01
8.500000e-07	5.083559e-07	-8.945710e-10	3.617000e+00	-6.022923e+01
8.600000e-07	6.610951e-07	-7.315046e-10	4.703754e+00	-4.944995e+01
8.700000e-07	8.136266e-07	-5.594954e-10	5.789030e+00	-3.819102e+01
8.800000e-07	9.659114e-07	-3.787660e-10	6.872551e+00	-2.643678e+01
8.900000e-07	1.117804e-06	-1.909935e-10	7.953279e+00	-1.418863e+01
9.000000e-07	1.269147e-06	4.943296e-13	9.030103e+00	-1.468388e+00
9.100000e-07	1.419984e-06	1.968062e-10	1.010332e+01	1.167977e+01
9.200000e-07	1.570348e-06	3.986052e-10	1.117317e+01	2.518915e+01
9.300000e-07	1.720177e-06	6.053995e-10	1.223923e+01	3.897230e+01
9.400000e-07	1.869398e-06	8.153665e-10	1.330095e+01	5.292462e+01
9.500000e-07	2.017995e-06	1.027447e-09	1.435823e+01	6.692951e+01
9.600000e-07	2.165897e-06	1.239782e-09	1.541057e+01	8.086470e+01
9.700000e-07	2.313016e-06	1.450027e-09	1.645733e+01	9.460907e+01
9.800000e-07	2.459302e-06	1.657389e-09	1.749817e+01	1.080494e+02
9.900000e-07	2.604721e-06	1.856720e-09	1.853284e+01	1.210862e+02
1.000000e-06	2.749179e-06	2.044583e-09	1.956067e+01	1.336388e+02
1.010000e-06	2.892480e-06	2.221559e-09	2.058027e+01	1.456479e+02
1.020000e-06	3.034611e-06	2.390076e-09	2.159155e+01	1.570771e+02
1.030000e-06	3.175588e-06	2.551521e-09	2.259461e+01	1.679118e+02
1.040000e-06	3.315267e-06	2.704925e-09	2.358844e+01	1.781569e+02
1.050000e-06	3.453646e-06	2.852047e-09	2.457302e+01	1.878333e+02
1.060000e-06	3.590693e-06	2.993563e-09	2.554812e+01	1.969728e+02
1.070000e-06	3.726343e-06	3.130827e-09	2.651328e+01	2.056139e+02
1.080000e-06	3.860600e-06	3.259965e-09	2.746854e+01	2.137971e+02
1.090000e-06	3.993483e-06	3.378458e-09	2.841401e+01	2.215614e+02
1.100000e-06	4.124962e-06	3.488540e-09	2.934949e+01	2.289411e+02
1.110000e-06	4.255040e-06	3.595127e-09	3.027501e+01	2.359654e+02
1.120000e-06	4.383570e-06	3.698692e-09	3.118952e+01	2.426572e+02
1.130000e-06	4.510509e-06	3.796479e-09	3.209270e+01	2.490346e+02
1.140000e-06	4.636016e-06	3.888051e-09	3.298569e+01	2.551120e+02
1.150000e-06	4.759981e-06	3.974474e-09	3.386771e+01	2.609023e+02
1.160000e-06	4.882263e-06	4.057053e-09	3.473776e+01	2.664183e+02
1.170000e-06	5.002728e-06	4.135976e-09	3.559488e+01	2.716744e+02
1.180000e-06	5.121349e-06	4.213637e-09	3.643888e+01	2.766871e+02
1.190000e-06	5.238077e-06	4.288010e-09	3.726942e+01	2.814753e+02
1.200000e-06	5.352781e-06	4.358634e-09	3.808555e+01	2.860591e+02
1.210000e-06	5.465440e-06	4.424548e-09	3.888712e+01	2.904592e+02
1.220000e-06	5.576070e-06	4.487134e-09	3.967427e+01	2.946948e+02
1.230000e-06	5.684738e-06	4.548366e-09	4.044745e+01	2.987819e+02
1.240000e-06	5.791394e-06	4.608556e-09	4.120631e+01	3.027322e+02
1.250000e-06	5.895823e-06	4.667706e-09	4.194934e+01	3.065522e+02
1.260000e-06	5.998048e-06	4.724361e-09	4.267668e+01	3.102430e+02
1.270000e-06	6.098181e-06	4.777416e-09	4.338914e+01	3.138007e+02
1.280000e-06	6.196045e-06	4.827689e-09	4.408544e+01	3.172178e+02
1.290000e-06	6.291485e-06	4.876021e-09	4.476451e+01	3.204850e+02
1.300000e-06	6.384697e-06	4.921209e-09	4.542772e+01	3.235928e+02
1.310000e-06	6.475720e-06	4.961821e-09	4.607536e+01	3.265339e+02
1.320000e-06	6.564362e-06	5.001127e-09	4.670606e+01	3.293046e+02
1.330000e-06	6.650697e-06	5.038812e-09	4.732034e+01	3.319056e+02
1.340000e-06	6.734769e-06	5.075023e-09	4.791852e+01	3.343426e+02
1.350000e-06	6.816460e-06	5.111807e-09	4.849976e+01	3.366257e+02
1.360000e-06	6.895626e-06	5.148072e-09	4.906303e+01	3.387685e+02
1.370000e-06	6.972171e-06	5.182255e-09	4.960766e+01	3.407861e+02
1.380000e-06	7.046067e-06	5.212480e-09	5.013343e+01	3.426939e+02
1.390000e-06	7.117381e-06	5.239805e-09	5.064084e+01	3.445053e+02
1.400000e-06	7.186223e-06	5.266891e-09	5.113066e+01	3.462302e+02
1.410000e-06	7.252508e-06	5.291968e-09	5.160228e+01	3.478747e+02
1.420000e-06	7.316150e-06	5.314010e-09	5.205510e+01	3.494403e+02
1.430000e-06	7.377360e-06	5.335716e-09	5.249061e+01	3.509243e+02
1.440000e-06	7.436103e-06	5.356683e-09	5.290858e+01	3.523214e+02
1.450000e-06	7.492145e-06	5.376972e-09	5.330732e+01	3.536245e+02
1.460000e-06	7.545365e-06	5.396638e-09	5.368599e+01	3.548270e+02
1.470000e-06	7.595517e-06	5.414644e-09	5.404282e+01	3.559242e+02
1.480000e-06	7.642670e-06	5.430262e-09	5.437832e+01	3.569144e+02
1.490000e-06	7.687148e-06	5.443755e-09	5.469479e+01	3.578001e+02
1.500000e-06	7.728925e-06	5.454707e-09	5.499204e+01	3.585876e+02
1.510000e-06	7.767859e-06	5.464329e-09	5.526905e+01	3.592869e+02
1.520000e-06	7.804119e-06	5.475125e-09	5.552705e+01	3.599102e+02
1.530000e-06	7.837658e-06	5.487098e-09	5.576568e+01	3.604706e+02
1.540000e-06	7.868366e-06	5.498885e-09	5.598417e+01	3.609799e+02
1.550000e-06	7.896314e-06	5.509661e-09	5.618302e+01	3.614478e+02
1.560000e-06	7.921379e-06	5.517450e-09	5.636136e+01	3.618798e+02
1.570000e-06	7.943558e-06	5.523117e-09	5.651917e+01	3.622769e+02
1.580000e-06	7.963006e-06	5.529825e-09	5.665755e+01	3.626354e+02
1.590000e-06	7.979606e-06	5.534845e-09	5.677566e+01	3.629477e+02
1.600000e-06	7.993164e-06	5.537306e-09	5.687212e+01	3.632035e+02
1.610000e-06	8.003568e-06	5.539470e-09	5.694614e+01	3.633911e+02
1.620000e-06	8.010869e-06	5.542007e-09	5.699809e+01	3.634999e+02
1.630000e-06	8.015343e-06	5.545494e-09	5.702992e+01	3.635216e+02
1.640000e-06	8.016970e-06	5.548974e-09	5.704150e+01	3.634520e+02
1.650000e-06	8.015771e-06	5.545495e-09	5.703297e+01	3.632917e+02
1.660000e-06	8.011986e-06	5.540278e-09	5.700604e+01	3.630464e+02
1.670000e-06	8.005565e-06	5.535812e-09	5.696035e+01	3.627265e+02
1.680000e-06	7.996430e-06	5.532041e-09	5.689535e+01	3.623458e+02
1.690000e-06	7.984523e-06	5.527825e-09	5.681064e+01	3.619201e+02
1.700000e-06	7.969802e-06	5.524594e-09	5.670590e+01	3.614652e+02
1.710000e-06	7.952570e-06	5.523869e-09	5.658329e+01	3.609949e+02
1.720000e-06	7.933090e-06	5.504428e-09	5.644469e+01	3.605198e+02
1.730000e-06	7.911055e-06	5.444376e-09	5.628790e+01	3.600456e+02
1.740000e-06	7.885720e-06	5.433278e-09	5.610765e+01	3.595727e+02
1.750000e-06	7.856686e-06	5.446728e-09	5.590107e+01	3.590961e+02
1.760000e-06	7.824348e-06	5.436931e-09	5.567098e+01	3.586063e+02
1.770000e-06	7.789498e-06	5.443442e-09	5.542302e+01	3.580902e+02
1.780000e-06	7.752433e-06	5.500162e-09	5.515930e+01	3.575327e+02
1.790000e-06	7.713193e-06	5.467243e-09	5.488010e+01	3.569183e+02
1.800000e-06	7.671810e-06	5.448316e-09	5.458565e+01	3.562328e+02
1.810000e-06	7.627966e-06	5.472470e-09	5.427370e+01	3.554644e+02
1.820000e-06	7.581489e-06	5.403311e-09	5.394301e+01	3.546047e+02
1.830000e-06	7.532212e-06	5.425349e-09	5.359240e+01	3.536491e+02
1.840000e-06	7.479926e-06	5.398450e-09	5.322038e+01	3.525969e+02
1.850000e-06	7.424748e-06	5.379666e-09	5.282778e+01	3.514504e+02
1.860000e-06	7.366762e-06	5.371697e-09	5.241521e+01	3.502146e+02
1.870000e-06	7.306120e-06	5.304090e-09	5.198374e+01	3.488957e+02
1.880000e-06	7.242787e-06	5.326549e-09	5.153312e+01	3.475004e+02
1.890000e-06	7.176664e-06	5.287202e-09	5.106264e+01	3.460350e+02
1.900000e-06	7.107804e-06	5.251956e-09	5.057270e+01	3.445046e+02
1.910000e-06	7.036070e-06	5.251734e-09	5.006230e+01	3.429128e+02
1.920000e-06	6.961613e-06	5.223212e-09	4.953254e+01	3.412611e+02
1.930000e-06	6.884490e-06	5.206331e-09	4.898380e+01	3.395498e+02
1.940000e-06	6.804659e-06	5.155945e-09	4.841580e+01	3.377774e+02
1.950000e-06	6.722315e-06	5.141458e-09	4.782991e+01	3.359418e+02
1.960000e-06	6.637571e-06	5.104671e-09	4.722695e+01	3.340401e+02
1.970000e-06	6.550302e-06	5.059684e-09	4.660602e+01	3.320694e+02
1.980000e-06	6.460551e-06	5.042675e-09	4.596743e+01	3.300266e+02
1.990000e-06	6.368593e-06	5.016197e-09	4.531314e+01	3.279092e+02
2.000000e-06	6.274411e-06	4.974365e-09	4.464303e+01	3.257146e+02
2.010000e-06	6.177944e-06	4.925161e-09	4.395666e+01	3.234409e+02
2.020000e-06	6.079276e-06	4.899662e-09	4.325463e+01	3.210860e+02
2.030000e-06	5.978469e-06	4.863593e-09	4.253738e+01	3.186482e+02
2.040000e-06	5.875513e-06	4.829127e-09	4.180483e+01	3.161259e+02
2.050000e-06	5.770483e-06	4.795302e-09	4.105753e+01	3.135175e+02
2.060000e-06	5.663556e-06	4.756450e-09	4.029674e+01	3.108218e+02
2.070000e-06	5.554703e-06	4.702684e-09	3.952224e+01	3.080375e+02
2.080000e-06	5.443833e-06	4.648041e-09	3.873339e+01	3.051641e+02
2.090000e-06	5.330898e-06	4.610060e-09	3.792984e+01	3.022010e+02
2.100000e-06	5.215968e-06	4.571033e-09	3.711210e+01	2.991481e+02
2.110000e-06	5.098999e-06	4.523383e-09	3.627986e+01	2.960052e+02
2.120000e-06	4.980037e-06	4.469843e-09	3.543344e+01	2.927721e+02
2.130000e-06	4.859204e-06	4.418679e-09	3.457370e+01	2.894480e+02
2.140000e-06	4.736604e-06	4.367089e-09	3.370138e+01	2.860313e+02
2.150000e-06	4.612303e-06	4.317065e-09	3.281697e+01	2.825197e+02
2.160000e-06	4.486285e-06	4.264451e-09	3.192035e+01	2.789093e+02
2.170000e-06	4.358606e-06	4.210024e-09	3.101189e+01	2.751958e+02
2.180000e-06	4.229293e-06	4.150223e-09	3.009182e+01	2.713734e+02
2.190000e-06	4.098501e-06	4.089862e-09	2.916122e+01	2.674364e+02
2.200000e-06	3.966232e-06	4.027724e-09	2.822012e+01	2.633788e+02
2.210000e-06	3.832451e-06	3.963073e-09	2.726825e+01	2.591955e+02
2.220000e-06	3.697236e-06	3.897352e-09	2.630618e+01	2.548821e+02
2.230000e-06	3.560650e-06	3.828181e-09	2.533436e+01	2.504358e+02
2.240000e-06	3.422676e-06	3.758957e-09	2.435266e+01	2.458552e+02
2.250000e-06	3.283422e-06	3.689437e-09	2.336186e+01	2.411401e+02
2.260000e-06	3.142897e-06	3.618102e-09	2.236201e+01	2.362910e+02
2.270000e-06	3.001036e-06	3.539347e-09	2.135266e+01	2.313088e+02
2.280000e-06	2.858001e-06	3.458335e-09	2.033495e+01	2.261933e+02
2.290000e-06	2.713921e-06	3.378576e-09	1.930980e+01	2.209428e+02
2.300000e-06	2.568881e-06	3.299744e-09	1.827783e+01	2.155535e+02
2.310000e-06	2.422964e-06	3.221113e-09	1.723962e+01	2.100188e+02
2.320000e-06	2.276281e-06	3.137621e-09	1.619596e+01	2.043294e+02
2.330000e-06	2.128890e-06	3.045650e-09	1.514725e+01	1.984737e+02
2.340000e-06	1.980740e-06	2.944613e-09	1.409315e+01	1.924386e+02
2.350000e-06	1.831879e-06	2.842992e-09	1.303399e+01	1.862105e+02
2.360000e-06	1.682421e-06	2.744717e-09	1.197058e+01	1.797764e+02
2.370000e-06	1.532400e-06	2.645270e-09	1.090317e+01	1.731252e+02
2.380000e-06	1.381875e-06	2.542615e-09	9.832172e+00	1.662483e+02
2.390000e-06	1.230952e-06	2.434590e-09	8.758343e+00	1.591404e+02
2.400000e-06	1.079656e-06	2.322069e-09	7.681854e+00	1.517987e+02
2.410000e-06	9.279817e-07	2.207293e-09	6.602678e+00	1.442225e+02
2.420000e-06	7.759915e-07	2.088621e-09	5.521253e+00	1.364113e+02
2.430000e-06	6.237746e-07	1.966496e-09	4.438216e+00	1.283635e+02
2.440000e-06	4.713497e-07	1.838772e-09	3.353698e+00	1.200735e+02
2.450000e-06	3.187207e-07	1.707594e-09	2.267728e+00	1.115306e+02
2.460000e-06	1.659184e-07	1.573229e-09	1.180525e+00	1.027171e+02
2.470000e-06	1.298470e-08	1.432927e-09	9.238734e-02	9.360776e+01
2.480000e-06	-1.399962e-07	1.289135e-09	-9.960863e-01	8.417074e+01
2.490000e-06	-2.929456e-07	1.140672e-09	-2.084336e+00	7.436889e+01
2.500000e-06	-4.457425e-07	9.852259e-10	-3.171500e+00	6.416295e+01
2.510000e-06	-5.983370e-07	8.238117e-10	-4.257225e+00	5.351542e+01
2.520000e-06	-7.508013e-07	6.557396e-10	-5.342023e+00	4.239524e+01
2.530000e-06	-9.030923e-07	4.777506e-10	-6.425587e+00	3.078266e+01
2.540000e-06	-1.055061e-06	2.905776e-10	-7.506857e+00	1.867382e+01
2.550000e-06	-1.206608e-06	9.657685e-11	-8.585127e+00	6.084420e+00
2.560000e-06	-1.357726e-06	-1.035310e-10	-9.660349e+00	-6.947843e+00
2.570000e-06	-1.508435e-06	-3.082836e-10	-1.073266e+01	-2.036262e+01
2.580000e-06	-1.658611e-06	-5.175812e-10	-1.180117e+01	-3.407809e+01
2.590000e-06	-1.808113e-06	-7.310099e-10	-1.286489e+01	-4.799409e+01
2.600000e-06	-1.956953e-06	-9.471154e-10	-1.392390e+01	-6.199684e+01
2.610000e-06	-2.105065e-06	-1.164369e-09	-1.497774e+01	-7.596502e+01
2.620000e-06	-2.252282e-06	-1.380181e-09	-1.602520e+01	-8.977646e+01
2.630000e-06	-2.398607e-06	-1.591689e-09	-1.706632e+01	-1.033150e+02
2.640000e-06	-2.544128e-06	-1.797188e-09	-1.810171e+01	-1.164768e+02
2.650000e-06	-2.688717e-06	-1.993244e-09	-1.913048e+01	-1.291753e+02
2.660000e-06	-2.832242e-06	-2.176185e-09	-2.015167e+01	-1.413449e+02
2.670000e-06	-2.974618e-06	-2.347781e-09	-2.116469e+01	-1.529428e+02
2.680000e-06	-3.115832e-06	-2.511746e-09	-2.216944e+01	-1.639481e+02
2.690000e-06	-3.255796e-06	-2.669706e-09	-2.316530e+01	-1.743607e+02
2.700000e-06	-3.394418e-06	-2.820627e-09	-2.415161e+01	-1.841973e+02
2.710000e-06	-3.531728e-06	-2.964328e-09	-2.512858e+01	-1.934869e+02
2.720000e-06	-3.667743e-06	-3.100846e-09	-2.609634e+01	-2.022669e+02
2.730000e-06	-3.802483e-06	-3.230456e-09	-2.705503e+01	-2.105774e+02
2.740000e-06	-3.935852e-06	-3.352996e-09	-2.800396e+01	-2.184581e+02
2.750000e-06	-4.067710e-06	-3.468540e-09	-2.894214e+01	-2.259450e+02
2.760000e-06	-4.198198e-06	-3.576395e-09	-2.987058e+01	-2.330688e+02
2.770000e-06	-4.327362e-06	-3.676972e-09	-3.078959e+01	-2.398541e+02
2.780000e-06	-4.455036e-06	-3.772995e-09	-3.169801e+01	-2.463202e+02
2.790000e-06	-4.581175e-06	-3.864591e-09	-3.259549e+01	-2.524825e+02
2.800000e-06	-4.705630e-06	-3.951351e-09	-3.348100e+01	-2.583541e+02
2.810000e-06	-4.828426e-06	-4.035367e-09	-3.435471e+01	-2.639477e+02
2.820000e-06	-4.949553e-06	-4.117163e-09	-3.521654e+01	-2.692769e+02
2.830000e-06	-5.068793e-06	-4.194251e-09	-3.606494e+01	-2.743579e+02
2.840000e-06	-5.185994e-06	-4.268350e-09	-3.689884e+01	-2.792087e+02
2.850000e-06	-5.301096e-06	-4.339937e-09	-3.771780e+01	-2.838493e+02
2.860000e-06	-5.414070e-06	-4.408670e-09	-3.852162e+01	-2.883004e+02
2.870000e-06	-5.524862e-06	-4.475972e-09	-3.930991e+01	-2.925817e+02
2.880000e-06	-5.633658e-06	-4.540251e-09	-4.008401e+01	-2.967104e+02
2.890000e-06	-5.740606e-06	-4.601746e-09	-4.084496e+01	-3.006994e+02
2.900000e-06	-5.845546e-06	-4.661131e-09	-4.159161e+01	-3.045569e+02
2.910000e-06	-5.948261e-06	-4.718696e-09	-4.232244e+01	-3.082853e+02
2.920000e-06	-6.048759e-06	-4.775175e-09	-4.303749e+01	-3.118822e+02
2.930000e-06	-6.147146e-06	-4.829119e-09	-4.373752e+01	-3.153409e+02
2.940000e-06	-6.243455e-06	-4.880441e-09	-4.442278e+01	-3.186524e+02
