# Temperatura_=_26.2
# Concentracion g/m^3_=_5000.0
# C_Vs_to_Am_M_A/Vsm_=_65563218390.804596
# pendiente_HvsI_1/m_=_3716.3
# ordenada_HvsI_A/m_=_1297.0
# frecuencia_Hz_=_302510.95958831394

Tiempo_(s)	Campo_(V.s)	Magnetizacion_(V.s)	Campo_(kA/m)	Magnetizacion_(A/m)
0.000000e+00	-8.018608e-06	-5.233433e-09	-5.686376e+01	-3.420276e+02
1.000000e-08	-8.014258e-06	-5.232238e-09	-5.683291e+01	-3.418152e+02
2.000000e-08	-8.007302e-06	-5.227778e-09	-5.678359e+01	-3.415372e+02
3.000000e-08	-7.997632e-06	-5.222192e-09	-5.671501e+01	-3.412047e+02
4.000000e-08	-7.985074e-06	-5.216896e-09	-5.662595e+01	-3.408310e+02
5.000000e-08	-7.969459e-06	-5.210737e-09	-5.651522e+01	-3.404300e+02
6.000000e-08	-7.951199e-06	-5.203071e-09	-5.638573e+01	-3.400146e+02
7.000000e-08	-7.930724e-06	-5.202087e-09	-5.624053e+01	-3.395949e+02
8.000000e-08	-7.907572e-06	-5.228780e-09	-5.607635e+01	-3.391772e+02
9.000000e-08	-7.881209e-06	-5.236941e-09	-5.588940e+01	-3.387632e+02
1.000000e-07	-7.851675e-06	-5.209689e-09	-5.567996e+01	-3.383494e+02
1.100000e-07	-7.819254e-06	-5.183006e-09	-5.545004e+01	-3.379278e+02
1.200000e-07	-7.784097e-06	-5.165738e-09	-5.520073e+01	-3.374869e+02
1.300000e-07	-7.746476e-06	-5.136758e-09	-5.493395e+01	-3.370128e+02
1.400000e-07	-7.706715e-06	-5.102328e-09	-5.465198e+01	-3.364907e+02
1.500000e-07	-7.664690e-06	-5.128086e-09	-5.435396e+01	-3.359066e+02
1.600000e-07	-7.619955e-06	-5.114658e-09	-5.403673e+01	-3.352487e+02
1.700000e-07	-7.572449e-06	-5.086811e-09	-5.369984e+01	-3.345084e+02
1.800000e-07	-7.522079e-06	-5.099797e-09	-5.334264e+01	-3.336810e+02
1.900000e-07	-7.468678e-06	-5.078919e-09	-5.296394e+01	-3.327654e+02
2.000000e-07	-7.412463e-06	-5.062577e-09	-5.256529e+01	-3.317644e+02
2.100000e-07	-7.353561e-06	-5.036512e-09	-5.214760e+01	-3.306832e+02
2.200000e-07	-7.292024e-06	-5.011531e-09	-5.171121e+01	-3.295290e+02
2.300000e-07	-7.227858e-06	-4.992934e-09	-5.125618e+01	-3.283096e+02
2.400000e-07	-7.160937e-06	-4.962028e-09	-5.078161e+01	-3.270321e+02
2.500000e-07	-7.091298e-06	-4.953599e-09	-5.028776e+01	-3.257024e+02
2.600000e-07	-7.018846e-06	-4.943218e-09	-4.977397e+01	-3.243244e+02
2.700000e-07	-6.943525e-06	-4.908968e-09	-4.923984e+01	-3.228998e+02
2.800000e-07	-6.865328e-06	-4.876722e-09	-4.868530e+01	-3.214279e+02
2.900000e-07	-6.784337e-06	-4.875922e-09	-4.811096e+01	-3.199064e+02
3.000000e-07	-6.701023e-06	-4.863542e-09	-4.752014e+01	-3.183317e+02
3.100000e-07	-6.615553e-06	-4.819161e-09	-4.691403e+01	-3.166993e+02
3.200000e-07	-6.527736e-06	-4.796320e-09	-4.629127e+01	-3.150051e+02
3.300000e-07	-6.437517e-06	-4.769326e-09	-4.565149e+01	-3.132450e+02
3.400000e-07	-6.345020e-06	-4.732090e-09	-4.499555e+01	-3.114161e+02
3.500000e-07	-6.250230e-06	-4.703571e-09	-4.432335e+01	-3.095162e+02
3.600000e-07	-6.153097e-06	-4.683946e-09	-4.363454e+01	-3.075443e+02
3.700000e-07	-6.053703e-06	-4.655649e-09	-4.292968e+01	-3.054998e+02
3.800000e-07	-5.952168e-06	-4.610725e-09	-4.220965e+01	-3.033825e+02
3.900000e-07	-5.848495e-06	-4.577534e-09	-4.147446e+01	-3.011923e+02
4.000000e-07	-5.742753e-06	-4.550490e-09	-4.072459e+01	-2.989288e+02
4.100000e-07	-5.635035e-06	-4.517058e-09	-3.996071e+01	-2.965907e+02
4.200000e-07	-5.525322e-06	-4.473243e-09	-3.918268e+01	-2.941765e+02
4.300000e-07	-5.413593e-06	-4.436600e-09	-3.839036e+01	-2.916835e+02
4.400000e-07	-5.299814e-06	-4.401200e-09	-3.758350e+01	-2.891087e+02
4.500000e-07	-5.183961e-06	-4.357546e-09	-3.676193e+01	-2.864484e+02
4.600000e-07	-5.066169e-06	-4.315407e-09	-3.592662e+01	-2.836989e+02
4.700000e-07	-4.946539e-06	-4.275750e-09	-3.507826e+01	-2.808564e+02
4.800000e-07	-4.825077e-06	-4.228644e-09	-3.421692e+01	-2.779169e+02
4.900000e-07	-4.701861e-06	-4.174512e-09	-3.334313e+01	-2.748771e+02
5.000000e-07	-4.576952e-06	-4.128321e-09	-3.245734e+01	-2.717336e+02
5.100000e-07	-4.450414e-06	-4.083419e-09	-3.156000e+01	-2.684833e+02
5.200000e-07	-4.322231e-06	-4.030240e-09	-3.065100e+01	-2.651236e+02
5.300000e-07	-4.192479e-06	-3.969117e-09	-2.973086e+01	-2.616515e+02
5.400000e-07	-4.061180e-06	-3.909985e-09	-2.879976e+01	-2.580646e+02
5.500000e-07	-3.928292e-06	-3.857370e-09	-2.785738e+01	-2.543605e+02
5.600000e-07	-3.793934e-06	-3.804968e-09	-2.690459e+01	-2.505368e+02
5.700000e-07	-3.658173e-06	-3.747723e-09	-2.594185e+01	-2.465915e+02
5.800000e-07	-3.520978e-06	-3.686592e-09	-2.496893e+01	-2.425227e+02
5.900000e-07	-3.382340e-06	-3.621609e-09	-2.398578e+01	-2.383286e+02
6.000000e-07	-3.242217e-06	-3.551655e-09	-2.299210e+01	-2.340077e+02
6.100000e-07	-3.100674e-06	-3.481839e-09	-2.198835e+01	-2.295582e+02
6.200000e-07	-2.957799e-06	-3.411925e-09	-2.097516e+01	-2.249780e+02
6.300000e-07	-2.813767e-06	-3.339733e-09	-1.995376e+01	-2.202642e+02
6.400000e-07	-2.668775e-06	-3.263796e-09	-1.892555e+01	-2.154128e+02
6.500000e-07	-2.522847e-06	-3.186074e-09	-1.789071e+01	-2.104187e+02
6.600000e-07	-2.376072e-06	-3.107865e-09	-1.684986e+01	-2.052751e+02
6.700000e-07	-2.228613e-06	-3.028103e-09	-1.580415e+01	-1.999737e+02
6.800000e-07	-2.080511e-06	-2.948231e-09	-1.475390e+01	-1.945049e+02
6.900000e-07	-1.931702e-06	-2.864026e-09	-1.369862e+01	-1.888582e+02
7.000000e-07	-1.782272e-06	-2.773870e-09	-1.263894e+01	-1.830226e+02
7.100000e-07	-1.632307e-06	-2.679394e-09	-1.157547e+01	-1.769876e+02
7.200000e-07	-1.481804e-06	-2.583070e-09	-1.050818e+01	-1.707438e+02
7.300000e-07	-1.330820e-06	-2.482532e-09	-9.437474e+00	-1.642833e+02
7.400000e-07	-1.179398e-06	-2.376558e-09	-8.363670e+00	-1.575998e+02
7.500000e-07	-1.027534e-06	-2.271117e-09	-7.286732e+00	-1.506893e+02
7.600000e-07	-8.752993e-07	-2.165768e-09	-6.207163e+00	-1.435489e+02
7.700000e-07	-7.228015e-07	-2.054432e-09	-5.125729e+00	-1.361764e+02
7.800000e-07	-5.699946e-07	-1.937504e-09	-4.042102e+00	-1.285691e+02
7.900000e-07	-4.168922e-07	-1.818090e-09	-2.956381e+00	-1.207224e+02
8.000000e-07	-2.635970e-07	-1.693806e-09	-1.869292e+00	-1.126287e+02
8.100000e-07	-1.102362e-07	-1.564515e-09	-7.817374e-01	-1.042761e+02
8.200000e-07	4.320720e-08	-1.432146e-09	3.064028e-01	-9.564787e+01
8.300000e-07	1.967162e-07	-1.295202e-09	1.395008e+00	-8.672276e+01
8.400000e-07	3.501223e-07	-1.149939e-09	2.482884e+00	-7.747550e+01
8.500000e-07	5.034232e-07	-1.000097e-09	3.570013e+00	-6.787871e+01
8.600000e-07	6.566361e-07	-8.478286e-10	4.656519e+00	-5.790533e+01
8.700000e-07	8.096719e-07	-6.905649e-10	5.741768e+00	-4.753175e+01
8.800000e-07	9.624286e-07	-5.280094e-10	6.825039e+00	-3.674121e+01
8.900000e-07	1.114809e-06	-3.584625e-10	7.905643e+00	-2.552730e+01
9.000000e-07	1.266745e-06	-1.819347e-10	8.983093e+00	-1.389700e+01
9.100000e-07	1.418213e-06	4.438490e-13	1.005722e+01	-1.873037e+00
9.200000e-07	1.569198e-06	1.863085e-10	1.112793e+01	1.050482e+01
9.300000e-07	1.719660e-06	3.749825e-10	1.219493e+01	2.317980e+01
9.400000e-07	1.869468e-06	5.676929e-10	1.325729e+01	3.607943e+01
9.500000e-07	2.018546e-06	7.638701e-10	1.431447e+01	4.911831e+01
9.600000e-07	2.166879e-06	9.609129e-10	1.536637e+01	6.220186e+01
9.700000e-07	2.314428e-06	1.158421e-09	1.641271e+01	7.523098e+01
9.800000e-07	2.461225e-06	1.356881e-09	1.745371e+01	8.810708e+01
9.900000e-07	2.607211e-06	1.550141e-09	1.848897e+01	1.007370e+02
1.000000e-06	2.752147e-06	1.734710e-09	1.951679e+01	1.130376e+02
1.010000e-06	2.896005e-06	1.912265e-09	2.053695e+01	1.249391e+02
1.020000e-06	3.038776e-06	2.083482e-09	2.154940e+01	1.363876e+02
1.030000e-06	3.180270e-06	2.248523e-09	2.255280e+01	1.473462e+02
1.040000e-06	3.320482e-06	2.405818e-09	2.354712e+01	1.577945e+02
1.050000e-06	3.459403e-06	2.555485e-09	2.453227e+01	1.677272e+02
1.060000e-06	3.596931e-06	2.699564e-09	2.550755e+01	1.771517e+02
1.070000e-06	3.733071e-06	2.839247e-09	2.647298e+01	1.860849e+02
1.080000e-06	3.867882e-06	2.970683e-09	2.742899e+01	1.945503e+02
1.090000e-06	4.001314e-06	3.092063e-09	2.837522e+01	2.025746e+02
1.100000e-06	4.133296e-06	3.207074e-09	2.931116e+01	2.101850e+02
1.110000e-06	4.263824e-06	3.318283e-09	3.023680e+01	2.174079e+02
1.120000e-06	4.392824e-06	3.424800e-09	3.115161e+01	2.242670e+02
1.130000e-06	4.520306e-06	3.524284e-09	3.205564e+01	2.307836e+02
1.140000e-06	4.646227e-06	3.616730e-09	3.294860e+01	2.369764e+02
1.150000e-06	4.770499e-06	3.704071e-09	3.382988e+01	2.428628e+02
1.160000e-06	4.893112e-06	3.787653e-09	3.469938e+01	2.484593e+02
1.170000e-06	5.013980e-06	3.868627e-09	3.555651e+01	2.537827e+02
1.180000e-06	5.133098e-06	3.946577e-09	3.640123e+01	2.588506e+02
1.190000e-06	5.250404e-06	4.019752e-09	3.723311e+01	2.636817e+02
1.200000e-06	5.365702e-06	4.089414e-09	3.805074e+01	2.682952e+02
1.210000e-06	5.478843e-06	4.156390e-09	3.885308e+01	2.727104e+02
1.220000e-06	5.589881e-06	4.220612e-09	3.964050e+01	2.769453e+02
1.230000e-06	5.698972e-06	4.281682e-09	4.041412e+01	2.810158e+02
1.240000e-06	5.806068e-06	4.340737e-09	4.117359e+01	2.849341e+02
1.250000e-06	5.911063e-06	4.398068e-09	4.191815e+01	2.887085e+02
1.260000e-06	6.013870e-06	4.453202e-09	4.264721e+01	2.923423e+02
1.270000e-06	6.114403e-06	4.504479e-09	4.336014e+01	2.958349e+02
1.280000e-06	6.212609e-06	4.552378e-09	4.405656e+01	2.991816e+02
1.290000e-06	6.308458e-06	4.599990e-09	4.473627e+01	3.023757e+02
1.300000e-06	6.402039e-06	4.645347e-09	4.539990e+01	3.054096e+02
1.310000e-06	6.493440e-06	4.687527e-09	4.604807e+01	3.082762e+02
1.320000e-06	6.582522e-06	4.727805e-09	4.667979e+01	3.109713e+02
1.330000e-06	6.669235e-06	4.765589e-09	4.729472e+01	3.134939e+02
1.340000e-06	6.753662e-06	4.801323e-09	4.789342e+01	3.158475e+02
1.350000e-06	6.835745e-06	4.835249e-09	4.847551e+01	3.180397e+02
1.360000e-06	6.915331e-06	4.867661e-09	4.903990e+01	3.200822e+02
1.370000e-06	6.992355e-06	4.897959e-09	4.958612e+01	3.219890e+02
1.380000e-06	7.066756e-06	4.924540e-09	5.011372e+01	3.237758e+02
1.390000e-06	7.138465e-06	4.948565e-09	5.062225e+01	3.254577e+02
1.400000e-06	7.207603e-06	4.973230e-09	5.111254e+01	3.270481e+02
1.410000e-06	7.274214e-06	4.997571e-09	5.158491e+01	3.285571e+02
1.420000e-06	7.338268e-06	5.020365e-09	5.203914e+01	3.299913e+02
1.430000e-06	7.399773e-06	5.041438e-09	5.247531e+01	3.313530e+02
1.440000e-06	7.458691e-06	5.060987e-09	5.289312e+01	3.326411e+02
1.450000e-06	7.514959e-06	5.078899e-09	5.329214e+01	3.338518e+02
1.460000e-06	7.568475e-06	5.095101e-09	5.367165e+01	3.349799e+02
1.470000e-06	7.618970e-06	5.110141e-09	5.402974e+01	3.360202e+02
1.480000e-06	7.666434e-06	5.124120e-09	5.436632e+01	3.369689e+02
1.490000e-06	7.711159e-06	5.138153e-09	5.468350e+01	3.378250e+02
1.500000e-06	7.753147e-06	5.150820e-09	5.498125e+01	3.385901e+02
1.510000e-06	7.792298e-06	5.162512e-09	5.525889e+01	3.392695e+02
1.520000e-06	7.828700e-06	5.173147e-09	5.551703e+01	3.398709e+02
1.530000e-06	7.862364e-06	5.182596e-09	5.575576e+01	3.404041e+02
1.540000e-06	7.893243e-06	5.191834e-09	5.597474e+01	3.408791e+02
1.550000e-06	7.921399e-06	5.201113e-09	5.617440e+01	3.413053e+02
1.560000e-06	7.946679e-06	5.208617e-09	5.635367e+01	3.416900e+02
1.570000e-06	7.969047e-06	5.213118e-09	5.651230e+01	3.420372e+02
1.580000e-06	7.988704e-06	5.217928e-09	5.665170e+01	3.423474e+02
1.590000e-06	8.005480e-06	5.223965e-09	5.677067e+01	3.426175e+02
1.600000e-06	8.019203e-06	5.228351e-09	5.686798e+01	3.428412e+02
1.610000e-06	8.029822e-06	5.230800e-09	5.694328e+01	3.430106e+02
1.620000e-06	8.037319e-06	5.233520e-09	5.699645e+01	3.431170e+02
1.630000e-06	8.041917e-06	5.237017e-09	5.702905e+01	3.431528e+02
1.640000e-06	8.043672e-06	5.241084e-09	5.704150e+01	3.431128e+02
1.650000e-06	8.042604e-06	5.239581e-09	5.703393e+01	3.429954e+02
1.660000e-06	8.038931e-06	5.234438e-09	5.700788e+01	3.428031e+02
1.670000e-06	8.032556e-06	5.229072e-09	5.696267e+01	3.425424e+02
1.680000e-06	8.023470e-06	5.224138e-09	5.689824e+01	3.422238e+02
1.690000e-06	8.011752e-06	5.219678e-09	5.681514e+01	3.418600e+02
1.700000e-06	7.997233e-06	5.216602e-09	5.671218e+01	3.414650e+02
1.710000e-06	7.980122e-06	5.214850e-09	5.659084e+01	3.410521e+02
1.720000e-06	7.960711e-06	5.191668e-09	5.645319e+01	3.406324e+02
1.730000e-06	7.938716e-06	5.141891e-09	5.629721e+01	3.402134e+02
1.740000e-06	7.913384e-06	5.135404e-09	5.611756e+01	3.397981e+02
1.750000e-06	7.884343e-06	5.153057e-09	5.591162e+01	3.393844e+02
1.760000e-06	7.851996e-06	5.148708e-09	5.568223e+01	3.389657e+02
1.770000e-06	7.817148e-06	5.156035e-09	5.543511e+01	3.385313e+02
1.780000e-06	7.780061e-06	5.188692e-09	5.517211e+01	3.380677e+02
1.790000e-06	7.740743e-06	5.154526e-09	5.489329e+01	3.375604e+02
1.800000e-06	7.699318e-06	5.134997e-09	5.459952e+01	3.369949e+02
1.810000e-06	7.655458e-06	5.135284e-09	5.428849e+01	3.363587e+02
1.820000e-06	7.609006e-06	5.100948e-09	5.395908e+01	3.356423e+02
1.830000e-06	7.559753e-06	5.116503e-09	5.360980e+01	3.348396e+02
1.840000e-06	7.507401e-06	5.077230e-09	5.323855e+01	3.339487e+02
1.850000e-06	7.452098e-06	5.072175e-09	5.284637e+01	3.329712e+02
1.860000e-06	7.394053e-06	5.076420e-09	5.243475e+01	3.319118e+02
1.870000e-06	7.333424e-06	5.025546e-09	5.200479e+01	3.307774e+02
1.880000e-06	7.270007e-06	5.038189e-09	5.155507e+01	3.295754e+02
1.890000e-06	7.203714e-06	5.004790e-09	5.108496e+01	3.283134e+02
1.900000e-06	7.134667e-06	4.967610e-09	5.059531e+01	3.269977e+02
1.910000e-06	7.062787e-06	4.966436e-09	5.008558e+01	3.256329e+02
1.920000e-06	6.988221e-06	4.947672e-09	4.955680e+01	3.242211e+02
1.930000e-06	6.910889e-06	4.931007e-09	4.900840e+01	3.227625e+02
1.940000e-06	6.830808e-06	4.892083e-09	4.844050e+01	3.212551e+02
1.950000e-06	6.748256e-06	4.881407e-09	4.785509e+01	3.196956e+02
1.960000e-06	6.663272e-06	4.852117e-09	4.725243e+01	3.180798e+02
1.970000e-06	6.575824e-06	4.818789e-09	4.663229e+01	3.164032e+02
1.980000e-06	6.485959e-06	4.804347e-09	4.599502e+01	3.146619e+02
1.990000e-06	6.393887e-06	4.775858e-09	4.534209e+01	3.128525e+02
2.000000e-06	6.299514e-06	4.737525e-09	4.467284e+01	3.109727e+02
2.010000e-06	6.202793e-06	4.696191e-09	4.398695e+01	3.090210e+02
2.020000e-06	6.103854e-06	4.678341e-09	4.328533e+01	3.069968e+02
2.030000e-06	6.002747e-06	4.652209e-09	4.256833e+01	3.049000e+02
2.040000e-06	5.899488e-06	4.623259e-09	4.183607e+01	3.027302e+02
2.050000e-06	5.794169e-06	4.592740e-09	4.108921e+01	3.004873e+02
2.060000e-06	5.686964e-06	4.557784e-09	4.032897e+01	2.981703e+02
2.070000e-06	5.577832e-06	4.513044e-09	3.955505e+01	2.957777e+02
2.080000e-06	5.466670e-06	4.467475e-09	3.876675e+01	2.933071e+02
2.090000e-06	5.353416e-06	4.438360e-09	3.796362e+01	2.907556e+02
2.100000e-06	5.238164e-06	4.405629e-09	3.714631e+01	2.881197e+02
2.110000e-06	5.120921e-06	4.360515e-09	3.631488e+01	2.853957e+02
2.120000e-06	5.001634e-06	4.312393e-09	3.546896e+01	2.825797e+02
2.130000e-06	4.880464e-06	4.268996e-09	3.460969e+01	2.796679e+02
2.140000e-06	4.757559e-06	4.222131e-09	3.373811e+01	2.766567e+02
2.150000e-06	4.632904e-06	4.176868e-09	3.285412e+01	2.735427e+02
2.160000e-06	4.506540e-06	4.132933e-09	3.195802e+01	2.703229e+02
2.170000e-06	4.378464e-06	4.088627e-09	3.104977e+01	2.669943e+02
2.180000e-06	4.248756e-06	4.038397e-09	3.012995e+01	2.635542e+02
2.190000e-06	4.117628e-06	3.983927e-09	2.920006e+01	2.599999e+02
2.200000e-06	3.984976e-06	3.925795e-09	2.825936e+01	2.563291e+02
2.210000e-06	3.850791e-06	3.864573e-09	2.730779e+01	2.525394e+02
2.220000e-06	3.715148e-06	3.801374e-09	2.634588e+01	2.486287e+02
2.230000e-06	3.578084e-06	3.735899e-09	2.537390e+01	2.445949e+02
2.240000e-06	3.439699e-06	3.675565e-09	2.439254e+01	2.404364e+02
2.250000e-06	3.300040e-06	3.614881e-09	2.340215e+01	2.361515e+02
2.260000e-06	3.159027e-06	3.550451e-09	2.240216e+01	2.317386e+02
2.270000e-06	3.016706e-06	3.478939e-09	2.139290e+01	2.271955e+02
2.280000e-06	2.873205e-06	3.405839e-09	2.037526e+01	2.225198e+02
2.290000e-06	2.728626e-06	3.334966e-09	1.934999e+01	2.177078e+02
2.300000e-06	2.583173e-06	3.263084e-09	1.831851e+01	2.127547e+02
2.310000e-06	2.436858e-06	3.188641e-09	1.728092e+01	2.076542e+02
2.320000e-06	2.289716e-06	3.108963e-09	1.623746e+01	2.023985e+02
2.330000e-06	2.141849e-06	3.022616e-09	1.518887e+01	1.969781e+02
2.340000e-06	1.993247e-06	2.930918e-09	1.413506e+01	1.913829e+02
2.350000e-06	1.843897e-06	2.839202e-09	1.307595e+01	1.856019e+02
2.360000e-06	1.693918e-06	2.750117e-09	1.201238e+01	1.796246e+02
2.370000e-06	1.543402e-06	2.659679e-09	1.094500e+01	1.734410e+02
2.380000e-06	1.392403e-06	2.565865e-09	9.874192e+00	1.670426e+02
2.390000e-06	1.241015e-06	2.465959e-09	8.800628e+00	1.604229e+02
2.400000e-06	1.089254e-06	2.359305e-09	7.724420e+00	1.535772e+02
2.410000e-06	9.371466e-07	2.250089e-09	6.645752e+00	1.465023e+02
2.420000e-06	7.847366e-07	2.137755e-09	5.564940e+00	1.391960e+02
2.430000e-06	6.320029e-07	2.023819e-09	4.481833e+00	1.316557e+02
2.440000e-06	4.789996e-07	1.906900e-09	3.396814e+00	1.238776e+02
2.450000e-06	3.258081e-07	1.786959e-09	2.310460e+00	1.158551e+02
2.460000e-06	1.724657e-07	1.663582e-09	1.223036e+00	1.075775e+02
2.470000e-06	1.900377e-08	1.533511e-09	1.347648e-01	9.902967e+01
2.480000e-06	-1.344772e-07	1.397390e-09	-9.536418e-01	9.019142e+01
2.490000e-06	-2.878674e-07	1.256166e-09	-2.041405e+00	8.103854e+01
2.500000e-06	-4.411707e-07	1.110704e-09	-3.128551e+00	7.154404e+01
2.510000e-06	-5.943433e-07	9.608601e-10	-4.214771e+00	6.168048e+01
2.520000e-06	-7.472933e-07	8.042180e-10	-5.299412e+00	5.142291e+01
2.530000e-06	-8.999760e-07	6.401048e-10	-6.382158e+00	4.075227e+01
2.540000e-06	-1.052379e-06	4.698108e-10	-7.462919e+00	2.965884e+01
2.550000e-06	-1.204409e-06	2.948024e-10	-8.541034e+00	1.814551e+01
2.560000e-06	-1.356021e-06	1.152701e-10	-9.616186e+00	6.230317e+00
2.570000e-06	-1.507163e-06	-7.126988e-11	-1.068801e+01	-6.051897e+00
2.580000e-06	-1.657791e-06	-2.652980e-10	-1.175618e+01	-1.864913e+01
2.590000e-06	-1.807811e-06	-4.645593e-10	-1.282004e+01	-3.149320e+01
2.600000e-06	-1.957029e-06	-6.674331e-10	-1.387822e+01	-4.450203e+01
2.610000e-06	-2.105484e-06	-8.739611e-10	-1.493099e+01	-5.758322e+01
2.620000e-06	-2.253231e-06	-1.080247e-09	-1.597873e+01	-7.063847e+01
2.630000e-06	-2.400196e-06	-1.282011e-09	-1.702093e+01	-8.356853e+01
2.640000e-06	-2.546275e-06	-1.478073e-09	-1.805685e+01	-9.627820e+01
2.650000e-06	-2.691333e-06	-1.667600e-09	-1.908552e+01	-1.086811e+02
2.660000e-06	-2.835364e-06	-1.849995e-09	-2.010691e+01	-1.207032e+02
2.670000e-06	-2.978313e-06	-2.024677e-09	-2.112063e+01	-1.322861e+02
2.680000e-06	-3.120055e-06	-2.191915e-09	-2.212579e+01	-1.433878e+02
2.690000e-06	-3.260531e-06	-2.352553e-09	-2.312198e+01	-1.539835e+02
2.700000e-06	-3.399766e-06	-2.507368e-09	-2.410936e+01	-1.640636e+02
2.710000e-06	-3.537669e-06	-2.656243e-09	-2.508729e+01	-1.736324e+02
2.720000e-06	-3.674204e-06	-2.797661e-09	-2.605552e+01	-1.827042e+02
2.730000e-06	-3.809484e-06	-2.930976e-09	-2.701486e+01	-1.913011e+02
2.740000e-06	-3.943363e-06	-3.056126e-09	-2.796426e+01	-1.994489e+02
2.750000e-06	-4.075778e-06	-3.173910e-09	-2.890328e+01	-2.071753e+02
2.760000e-06	-4.206792e-06	-3.285033e-09	-2.983236e+01	-2.145067e+02
2.770000e-06	-4.336358e-06	-3.390111e-09	-3.075117e+01	-2.214679e+02
2.780000e-06	-4.464425e-06	-3.490138e-09	-3.165936e+01	-2.280807e+02
2.790000e-06	-4.590978e-06	-3.586220e-09	-3.255681e+01	-2.343646e+02
2.800000e-06	-4.715941e-06	-3.678875e-09	-3.344298e+01	-2.403373e+02
2.810000e-06	-4.839258e-06	-3.767160e-09	-3.431748e+01	-2.460153e+02
2.820000e-06	-4.960850e-06	-3.850071e-09	-3.517975e+01	-2.514154e+02
2.830000e-06	-5.080617e-06	-3.927161e-09	-3.602907e+01	-2.565548e+02
2.840000e-06	-5.198394e-06	-4.000117e-09	-3.686428e+01	-2.614521e+02
2.850000e-06	-5.314021e-06	-4.068919e-09	-3.768425e+01	-2.661262e+02
2.860000e-06	-5.427440e-06	-4.135911e-09	-3.848855e+01	-2.705965e+02
2.870000e-06	-5.538681e-06	-4.204087e-09	-3.927742e+01	-2.748816e+02
2.880000e-06	-5.647887e-06	-4.270408e-09	-4.005185e+01	-2.789980e+02
2.890000e-06	-5.755210e-06	-4.334508e-09	-4.081293e+01	-2.829592e+02
2.900000e-06	-5.860583e-06	-4.395788e-09	-4.156018e+01	-2.867745e+02
2.910000e-06	-5.963803e-06	-4.452896e-09	-4.229216e+01	-2.904488e+02
2.920000e-06	-6.064777e-06	-4.507152e-09	-4.300822e+01	-2.939825e+02
2.930000e-06	-6.163560e-06	-4.557845e-09	-4.370874e+01	-2.973719e+02
2.940000e-06	-6.260167e-06	-4.606077e-09	-4.439382e+01	-3.006108e+02
