# Temperatura_=_35.59
# Concentracion g/m^3_=_5000.0
# C_Vs_to_Am_M_A/Vsm_=_65563218390.804596
# pendiente_HvsI_1/m_=_3716.3
# ordenada_HvsI_A/m_=_1297.0
# frecuencia_Hz_=_302513.3051625266

Tiempo_(s)	Campo_(V.s)	Magnetizacion_(V.s)	Campo_(kA/m)	Magnetizacion_(A/m)
0.000000e+00	-8.062799e-06	-5.333362e-09	-5.686150e+01	-3.488164e+02
1.000000e-08	-8.058664e-06	-5.330449e-09	-5.683234e+01	-3.486005e+02
2.000000e-08	-8.051990e-06	-5.328142e-09	-5.678527e+01	-3.483150e+02
3.000000e-08	-8.042600e-06	-5.324909e-09	-5.671905e+01	-3.479683e+02
4.000000e-08	-8.030252e-06	-5.322169e-09	-5.663196e+01	-3.475713e+02
5.000000e-08	-8.014843e-06	-5.319995e-09	-5.652330e+01	-3.471362e+02
6.000000e-08	-7.996718e-06	-5.318544e-09	-5.639547e+01	-3.466754e+02
7.000000e-08	-7.976339e-06	-5.319963e-09	-5.625176e+01	-3.462000e+02
8.000000e-08	-7.953363e-06	-5.324945e-09	-5.608972e+01	-3.457188e+02
9.000000e-08	-7.927198e-06	-5.318057e-09	-5.590520e+01	-3.452374e+02
1.000000e-07	-7.897793e-06	-5.303299e-09	-5.569782e+01	-3.447576e+02
1.100000e-07	-7.865461e-06	-5.282056e-09	-5.546981e+01	-3.442773e+02
1.200000e-07	-7.830349e-06	-5.265849e-09	-5.522218e+01	-3.437911e+02
1.300000e-07	-7.792703e-06	-5.254606e-09	-5.495669e+01	-3.432904e+02
1.400000e-07	-7.752868e-06	-5.229997e-09	-5.467576e+01	-3.427643e+02
1.500000e-07	-7.710803e-06	-5.209495e-09	-5.437911e+01	-3.422010e+02
1.600000e-07	-7.666113e-06	-5.201696e-09	-5.406394e+01	-3.415883e+02
1.700000e-07	-7.618674e-06	-5.188876e-09	-5.372938e+01	-3.409147e+02
1.800000e-07	-7.568300e-06	-5.169308e-09	-5.337413e+01	-3.401702e+02
1.900000e-07	-7.514877e-06	-5.185144e-09	-5.299738e+01	-3.393468e+02
2.000000e-07	-7.458620e-06	-5.180459e-09	-5.260063e+01	-3.384390e+02
2.100000e-07	-7.399621e-06	-5.141280e-09	-5.218455e+01	-3.374434e+02
2.200000e-07	-7.338021e-06	-5.124169e-09	-5.175013e+01	-3.363593e+02
2.300000e-07	-7.273738e-06	-5.103010e-09	-5.129678e+01	-3.351877e+02
2.400000e-07	-7.206628e-06	-5.076629e-09	-5.082350e+01	-3.339315e+02
2.500000e-07	-7.136835e-06	-5.063634e-09	-5.033130e+01	-3.325947e+02
2.600000e-07	-7.064283e-06	-5.044059e-09	-4.981963e+01	-3.311820e+02
2.700000e-07	-6.988881e-06	-5.004077e-09	-4.928787e+01	-3.296984e+02
2.800000e-07	-6.910597e-06	-4.972830e-09	-4.873579e+01	-3.281485e+02
2.900000e-07	-6.829525e-06	-4.964664e-09	-4.816404e+01	-3.265364e+02
3.000000e-07	-6.746076e-06	-4.947461e-09	-4.757553e+01	-3.248652e+02
3.100000e-07	-6.660359e-06	-4.923827e-09	-4.697104e+01	-3.231367e+02
3.200000e-07	-6.572318e-06	-4.900210e-09	-4.635014e+01	-3.213514e+02
3.300000e-07	-6.481889e-06	-4.868425e-09	-4.571240e+01	-3.195084e+02
3.400000e-07	-6.389115e-06	-4.840863e-09	-4.505813e+01	-3.176057e+02
3.500000e-07	-6.294029e-06	-4.811847e-09	-4.438755e+01	-3.156398e+02
3.600000e-07	-6.196584e-06	-4.784136e-09	-4.370034e+01	-3.136066e+02
3.700000e-07	-6.096860e-06	-4.748945e-09	-4.299706e+01	-3.115014e+02
3.800000e-07	-5.995032e-06	-4.705801e-09	-4.227893e+01	-3.093196e+02
3.900000e-07	-5.891075e-06	-4.671463e-09	-4.154579e+01	-3.070569e+02
4.000000e-07	-5.784955e-06	-4.642756e-09	-4.079739e+01	-3.047095e+02
4.100000e-07	-5.676798e-06	-4.605447e-09	-4.003464e+01	-3.022749e+02
4.200000e-07	-5.566689e-06	-4.559102e-09	-3.925811e+01	-2.997516e+02
4.300000e-07	-5.454598e-06	-4.521698e-09	-3.846761e+01	-2.971389e+02
4.400000e-07	-5.340330e-06	-4.484241e-09	-3.766176e+01	-2.944374e+02
4.500000e-07	-5.223907e-06	-4.442139e-09	-3.684070e+01	-2.916479e+02
4.600000e-07	-5.105598e-06	-4.402242e-09	-3.600635e+01	-2.887712e+02
4.700000e-07	-4.985471e-06	-4.363033e-09	-3.515918e+01	-2.858077e+02
4.800000e-07	-4.863519e-06	-4.313465e-09	-3.429913e+01	-2.827568e+02
4.900000e-07	-4.739806e-06	-4.257738e-09	-3.342666e+01	-2.796167e+02
5.000000e-07	-4.614399e-06	-4.208247e-09	-3.254225e+01	-2.763839e+02
5.100000e-07	-4.487370e-06	-4.159508e-09	-3.164640e+01	-2.730534e+02
5.200000e-07	-4.358601e-06	-4.102062e-09	-3.073828e+01	-2.696193e+02
5.300000e-07	-4.228234e-06	-4.038769e-09	-2.981889e+01	-2.660746e+02
5.400000e-07	-4.096353e-06	-3.980476e-09	-2.888883e+01	-2.624127e+02
5.500000e-07	-3.962959e-06	-3.925699e-09	-2.794808e+01	-2.586273e+02
5.600000e-07	-3.828101e-06	-3.871035e-09	-2.699702e+01	-2.547134e+02
5.700000e-07	-3.691705e-06	-3.815070e-09	-2.603511e+01	-2.506676e+02
5.800000e-07	-3.553847e-06	-3.755517e-09	-2.506289e+01	-2.464884e+02
5.900000e-07	-3.414572e-06	-3.688548e-09	-2.408068e+01	-2.421762e+02
6.000000e-07	-3.273769e-06	-3.616589e-09	-2.308769e+01	-2.377323e+02
6.100000e-07	-3.131468e-06	-3.546008e-09	-2.208414e+01	-2.331588e+02
6.200000e-07	-2.987871e-06	-3.472366e-09	-2.107145e+01	-2.284572e+02
6.300000e-07	-2.843212e-06	-3.392899e-09	-2.005126e+01	-2.236276e+02
6.400000e-07	-2.697604e-06	-3.311633e-09	-1.902439e+01	-2.186679e+02
6.500000e-07	-2.551082e-06	-3.231892e-09	-1.799107e+01	-2.135727e+02
6.600000e-07	-2.403756e-06	-3.151065e-09	-1.695207e+01	-2.083337e+02
6.700000e-07	-2.255690e-06	-3.070442e-09	-1.590786e+01	-2.029393e+02
6.800000e-07	-2.106910e-06	-2.989794e-09	-1.485862e+01	-1.973753e+02
6.900000e-07	-1.957459e-06	-2.903999e-09	-1.380465e+01	-1.916263e+02
7.000000e-07	-1.807354e-06	-2.813466e-09	-1.274605e+01	-1.856765e+02
7.100000e-07	-1.656610e-06	-2.719328e-09	-1.168296e+01	-1.795114e+02
7.200000e-07	-1.505321e-06	-2.625437e-09	-1.061601e+01	-1.731187e+02
7.300000e-07	-1.353464e-06	-2.523769e-09	-9.545073e+00	-1.664894e+02
7.400000e-07	-1.201070e-06	-2.412014e-09	-8.470342e+00	-1.596180e+02
7.500000e-07	-1.048260e-06	-2.299611e-09	-7.392675e+00	-1.525023e+02
7.600000e-07	-8.950995e-07	-2.189303e-09	-6.312534e+00	-1.451421e+02
7.700000e-07	-7.416116e-07	-2.075558e-09	-5.230088e+00	-1.375378e+02
7.800000e-07	-5.878351e-07	-1.955465e-09	-4.145605e+00	-1.296886e+02
7.900000e-07	-4.338447e-07	-1.833997e-09	-3.059615e+00	-1.215900e+02
8.000000e-07	-2.796964e-07	-1.707071e-09	-1.972510e+00	-1.132321e+02
8.100000e-07	-1.253967e-07	-1.572647e-09	-8.843387e-01	-1.045983e+02
8.200000e-07	2.902197e-08	-1.434243e-09	2.046725e-01	-9.566489e+01
8.300000e-07	1.834091e-07	-1.290734e-09	1.293461e+00	-8.640118e+01
8.400000e-07	3.377359e-07	-1.140624e-09	2.381824e+00	-7.677174e+01
8.500000e-07	4.920101e-07	-9.852667e-10	3.469816e+00	-6.673902e+01
8.600000e-07	6.461457e-07	-8.248575e-10	4.556831e+00	-5.626722e+01
8.700000e-07	8.000598e-07	-6.595975e-10	5.642284e+00	-4.532681e+01
8.800000e-07	9.536760e-07	-4.872454e-10	6.725635e+00	-3.389906e+01
8.900000e-07	1.106921e-06	-3.074392e-10	7.806371e+00	-2.198044e+01
9.000000e-07	1.259804e-06	-1.216203e-10	8.884547e+00	-9.586117e+00
9.100000e-07	1.412291e-06	7.040201e-11	9.959939e+00	3.247847e+00
9.200000e-07	1.564259e-06	2.676206e-10	1.103167e+01	1.646376e+01
9.300000e-07	1.715620e-06	4.704106e-10	1.209912e+01	2.998341e+01
9.400000e-07	1.866223e-06	6.772277e-10	1.316122e+01	4.371091e+01
9.500000e-07	2.016056e-06	8.874360e-10	1.421789e+01	5.753704e+01
9.600000e-07	2.165220e-06	1.097039e-09	1.526984e+01	7.134481e+01
9.700000e-07	2.313651e-06	1.304398e-09	1.631663e+01	8.501570e+01
9.800000e-07	2.461234e-06	1.510461e-09	1.735743e+01	9.843602e+01
9.900000e-07	2.607941e-06	1.710570e-09	1.839206e+01	1.115028e+02
1.000000e-06	2.753715e-06	1.899423e-09	1.942010e+01	1.241286e+02
1.010000e-06	2.898486e-06	2.077540e-09	2.044107e+01	1.362452e+02
1.020000e-06	3.042133e-06	2.249992e-09	2.145412e+01	1.478053e+02
1.030000e-06	3.184553e-06	2.416233e-09	2.245851e+01	1.587828e+02
1.040000e-06	3.325692e-06	2.573944e-09	2.345387e+01	1.691712e+02
1.050000e-06	3.465446e-06	2.724656e-09	2.443946e+01	1.789808e+02
1.060000e-06	3.603851e-06	2.868134e-09	2.541554e+01	1.882354e+02
1.070000e-06	3.740940e-06	3.003807e-09	2.638233e+01	1.969675e+02
1.080000e-06	3.876599e-06	3.128324e-09	2.733905e+01	2.052145e+02
1.090000e-06	4.010820e-06	3.244666e-09	2.828561e+01	2.130151e+02
1.100000e-06	4.143653e-06	3.355609e-09	2.922240e+01	2.204061e+02
1.110000e-06	4.275065e-06	3.463229e-09	3.014916e+01	2.274204e+02
1.120000e-06	4.404959e-06	3.568235e-09	3.106521e+01	2.340863e+02
1.130000e-06	4.533244e-06	3.666842e-09	3.196992e+01	2.404272e+02
1.140000e-06	4.659924e-06	3.757871e-09	3.286331e+01	2.464623e+02
1.150000e-06	4.785096e-06	3.842777e-09	3.374606e+01	2.522083e+02
1.160000e-06	4.908662e-06	3.924469e-09	3.461749e+01	2.576801e+02
1.170000e-06	5.030511e-06	4.002788e-09	3.547681e+01	2.628922e+02
1.180000e-06	5.150517e-06	4.076815e-09	3.632313e+01	2.678598e+02
1.190000e-06	5.268590e-06	4.145589e-09	3.715582e+01	2.725990e+02
1.200000e-06	5.384734e-06	4.212641e-09	3.797491e+01	2.771266e+02
1.210000e-06	5.498740e-06	4.278509e-09	3.877891e+01	2.814592e+02
1.220000e-06	5.610551e-06	4.343256e-09	3.956744e+01	2.856129e+02
1.230000e-06	5.720361e-06	4.405258e-09	4.034186e+01	2.896013e+02
1.240000e-06	5.828203e-06	4.464200e-09	4.110239e+01	2.934352e+02
1.250000e-06	5.933914e-06	4.521086e-09	4.184790e+01	2.971215e+02
1.260000e-06	6.037399e-06	4.574729e-09	4.257771e+01	3.006630e+02
1.270000e-06	6.138695e-06	4.624034e-09	4.329209e+01	3.040590e+02
1.280000e-06	6.237779e-06	4.669613e-09	4.399086e+01	3.073054e+02
1.290000e-06	6.334469e-06	4.713260e-09	4.467275e+01	3.103968e+02
1.300000e-06	6.428822e-06	4.754503e-09	4.533816e+01	3.133273e+02
1.310000e-06	6.520934e-06	4.793398e-09	4.598776e+01	3.160921e+02
1.320000e-06	6.610722e-06	4.832452e-09	4.662098e+01	3.186892e+02
1.330000e-06	6.698110e-06	4.872045e-09	4.723726e+01	3.211201e+02
1.340000e-06	6.783168e-06	4.908258e-09	4.783712e+01	3.233900e+02
1.350000e-06	6.865924e-06	4.939498e-09	4.842074e+01	3.255081e+02
1.360000e-06	6.946169e-06	4.968831e-09	4.898666e+01	3.274867e+02
1.370000e-06	7.023840e-06	4.997777e-09	4.953442e+01	3.293402e+02
1.380000e-06	7.098892e-06	5.024090e-09	5.006371e+01	3.310832e+02
1.390000e-06	7.171249e-06	5.047338e-09	5.057400e+01	3.327298e+02
1.400000e-06	7.241028e-06	5.069883e-09	5.106610e+01	3.342915e+02
1.410000e-06	7.308257e-06	5.092437e-09	5.154022e+01	3.357768e+02
1.420000e-06	7.372849e-06	5.114290e-09	5.199575e+01	3.371901e+02
1.430000e-06	7.434891e-06	5.135072e-09	5.243328e+01	3.385325e+02
1.440000e-06	7.494441e-06	5.154605e-09	5.285326e+01	3.398014e+02
1.450000e-06	7.551294e-06	5.172468e-09	5.325420e+01	3.409924e+02
1.460000e-06	7.605379e-06	5.189272e-09	5.363563e+01	3.420999e+02
1.470000e-06	7.656532e-06	5.204554e-09	5.399637e+01	3.431190e+02
1.480000e-06	7.704598e-06	5.217685e-09	5.433535e+01	3.440461e+02
1.490000e-06	7.749844e-06	5.230459e-09	5.465444e+01	3.448804e+02
1.500000e-06	7.792355e-06	5.242668e-09	5.495424e+01	3.456241e+02
1.510000e-06	7.832021e-06	5.253909e-09	5.523398e+01	3.462827e+02
1.520000e-06	7.868947e-06	5.264685e-09	5.549439e+01	3.468639e+02
1.530000e-06	7.903112e-06	5.274299e-09	5.573533e+01	3.473772e+02
1.540000e-06	7.934407e-06	5.282764e-09	5.595604e+01	3.478327e+02
1.550000e-06	7.962974e-06	5.290472e-09	5.615750e+01	3.482393e+02
1.560000e-06	7.988677e-06	5.296833e-09	5.633877e+01	3.486044e+02
1.570000e-06	8.011379e-06	5.302159e-09	5.649887e+01	3.489321e+02
1.580000e-06	8.031354e-06	5.307962e-09	5.663974e+01	3.492233e+02
1.590000e-06	8.048525e-06	5.313529e-09	5.676084e+01	3.494756e+02
1.600000e-06	8.062645e-06	5.317011e-09	5.686041e+01	3.496837e+02
1.610000e-06	8.073572e-06	5.319027e-09	5.693747e+01	3.498401e+02
1.620000e-06	8.081348e-06	5.321161e-09	5.699232e+01	3.499369e+02
1.630000e-06	8.086257e-06	5.323570e-09	5.702693e+01	3.499663e+02
1.640000e-06	8.088323e-06	5.324581e-09	5.704150e+01	3.499227e+02
1.650000e-06	8.087557e-06	5.321388e-09	5.703610e+01	3.498030e+02
1.660000e-06	8.084125e-06	5.316786e-09	5.701190e+01	3.496077e+02
1.670000e-06	8.077973e-06	5.311502e-09	5.696851e+01	3.493409e+02
1.680000e-06	8.069138e-06	5.307452e-09	5.690620e+01	3.490102e+02
1.690000e-06	8.057609e-06	5.304004e-09	5.682489e+01	3.486260e+02
1.700000e-06	8.043202e-06	5.300183e-09	5.672329e+01	3.482001e+02
1.710000e-06	8.026139e-06	5.291737e-09	5.660296e+01	3.477450e+02
1.720000e-06	8.006787e-06	5.271308e-09	5.646648e+01	3.472724e+02
1.730000e-06	7.984910e-06	5.239695e-09	5.631220e+01	3.467917e+02
1.740000e-06	7.959787e-06	5.225074e-09	5.613502e+01	3.463096e+02
1.750000e-06	7.930988e-06	5.227771e-09	5.593192e+01	3.458289e+02
1.760000e-06	7.898784e-06	5.231409e-09	5.570481e+01	3.453488e+02
1.770000e-06	7.863972e-06	5.225628e-09	5.545930e+01	3.448647e+02
1.780000e-06	7.826829e-06	5.232320e-09	5.519736e+01	3.443687e+02
1.790000e-06	7.787487e-06	5.246610e-09	5.491991e+01	3.438506e+02
1.800000e-06	7.746110e-06	5.249602e-09	5.462810e+01	3.432988e+02
1.810000e-06	7.702195e-06	5.251903e-09	5.431840e+01	3.427010e+02
1.820000e-06	7.655597e-06	5.249793e-09	5.398977e+01	3.420455e+02
1.830000e-06	7.606244e-06	5.213572e-09	5.364172e+01	3.413218e+02
1.840000e-06	7.553799e-06	5.178178e-09	5.327186e+01	3.405212e+02
1.850000e-06	7.498417e-06	5.182851e-09	5.288129e+01	3.396375e+02
1.860000e-06	7.440306e-06	5.169705e-09	5.247147e+01	3.386668e+02
1.870000e-06	7.379504e-06	5.156121e-09	5.204268e+01	3.376075e+02
1.880000e-06	7.315945e-06	5.151552e-09	5.159444e+01	3.364603e+02
1.890000e-06	7.249595e-06	5.126548e-09	5.112652e+01	3.352275e+02
1.900000e-06	7.180454e-06	5.094484e-09	5.063891e+01	3.339128e+02
1.910000e-06	7.108393e-06	5.083595e-09	5.013072e+01	3.325209e+02
1.920000e-06	7.033599e-06	5.080548e-09	4.960324e+01	3.310567e+02
1.930000e-06	6.956032e-06	5.051090e-09	4.905621e+01	3.295249e+02
1.940000e-06	6.875724e-06	5.017056e-09	4.848986e+01	3.279298e+02
1.950000e-06	6.792997e-06	4.980235e-09	4.790644e+01	3.262748e+02
1.960000e-06	6.707736e-06	4.948834e-09	4.730515e+01	3.245621e+02
1.970000e-06	6.619914e-06	4.931129e-09	4.668580e+01	3.227927e+02
1.980000e-06	6.529763e-06	4.903382e-09	4.605002e+01	3.209660e+02
1.990000e-06	6.437402e-06	4.882283e-09	4.539867e+01	3.190802e+02
2.000000e-06	6.342720e-06	4.844600e-09	4.473094e+01	3.171323e+02
2.010000e-06	6.245762e-06	4.808347e-09	4.404716e+01	3.151184e+02
2.020000e-06	6.146635e-06	4.782967e-09	4.334808e+01	3.130338e+02
2.030000e-06	6.045251e-06	4.753208e-09	4.263309e+01	3.108740e+02
2.040000e-06	5.941634e-06	4.715907e-09	4.190235e+01	3.086344e+02
2.050000e-06	5.835948e-06	4.674382e-09	4.115702e+01	3.063111e+02
2.060000e-06	5.728364e-06	4.643243e-09	4.039830e+01	3.039012e+02
2.070000e-06	5.618793e-06	4.603090e-09	3.962557e+01	3.014029e+02
2.080000e-06	5.507112e-06	4.565490e-09	3.883795e+01	2.988154e+02
2.090000e-06	5.393374e-06	4.529088e-09	3.803584e+01	2.961388e+02
2.100000e-06	5.277575e-06	4.491674e-09	3.721918e+01	2.933739e+02
2.110000e-06	5.159680e-06	4.444023e-09	3.638775e+01	2.905216e+02
2.120000e-06	5.039803e-06	4.393905e-09	3.554234e+01	2.875825e+02
2.130000e-06	4.918169e-06	4.347418e-09	3.468454e+01	2.845564e+02
2.140000e-06	4.794806e-06	4.299228e-09	3.381454e+01	2.814416e+02
2.150000e-06	4.669611e-06	4.253007e-09	3.293163e+01	2.782353e+02
2.160000e-06	4.542678e-06	4.208574e-09	3.203645e+01	2.749329e+02
2.170000e-06	4.414132e-06	4.165513e-09	3.112990e+01	2.715286e+02
2.180000e-06	4.284037e-06	4.112705e-09	3.021243e+01	2.680159e+02
2.190000e-06	4.152425e-06	4.056117e-09	2.928426e+01	2.643877e+02
2.200000e-06	4.019205e-06	3.995361e-09	2.834475e+01	2.606378e+02
2.210000e-06	3.884452e-06	3.932377e-09	2.739443e+01	2.567606e+02
2.220000e-06	3.748215e-06	3.867601e-09	2.643364e+01	2.527523e+02
2.230000e-06	3.610568e-06	3.804046e-09	2.546291e+01	2.486108e+02
2.240000e-06	3.471594e-06	3.741666e-09	2.448281e+01	2.443361e+02
2.250000e-06	3.331206e-06	3.677543e-09	2.349276e+01	2.399292e+02
2.260000e-06	3.189432e-06	3.613105e-09	2.249292e+01	2.353922e+02
2.270000e-06	3.046406e-06	3.546633e-09	2.148425e+01	2.307267e+02
2.280000e-06	2.902226e-06	3.474845e-09	2.046745e+01	2.259333e+02
2.290000e-06	2.756954e-06	3.399437e-09	1.944294e+01	2.210108e+02
2.300000e-06	2.610820e-06	3.325523e-09	1.841236e+01	2.159546e+02
2.310000e-06	2.463922e-06	3.250143e-09	1.737638e+01	2.107574e+02
2.320000e-06	2.316183e-06	3.168336e-09	1.633448e+01	2.054083e+02
2.330000e-06	2.167558e-06	3.079178e-09	1.528633e+01	1.998939e+02
2.340000e-06	2.018077e-06	2.986360e-09	1.423214e+01	1.941990e+02
2.350000e-06	1.867895e-06	2.893047e-09	1.317301e+01	1.883077e+02
2.360000e-06	1.717182e-06	2.800383e-09	1.211013e+01	1.822050e+02
2.370000e-06	1.565976e-06	2.706978e-09	1.104378e+01	1.758780e+02
2.380000e-06	1.414283e-06	2.610939e-09	9.973988e+00	1.693166e+02
2.390000e-06	1.262123e-06	2.508224e-09	8.900907e+00	1.625143e+02
2.400000e-06	1.109510e-06	2.399558e-09	7.824628e+00	1.554681e+02
2.410000e-06	9.564895e-07	2.289960e-09	6.745477e+00	1.481773e+02
2.420000e-06	8.031340e-07	2.176456e-09	5.663964e+00	1.406424e+02
2.430000e-06	6.495234e-07	2.056339e-09	4.580652e+00	1.328630e+02
2.440000e-06	4.956744e-07	1.930787e-09	3.495658e+00	1.248359e+02
2.450000e-06	3.416825e-07	1.805088e-09	2.409657e+00	1.165531e+02
2.460000e-06	1.875803e-07	1.678119e-09	1.322878e+00	1.079999e+02
2.470000e-06	3.337639e-08	1.544270e-09	2.353812e-01	9.915449e+01
2.480000e-06	-1.208548e-07	1.404241e-09	-8.523077e-01	8.998818e+01
2.490000e-06	-2.750572e-07	1.258604e-09	-1.939794e+00	8.046663e+01
2.500000e-06	-4.291691e-07	1.106931e-09	-3.026641e+00	7.055253e+01
2.510000e-06	-5.831744e-07	9.498007e-10	-4.112737e+00	6.020915e+01
2.520000e-06	-7.370984e-07	7.860475e-10	-5.198260e+00	4.940469e+01
2.530000e-06	-8.908256e-07	6.113295e-10	-6.282394e+00	3.811686e+01
2.540000e-06	-1.044193e-06	4.277759e-10	-7.363987e+00	2.633742e+01
2.550000e-06	-1.197142e-06	2.393855e-10	-8.442635e+00	1.407586e+01
2.560000e-06	-1.349613e-06	4.794040e-11	-9.517912e+00	1.362149e+00
2.570000e-06	-1.501586e-06	-1.489455e-10	-1.058968e+01	-1.175217e+01
2.580000e-06	-1.652984e-06	-3.549593e-10	-1.165738e+01	-2.519453e+01
2.590000e-06	-1.803773e-06	-5.679755e-10	-1.272080e+01	-3.887371e+01
2.600000e-06	-1.953977e-06	-7.848380e-10	-1.378009e+01	-5.268378e+01
2.610000e-06	-2.103470e-06	-1.002322e-09	-1.483436e+01	-6.650935e+01
2.620000e-06	-2.252112e-06	-1.217419e-09	-1.588263e+01	-8.023169e+01
2.630000e-06	-2.399732e-06	-1.428182e-09	-1.692369e+01	-9.373509e+01
2.640000e-06	-2.546400e-06	-1.633858e-09	-1.795804e+01	-1.069129e+02
2.650000e-06	-2.692284e-06	-1.830680e-09	-1.898687e+01	-1.196730e+02
2.660000e-06	-2.837210e-06	-2.014715e-09	-2.000894e+01	-1.319413e+02
2.670000e-06	-2.981042e-06	-2.186068e-09	-2.102329e+01	-1.436644e+02
2.680000e-06	-3.123720e-06	-2.349845e-09	-2.202950e+01	-1.548102e+02
2.690000e-06	-3.265162e-06	-2.510407e-09	-2.302699e+01	-1.653669e+02
2.700000e-06	-3.405280e-06	-2.665574e-09	-2.401515e+01	-1.753404e+02
2.710000e-06	-3.544025e-06	-2.814161e-09	-2.499362e+01	-1.847510e+02
2.720000e-06	-3.681426e-06	-2.954435e-09	-2.596262e+01	-1.936291e+02
2.730000e-06	-3.817472e-06	-3.086060e-09	-2.692206e+01	-2.020111e+02
2.740000e-06	-3.952179e-06	-3.208699e-09	-2.787206e+01	-2.099358e+02
2.750000e-06	-4.085497e-06	-3.322594e-09	-2.881227e+01	-2.174407e+02
2.760000e-06	-4.217304e-06	-3.429190e-09	-2.974181e+01	-2.245600e+02
2.770000e-06	-4.347658e-06	-3.528348e-09	-3.066111e+01	-2.313232e+02
2.780000e-06	-4.476602e-06	-3.624362e-09	-3.157046e+01	-2.377552e+02
2.790000e-06	-4.604011e-06	-3.718681e-09	-3.246899e+01	-2.438763e+02
2.800000e-06	-4.729814e-06	-3.810117e-09	-3.335620e+01	-2.497038e+02
2.810000e-06	-4.853890e-06	-3.895793e-09	-3.423122e+01	-2.552528e+02
2.820000e-06	-4.976252e-06	-3.976456e-09	-3.509416e+01	-2.605380e+02
2.830000e-06	-5.096932e-06	-4.052091e-09	-3.594523e+01	-2.655743e+02
2.840000e-06	-5.215735e-06	-4.123843e-09	-3.678307e+01	-2.703775e+02
2.850000e-06	-5.332389e-06	-4.193517e-09	-3.760575e+01	-2.749642e+02
2.860000e-06	-5.446748e-06	-4.260990e-09	-3.841225e+01	-2.793513e+02
2.870000e-06	-5.558817e-06	-4.327633e-09	-3.920260e+01	-2.835550e+02
2.880000e-06	-5.668725e-06	-4.392125e-09	-3.997771e+01	-2.875898e+02
2.890000e-06	-5.776732e-06	-4.454664e-09	-4.073940e+01	-2.914673e+02
2.900000e-06	-5.882811e-06	-4.514497e-09	-4.148751e+01	-2.951957e+02
2.910000e-06	-5.986781e-06	-4.571885e-09	-4.222074e+01	-2.987790e+02
2.920000e-06	-6.088530e-06	-4.625182e-09	-4.293830e+01	-3.022172e+02
2.930000e-06	-6.188021e-06	-4.673803e-09	-4.363995e+01	-3.055073e+02
2.940000e-06	-6.285317e-06	-4.720522e-09	-4.432611e+01	-3.086441e+02
