# Temperatura_=_44.76
# Concentracion g/m^3_=_5000.0
# C_Vs_to_Am_M_A/Vsm_=_65563218390.804596
# pendiente_HvsI_1/m_=_3716.3
# ordenada_HvsI_A/m_=_1297.0
# frecuencia_Hz_=_302509.0012166396

Tiempo_(s)	Campo_(V.s)	Magnetizacion_(V.s)	Campo_(kA/m)	Magnetizacion_(A/m)
0.000000e+00	-8.019205e-06	-5.684706e-09	-5.686226e+01	-3.714578e+02
1.000000e-08	-8.014953e-06	-5.683076e-09	-5.683211e+01	-3.712342e+02
2.000000e-08	-8.008103e-06	-5.681272e-09	-5.678354e+01	-3.709315e+02
3.000000e-08	-7.998506e-06	-5.676267e-09	-5.671549e+01	-3.705588e+02
4.000000e-08	-7.986011e-06	-5.672177e-09	-5.662689e+01	-3.701271e+02
5.000000e-08	-7.970571e-06	-5.665249e-09	-5.651741e+01	-3.696489e+02
6.000000e-08	-7.952521e-06	-5.659052e-09	-5.638942e+01	-3.691365e+02
7.000000e-08	-7.932182e-06	-5.661366e-09	-5.624520e+01	-3.686006e+02
8.000000e-08	-7.909180e-06	-5.646753e-09	-5.608210e+01	-3.680493e+02
9.000000e-08	-7.883004e-06	-5.645923e-09	-5.589649e+01	-3.674875e+02
1.000000e-07	-7.853660e-06	-5.663550e-09	-5.568842e+01	-3.669158e+02
1.100000e-07	-7.821424e-06	-5.638436e-09	-5.545984e+01	-3.663312e+02
1.200000e-07	-7.786417e-06	-5.607599e-09	-5.521162e+01	-3.657270e+02
1.300000e-07	-7.748946e-06	-5.590560e-09	-5.494592e+01	-3.650935e+02
1.400000e-07	-7.709307e-06	-5.572798e-09	-5.466485e+01	-3.644194e+02
1.500000e-07	-7.667374e-06	-5.517655e-09	-5.436751e+01	-3.636921e+02
1.600000e-07	-7.622807e-06	-5.506466e-09	-5.405149e+01	-3.628991e+02
1.700000e-07	-7.575523e-06	-5.553998e-09	-5.371622e+01	-3.620292e+02
1.800000e-07	-7.525343e-06	-5.469790e-09	-5.336040e+01	-3.610725e+02
1.900000e-07	-7.472128e-06	-5.496429e-09	-5.298307e+01	-3.600218e+02
2.000000e-07	-7.416089e-06	-5.493351e-09	-5.258571e+01	-3.588721e+02
2.100000e-07	-7.357337e-06	-5.421544e-09	-5.216911e+01	-3.576214e+02
2.200000e-07	-7.295988e-06	-5.437118e-09	-5.173410e+01	-3.562697e+02
2.300000e-07	-7.231965e-06	-5.375948e-09	-5.128013e+01	-3.548196e+02
2.400000e-07	-7.165147e-06	-5.372097e-09	-5.080634e+01	-3.532752e+02
2.500000e-07	-7.095649e-06	-5.351433e-09	-5.031355e+01	-3.516417e+02
2.600000e-07	-7.023386e-06	-5.324275e-09	-4.980114e+01	-3.499251e+02
2.700000e-07	-6.948232e-06	-5.285927e-09	-4.926824e+01	-3.481315e+02
2.800000e-07	-6.870250e-06	-5.266016e-09	-4.871530e+01	-3.462665e+02
2.900000e-07	-6.789605e-06	-5.251428e-09	-4.814346e+01	-3.443348e+02
3.000000e-07	-6.706544e-06	-5.192777e-09	-4.755449e+01	-3.423398e+02
3.100000e-07	-6.621254e-06	-5.188568e-09	-4.694972e+01	-3.402834e+02
3.200000e-07	-6.533603e-06	-5.155279e-09	-4.632821e+01	-3.381657e+02
3.300000e-07	-6.443522e-06	-5.109342e-09	-4.568947e+01	-3.359852e+02
3.400000e-07	-6.351149e-06	-5.080446e-09	-4.503447e+01	-3.337387e+02
3.500000e-07	-6.256523e-06	-5.048962e-09	-4.436350e+01	-3.314216e+02
3.600000e-07	-6.159594e-06	-5.010602e-09	-4.367620e+01	-3.290285e+02
3.700000e-07	-6.060393e-06	-4.959797e-09	-4.297279e+01	-3.265536e+02
3.800000e-07	-5.959026e-06	-4.923381e-09	-4.225403e+01	-3.239913e+02
3.900000e-07	-5.855491e-06	-4.888734e-09	-4.151988e+01	-3.213367e+02
4.000000e-07	-5.749852e-06	-4.852388e-09	-4.077082e+01	-3.185862e+02
4.100000e-07	-5.642233e-06	-4.798444e-09	-4.000772e+01	-3.157375e+02
4.200000e-07	-5.532705e-06	-4.754980e-09	-3.923109e+01	-3.127901e+02
4.300000e-07	-5.421133e-06	-4.716082e-09	-3.843995e+01	-3.097450e+02
4.400000e-07	-5.307395e-06	-4.662639e-09	-3.763346e+01	-3.066043e+02
4.500000e-07	-5.191554e-06	-4.607888e-09	-3.681207e+01	-3.033709e+02
4.600000e-07	-5.073814e-06	-4.564847e-09	-3.597720e+01	-3.000477e+02
4.700000e-07	-4.954206e-06	-4.514221e-09	-3.512909e+01	-2.966367e+02
4.800000e-07	-4.832783e-06	-4.450982e-09	-3.426810e+01	-2.931389e+02
4.900000e-07	-4.709641e-06	-4.395309e-09	-3.339493e+01	-2.895535e+02
5.000000e-07	-4.584775e-06	-4.343163e-09	-3.250954e+01	-2.858777e+02
5.100000e-07	-4.458271e-06	-4.286686e-09	-3.161253e+01	-2.821066e+02
5.200000e-07	-4.330095e-06	-4.220196e-09	-3.070367e+01	-2.782339e+02
5.300000e-07	-4.200361e-06	-4.157250e-09	-2.978375e+01	-2.742525e+02
5.400000e-07	-4.069096e-06	-4.094261e-09	-2.885298e+01	-2.701547e+02
5.500000e-07	-3.936283e-06	-4.032307e-09	-2.791124e+01	-2.659338e+02
5.600000e-07	-3.802027e-06	-3.967226e-09	-2.695926e+01	-2.615841e+02
5.700000e-07	-3.666301e-06	-3.900777e-09	-2.599686e+01	-2.571019e+02
5.800000e-07	-3.529150e-06	-3.829210e-09	-2.502435e+01	-2.524854e+02
5.900000e-07	-3.390657e-06	-3.754244e-09	-2.404233e+01	-2.477348e+02
6.000000e-07	-3.250684e-06	-3.677745e-09	-2.304982e+01	-2.428514e+02
6.100000e-07	-3.109172e-06	-3.598548e-09	-2.204640e+01	-2.378372e+02
6.200000e-07	-2.966384e-06	-3.520775e-09	-2.103392e+01	-2.326934e+02
6.300000e-07	-2.822502e-06	-3.440816e-09	-2.001369e+01	-2.274198e+02
6.400000e-07	-2.677586e-06	-3.359595e-09	-1.898612e+01	-2.220135e+02
6.500000e-07	-2.531740e-06	-3.273023e-09	-1.795196e+01	-2.164686e+02
6.600000e-07	-2.385070e-06	-3.185643e-09	-1.691196e+01	-2.107757e+02
6.700000e-07	-2.237664e-06	-3.095628e-09	-1.586674e+01	-2.049226e+02
6.800000e-07	-2.089531e-06	-3.003569e-09	-1.481636e+01	-1.988945e+02
6.900000e-07	-1.940741e-06	-2.909611e-09	-1.376133e+01	-1.926761e+02
7.000000e-07	-1.791428e-06	-2.812396e-09	-1.270258e+01	-1.862519e+02
7.100000e-07	-1.641582e-06	-2.710349e-09	-1.164006e+01	-1.796086e+02
7.200000e-07	-1.491155e-06	-2.603937e-09	-1.057342e+01	-1.727356e+02
7.300000e-07	-1.340083e-06	-2.495207e-09	-9.502205e+00	-1.656259e+02
7.400000e-07	-1.188434e-06	-2.381417e-09	-8.426902e+00	-1.582762e+02
7.500000e-07	-1.036369e-06	-2.267878e-09	-7.348641e+00	-1.506860e+02
7.600000e-07	-8.839312e-07	-2.152333e-09	-6.267744e+00	-1.428564e+02
7.700000e-07	-7.312253e-07	-2.033122e-09	-5.184943e+00	-1.347883e+02
7.800000e-07	-5.782756e-07	-1.905976e-09	-4.100414e+00	-1.264796e+02
7.900000e-07	-4.251272e-07	-1.773767e-09	-3.014475e+00	-1.179234e+02
8.000000e-07	-2.718415e-07	-1.638588e-09	-1.927563e+00	-1.091061e+02
8.100000e-07	-1.184527e-07	-1.497662e-09	-8.399198e-01	-1.000060e+02
8.200000e-07	3.499105e-08	-1.351257e-09	2.481132e-01	-9.059348e+01
8.300000e-07	1.884731e-07	-1.196965e-09	1.336417e+00	-8.083228e+01
8.400000e-07	3.418572e-07	-1.039574e-09	2.424027e+00	-7.068173e+01
8.500000e-07	4.951082e-07	-8.779075e-10	3.510694e+00	-6.010060e+01
8.600000e-07	6.482704e-07	-7.115813e-10	4.596730e+00	-4.905163e+01
8.700000e-07	8.012713e-07	-5.391478e-10	5.681622e+00	-3.750652e+01
8.800000e-07	9.540580e-07	-3.570170e-10	6.764996e+00	-2.545098e+01
8.900000e-07	1.106610e-06	-1.656184e-10	7.846705e+00	-1.288906e+01
9.000000e-07	1.258875e-06	3.064525e-11	8.926382e+00	1.535971e-01
9.100000e-07	1.410662e-06	2.303366e-10	1.000266e+01	1.362816e+01
9.200000e-07	1.561800e-06	4.373753e-10	1.107435e+01	2.746279e+01
9.300000e-07	1.712290e-06	6.514162e-10	1.214144e+01	4.156485e+01
9.400000e-07	1.862099e-06	8.706720e-10	1.320370e+01	5.582494e+01
9.500000e-07	2.011201e-06	1.089046e-09	1.426094e+01	7.012245e+01
9.600000e-07	2.159615e-06	1.304366e-09	1.531331e+01	8.433209e+01
9.700000e-07	2.307304e-06	1.516756e-09	1.636054e+01	9.833096e+01
9.800000e-07	2.454149e-06	1.725988e-09	1.740178e+01	1.120053e+02
9.900000e-07	2.600100e-06	1.928710e-09	1.843668e+01	1.252562e+02
1.000000e-06	2.745106e-06	2.119164e-09	1.946489e+01	1.380045e+02
1.010000e-06	2.889036e-06	2.299699e-09	2.048546e+01	1.501932e+02
1.020000e-06	3.031816e-06	2.471503e-09	2.149788e+01	1.617883e+02
1.030000e-06	3.173434e-06	2.636685e-09	2.250206e+01	1.727782e+02
1.040000e-06	3.313826e-06	2.793084e-09	2.349754e+01	1.831702e+02
1.050000e-06	3.452854e-06	2.943181e-09	2.448336e+01	1.929874e+02
1.060000e-06	3.590516e-06	3.085782e-09	2.545949e+01	2.022635e+02
1.070000e-06	3.726816e-06	3.223173e-09	2.642596e+01	2.110382e+02
1.080000e-06	3.861704e-06	3.353416e-09	2.738241e+01	2.193528e+02
1.090000e-06	3.995185e-06	3.474514e-09	2.832890e+01	2.272463e+02
1.100000e-06	4.127236e-06	3.588824e-09	2.926524e+01	2.347534e+02
1.110000e-06	4.257848e-06	3.696600e-09	3.019138e+01	2.419025e+02
1.120000e-06	4.386943e-06	3.801080e-09	3.110676e+01	2.487161e+02
1.130000e-06	4.514491e-06	3.899356e-09	3.201117e+01	2.552117e+02
1.140000e-06	4.640505e-06	3.991393e-09	3.290471e+01	2.614029e+02
1.150000e-06	4.764950e-06	4.078429e-09	3.378712e+01	2.673018e+02
1.160000e-06	4.887770e-06	4.162912e-09	3.465801e+01	2.729208e+02
1.170000e-06	5.008856e-06	4.243747e-09	3.551660e+01	2.782735e+02
1.180000e-06	5.128076e-06	4.321048e-09	3.636196e+01	2.833763e+02
1.190000e-06	5.245378e-06	4.394825e-09	3.719372e+01	2.882478e+02
1.200000e-06	5.360733e-06	4.466222e-09	3.801168e+01	2.929085e+02
1.210000e-06	5.473994e-06	4.535564e-09	3.881478e+01	2.973794e+02
1.220000e-06	5.585128e-06	4.602169e-09	3.960280e+01	3.016805e+02
1.230000e-06	5.694242e-06	4.665778e-09	4.037650e+01	3.058290e+02
1.240000e-06	5.801431e-06	4.727264e-09	4.113656e+01	3.098383e+02
1.250000e-06	5.906554e-06	4.786511e-09	4.188196e+01	3.137162e+02
1.260000e-06	6.009439e-06	4.842390e-09	4.261149e+01	3.174654e+02
1.270000e-06	6.110081e-06	4.894276e-09	4.332512e+01	3.210835e+02
1.280000e-06	6.208425e-06	4.944329e-09	4.402245e+01	3.245642e+02
1.290000e-06	6.304458e-06	4.992651e-09	4.470340e+01	3.278988e+02
1.300000e-06	6.398208e-06	5.038920e-09	4.536816e+01	3.310779e+02
1.310000e-06	6.489730e-06	5.082708e-09	4.601712e+01	3.340937e+02
1.320000e-06	6.578941e-06	5.124893e-09	4.664969e+01	3.369414e+02
1.330000e-06	6.665723e-06	5.166083e-09	4.726504e+01	3.396202e+02
1.340000e-06	6.750205e-06	5.204344e-09	4.786408e+01	3.421341e+02
1.350000e-06	6.832437e-06	5.237649e-09	4.844717e+01	3.444915e+02
1.360000e-06	6.912170e-06	5.268806e-09	4.901254e+01	3.467045e+02
1.370000e-06	6.989313e-06	5.299911e-09	4.955954e+01	3.487875e+02
1.380000e-06	7.063800e-06	5.329442e-09	5.008771e+01	3.507555e+02
1.390000e-06	7.135594e-06	5.359028e-09	5.059679e+01	3.526225e+02
1.400000e-06	7.204872e-06	5.387693e-09	5.108802e+01	3.544000e+02
1.410000e-06	7.271625e-06	5.415952e-09	5.156135e+01	3.560958e+02
1.420000e-06	7.335754e-06	5.442085e-09	5.201607e+01	3.577134e+02
1.430000e-06	7.397373e-06	5.466522e-09	5.245300e+01	3.592525e+02
1.440000e-06	7.456565e-06	5.488907e-09	5.287271e+01	3.607094e+02
1.450000e-06	7.513047e-06	5.506177e-09	5.327322e+01	3.620781e+02
1.460000e-06	7.566687e-06	5.520877e-09	5.365356e+01	3.633519e+02
1.470000e-06	7.617383e-06	5.536358e-09	5.401304e+01	3.645252e+02
1.480000e-06	7.665048e-06	5.553825e-09	5.435102e+01	3.655942e+02
1.490000e-06	7.709906e-06	5.570488e-09	5.466909e+01	3.665584e+02
1.500000e-06	7.752059e-06	5.585216e-09	5.496799e+01	3.674207e+02
1.510000e-06	7.791394e-06	5.598106e-09	5.524691e+01	3.681876e+02
1.520000e-06	7.827941e-06	5.609878e-09	5.550605e+01	3.688681e+02
1.530000e-06	7.861778e-06	5.621071e-09	5.574599e+01	3.694732e+02
1.540000e-06	7.892807e-06	5.631384e-09	5.596600e+01	3.700140e+02
1.550000e-06	7.921051e-06	5.639809e-09	5.616627e+01	3.705004e+02
1.560000e-06	7.946427e-06	5.645290e-09	5.634621e+01	3.709402e+02
1.570000e-06	7.968881e-06	5.649349e-09	5.650543e+01	3.713375e+02
1.580000e-06	7.988610e-06	5.654591e-09	5.664532e+01	3.716929e+02
1.590000e-06	8.005526e-06	5.661040e-09	5.676527e+01	3.720033e+02
1.600000e-06	8.019399e-06	5.666803e-09	5.686363e+01	3.722623e+02
1.610000e-06	8.030114e-06	5.672052e-09	5.693962e+01	3.724618e+02
1.620000e-06	8.037764e-06	5.675729e-09	5.699386e+01	3.725928e+02
1.630000e-06	8.042580e-06	5.677357e-09	5.702800e+01	3.726470e+02
1.640000e-06	8.044483e-06	5.676846e-09	5.704150e+01	3.726183e+02
1.650000e-06	8.043520e-06	5.672378e-09	5.703467e+01	3.725035e+02
1.660000e-06	8.039981e-06	5.669615e-09	5.700958e+01	3.723032e+02
1.670000e-06	8.033791e-06	5.663106e-09	5.696569e+01	3.720220e+02
1.680000e-06	8.024881e-06	5.659019e-09	5.690251e+01	3.716678e+02
1.690000e-06	8.013269e-06	5.656565e-09	5.682017e+01	3.712513e+02
1.700000e-06	7.998870e-06	5.652589e-09	5.671807e+01	3.707847e+02
1.710000e-06	7.981823e-06	5.643829e-09	5.659719e+01	3.702804e+02
1.720000e-06	7.962452e-06	5.617561e-09	5.645984e+01	3.697499e+02
1.730000e-06	7.940553e-06	5.626143e-09	5.630455e+01	3.692020e+02
1.740000e-06	7.915454e-06	5.586756e-09	5.612658e+01	3.686425e+02
1.750000e-06	7.886732e-06	5.555772e-09	5.592293e+01	3.680734e+02
1.760000e-06	7.854643e-06	5.566818e-09	5.569539e+01	3.674926e+02
1.770000e-06	7.819975e-06	5.564669e-09	5.544957e+01	3.668944e+02
1.780000e-06	7.783037e-06	5.541305e-09	5.518765e+01	3.662700e+02
1.790000e-06	7.743868e-06	5.581495e-09	5.490991e+01	3.656084e+02
1.800000e-06	7.702523e-06	5.611574e-09	5.461674e+01	3.648971e+02
1.810000e-06	7.658710e-06	5.499804e-09	5.430608e+01	3.641237e+02
1.820000e-06	7.612253e-06	5.557124e-09	5.397666e+01	3.632764e+02
1.830000e-06	7.563075e-06	5.499837e-09	5.362795e+01	3.623450e+02
1.840000e-06	7.510897e-06	5.484786e-09	5.325797e+01	3.613213e+02
1.850000e-06	7.455714e-06	5.537568e-09	5.286668e+01	3.601999e+02
1.860000e-06	7.397775e-06	5.434180e-09	5.245585e+01	3.589777e+02
1.870000e-06	7.337189e-06	5.497076e-09	5.202625e+01	3.576543e+02
1.880000e-06	7.273878e-06	5.438238e-09	5.157732e+01	3.562316e+02
1.890000e-06	7.207780e-06	5.397895e-09	5.110864e+01	3.547132e+02
1.900000e-06	7.138911e-06	5.395491e-09	5.062031e+01	3.531041e+02
1.910000e-06	7.067192e-06	5.350028e-09	5.011176e+01	3.514102e+02
1.920000e-06	6.992776e-06	5.359687e-09	4.958410e+01	3.496376e+02
1.930000e-06	6.915662e-06	5.288425e-09	4.903730e+01	3.477921e+02
1.940000e-06	6.835798e-06	5.308254e-09	4.847101e+01	3.458786e+02
1.950000e-06	6.753445e-06	5.246115e-09	4.788706e+01	3.439010e+02
1.960000e-06	6.668595e-06	5.199435e-09	4.728541e+01	3.418617e+02
1.970000e-06	6.581239e-06	5.200288e-09	4.666599e+01	3.397612e+02
1.980000e-06	6.491502e-06	5.140184e-09	4.602968e+01	3.375985e+02
1.990000e-06	6.399464e-06	5.128993e-09	4.537707e+01	3.353708e+02
2.000000e-06	6.305158e-06	5.062747e-09	4.470836e+01	3.330740e+02
2.010000e-06	6.208567e-06	5.053342e-09	4.402346e+01	3.307028e+02
2.020000e-06	6.109756e-06	5.012061e-09	4.332281e+01	3.282514e+02
2.030000e-06	6.008750e-06	4.971331e-09	4.260661e+01	3.257142e+02
2.040000e-06	5.905574e-06	4.925535e-09	4.187501e+01	3.230861e+02
2.050000e-06	5.800312e-06	4.885793e-09	4.112862e+01	3.203628e+02
2.060000e-06	5.693193e-06	4.853199e-09	4.036906e+01	3.175419e+02
2.070000e-06	5.584177e-06	4.790334e-09	3.959606e+01	3.146223e+02
2.080000e-06	5.473077e-06	4.759107e-09	3.880827e+01	3.116045e+02
2.090000e-06	5.359926e-06	4.707824e-09	3.800595e+01	3.084904e+02
2.100000e-06	5.244754e-06	4.665348e-09	3.718929e+01	3.052828e+02
2.110000e-06	5.127567e-06	4.610888e-09	3.635835e+01	3.019846e+02
2.120000e-06	5.008371e-06	4.570184e-09	3.551316e+01	2.985981e+02
2.130000e-06	4.887262e-06	4.511260e-09	3.465440e+01	2.951247e+02
2.140000e-06	4.764433e-06	4.452704e-09	3.378345e+01	2.915642e+02
2.150000e-06	4.639886e-06	4.395861e-09	3.290032e+01	2.879141e+02
2.160000e-06	4.513626e-06	4.344562e-09	3.200504e+01	2.841704e+02
2.170000e-06	4.385680e-06	4.292900e-09	3.109781e+01	2.803271e+02
2.180000e-06	4.256121e-06	4.231108e-09	3.017914e+01	2.763771e+02
2.190000e-06	4.125086e-06	4.171190e-09	2.924999e+01	2.723129e+02
2.200000e-06	3.992447e-06	4.100544e-09	2.830948e+01	2.681274e+02
2.210000e-06	3.858314e-06	4.033780e-09	2.735838e+01	2.638146e+02
2.220000e-06	3.722764e-06	3.966568e-09	2.639722e+01	2.593701e+02
2.230000e-06	3.585744e-06	3.904313e-09	2.542565e+01	2.547916e+02
2.240000e-06	3.447375e-06	3.832748e-09	2.444451e+01	2.500788e+02
2.250000e-06	3.307665e-06	3.759497e-09	2.345386e+01	2.452327e+02
2.260000e-06	3.166650e-06	3.682258e-09	2.245396e+01	2.402553e+02
2.270000e-06	3.024453e-06	3.604206e-09	2.144567e+01	2.351481e+02
2.280000e-06	2.881074e-06	3.524778e-09	2.042901e+01	2.299113e+02
2.290000e-06	2.736539e-06	3.445534e-09	1.940414e+01	2.245430e+02
2.300000e-06	2.591083e-06	3.362423e-09	1.837275e+01	2.190381e+02
2.310000e-06	2.444901e-06	3.276572e-09	1.733621e+01	2.133882e+02
2.320000e-06	2.297943e-06	3.190611e-09	1.629416e+01	2.075819e+02
2.330000e-06	2.150072e-06	3.099043e-09	1.524565e+01	2.016049e+02
2.340000e-06	2.001317e-06	3.000708e-09	1.419086e+01	1.954421e+02
2.350000e-06	1.851903e-06	2.898490e-09	1.313140e+01	1.890778e+02
2.360000e-06	1.701979e-06	2.798352e-09	1.206832e+01	1.824979e+02
2.370000e-06	1.551569e-06	2.697138e-09	1.100181e+01	1.756910e+02
2.380000e-06	1.400699e-06	2.592999e-09	9.932020e+00	1.686490e+02
2.390000e-06	1.249382e-06	2.483475e-09	8.859071e+00	1.613676e+02
2.400000e-06	1.097631e-06	2.367843e-09	7.783036e+00	1.538456e+02
2.410000e-06	9.454474e-07	2.247231e-09	6.703941e+00	1.460839e+02
2.420000e-06	7.929227e-07	2.125070e-09	5.622425e+00	1.380836e+02
2.430000e-06	6.401129e-07	2.002941e-09	4.538887e+00	1.298436e+02
2.440000e-06	4.870663e-07	1.874995e-09	3.453671e+00	1.213588e+02
2.450000e-06	3.338725e-07	1.740064e-09	2.367410e+00	1.126175e+02
2.460000e-06	1.805173e-07	1.602113e-09	1.280005e+00	1.036005e+02
2.470000e-06	2.699327e-08	1.459556e-09	1.914028e-01	9.428029e+01
2.480000e-06	-1.265522e-07	1.310824e-09	-8.973513e-01	8.462233e+01
2.490000e-06	-2.799867e-07	1.157388e-09	-1.985318e+00	7.458687e+01
2.500000e-06	-4.333518e-07	9.994929e-10	-3.072794e+00	6.413243e+01
2.510000e-06	-5.866039e-07	8.347197e-10	-4.159467e+00	5.322009e+01
2.520000e-06	-7.396681e-07	6.609065e-10	-5.244809e+00	4.181848e+01
2.530000e-06	-8.925018e-07	4.772680e-10	-6.328516e+00	2.990883e+01
2.540000e-06	-1.044998e-06	2.862920e-10	-7.409830e+00	1.748956e+01
2.550000e-06	-1.197095e-06	8.802997e-11	-8.488310e+00	4.579892e+00
2.560000e-06	-1.348735e-06	-1.179985e-10	-9.563557e+00	-8.778027e+00
2.570000e-06	-1.499872e-06	-3.270830e-10	-1.063523e+01	-2.251879e+01
2.580000e-06	-1.650474e-06	-5.404840e-10	-1.170312e+01	-3.655538e+01
2.590000e-06	-1.800493e-06	-7.594549e-10	-1.276686e+01	-5.078266e+01
2.600000e-06	-1.949855e-06	-9.808433e-10	-1.382596e+01	-6.508260e+01
2.610000e-06	-2.098434e-06	-1.202325e-09	-1.487949e+01	-7.933053e+01
2.620000e-06	-2.246152e-06	-1.422277e-09	-1.592693e+01	-9.340216e+01
2.630000e-06	-2.392994e-06	-1.638970e-09	-1.696815e+01	-1.071804e+02
2.640000e-06	-2.539001e-06	-1.848873e-09	-1.800345e+01	-1.205617e+02
2.650000e-06	-2.684169e-06	-2.047836e-09	-1.903280e+01	-1.334609e+02
2.660000e-06	-2.828264e-06	-2.233793e-09	-2.005454e+01	-1.458143e+02
2.670000e-06	-2.971201e-06	-2.408556e-09	-2.106808e+01	-1.575816e+02
2.680000e-06	-3.113012e-06	-2.574427e-09	-2.207362e+01	-1.687448e+02
2.690000e-06	-3.253585e-06	-2.733701e-09	-2.307039e+01	-1.793063e+02
2.700000e-06	-3.392820e-06	-2.887033e-09	-2.405768e+01	-1.892851e+02
2.710000e-06	-3.530722e-06	-3.034169e-09	-2.503551e+01	-1.987123e+02
2.720000e-06	-3.667353e-06	-3.172721e-09	-2.600432e+01	-2.076265e+02
2.730000e-06	-3.802663e-06	-3.303583e-09	-2.696377e+01	-2.160688e+02
2.740000e-06	-3.936637e-06	-3.428336e-09	-2.791375e+01	-2.240793e+02
2.750000e-06	-4.069197e-06	-3.546873e-09	-2.885370e+01	-2.316940e+02
2.760000e-06	-4.200259e-06	-3.658910e-09	-2.978303e+01	-2.389432e+02
2.770000e-06	-4.329922e-06	-3.763467e-09	-3.070244e+01	-2.458511e+02
2.780000e-06	-4.458106e-06	-3.862907e-09	-3.161136e+01	-2.524364e+02
2.790000e-06	-4.584697e-06	-3.958729e-09	-3.250899e+01	-2.587137e+02
2.800000e-06	-4.709705e-06	-4.050135e-09	-3.339539e+01	-2.646954e+02
2.810000e-06	-4.833090e-06	-4.136315e-09	-3.427028e+01	-2.703934e+02
2.820000e-06	-4.954829e-06	-4.219444e-09	-3.513351e+01	-2.758211e+02
2.830000e-06	-5.074760e-06	-4.298732e-09	-3.598391e+01	-2.809939e+02
2.840000e-06	-5.192638e-06	-4.373548e-09	-3.681975e+01	-2.859299e+02
2.850000e-06	-5.308352e-06	-4.444812e-09	-3.764025e+01	-2.906490e+02
2.860000e-06	-5.421937e-06	-4.514039e-09	-3.844565e+01	-2.951725e+02
2.870000e-06	-5.533322e-06	-4.583274e-09	-3.923546e+01	-2.995206e+02
2.880000e-06	-5.642616e-06	-4.648385e-09	-4.001044e+01	-3.037116e+02
2.890000e-06	-5.750051e-06	-4.710699e-09	-4.077223e+01	-3.077600e+02
2.900000e-06	-5.855545e-06	-4.772257e-09	-4.152026e+01	-3.116753e+02
2.910000e-06	-5.958923e-06	-4.832589e-09	-4.225330e+01	-3.154617e+02
2.920000e-06	-6.060014e-06	-4.890514e-09	-4.297010e+01	-3.191182e+02
2.930000e-06	-6.158912e-06	-4.944050e-09	-4.367137e+01	-3.226394e+02
2.940000e-06	-6.255720e-06	-4.995528e-09	-4.435781e+01	-3.260171e+02
