# Temperatura_=_42.3
# Concentracion g/m^3_=_5000.0
# C_Vs_to_Am_M_A/Vsm_=_65563218390.804596
# pendiente_HvsI_1/m_=_3716.3
# ordenada_HvsI_A/m_=_1297.0
# frecuencia_Hz_=_302510.3418178041

Tiempo_(s)	Campo_(V.s)	Magnetizacion_(V.s)	Campo_(kA/m)	Magnetizacion_(A/m)
0.000000e+00	-7.994038e-06	-5.494269e-09	-5.686588e+01	-3.596222e+02
1.000000e-08	-7.989929e-06	-5.495246e-09	-5.683665e+01	-3.593748e+02
2.000000e-08	-7.983248e-06	-5.489008e-09	-5.678912e+01	-3.590557e+02
3.000000e-08	-7.973836e-06	-5.482224e-09	-5.672217e+01	-3.586808e+02
4.000000e-08	-7.961596e-06	-5.476020e-09	-5.663510e+01	-3.582672e+02
5.000000e-08	-7.946348e-06	-5.468973e-09	-5.652663e+01	-3.578314e+02
6.000000e-08	-7.928355e-06	-5.460979e-09	-5.639864e+01	-3.573868e+02
7.000000e-08	-7.908142e-06	-5.449687e-09	-5.625486e+01	-3.569421e+02
8.000000e-08	-7.885415e-06	-5.461859e-09	-5.609318e+01	-3.565003e+02
9.000000e-08	-7.859544e-06	-5.510588e-09	-5.590915e+01	-3.560575e+02
1.000000e-07	-7.830413e-06	-5.491809e-09	-5.570193e+01	-3.556041e+02
1.100000e-07	-7.798421e-06	-5.441782e-09	-5.547435e+01	-3.551254e+02
1.200000e-07	-7.763728e-06	-5.422396e-09	-5.522756e+01	-3.546036e+02
1.300000e-07	-7.726458e-06	-5.400577e-09	-5.496244e+01	-3.540200e+02
1.400000e-07	-7.686990e-06	-5.347490e-09	-5.468168e+01	-3.533568e+02
1.500000e-07	-7.645328e-06	-5.330940e-09	-5.438532e+01	-3.525995e+02
1.600000e-07	-7.601088e-06	-5.412786e-09	-5.407061e+01	-3.517380e+02
1.700000e-07	-7.554140e-06	-5.333753e-09	-5.373665e+01	-3.507679e+02
1.800000e-07	-7.504269e-06	-5.319813e-09	-5.338189e+01	-3.496905e+02
1.900000e-07	-7.451268e-06	-5.351742e-09	-5.300486e+01	-3.485119e+02
2.000000e-07	-7.395431e-06	-5.251229e-09	-5.260767e+01	-3.472423e+02
2.100000e-07	-7.336957e-06	-5.242346e-09	-5.219171e+01	-3.458941e+02
2.200000e-07	-7.275931e-06	-5.216321e-09	-5.175760e+01	-3.444801e+02
2.300000e-07	-7.212302e-06	-5.211201e-09	-5.130497e+01	-3.430120e+02
2.400000e-07	-7.145854e-06	-5.205925e-09	-5.083229e+01	-3.414991e+02
2.500000e-07	-7.076700e-06	-5.178589e-09	-5.034036e+01	-3.399468e+02
2.600000e-07	-7.004891e-06	-5.160601e-09	-4.982954e+01	-3.383568e+02
2.700000e-07	-6.930253e-06	-5.116931e-09	-4.929861e+01	-3.367266e+02
2.800000e-07	-6.852735e-06	-5.096407e-09	-4.874718e+01	-3.350510e+02
2.900000e-07	-6.772385e-06	-5.071095e-09	-4.817561e+01	-3.333222e+02
3.000000e-07	-6.689600e-06	-5.068291e-09	-4.758671e+01	-3.315316e+02
3.100000e-07	-6.604612e-06	-5.043601e-09	-4.698215e+01	-3.296705e+02
3.200000e-07	-6.517295e-06	-4.978533e-09	-4.636102e+01	-3.277318e+02
3.300000e-07	-6.427601e-06	-4.953202e-09	-4.572297e+01	-3.257098e+02
3.400000e-07	-6.335589e-06	-4.921618e-09	-4.506844e+01	-3.236014e+02
3.500000e-07	-6.241360e-06	-4.889335e-09	-4.439814e+01	-3.214056e+02
3.600000e-07	-6.144841e-06	-4.857536e-09	-4.371155e+01	-3.191233e+02
3.700000e-07	-6.046020e-06	-4.831737e-09	-4.300858e+01	-3.167567e+02
3.800000e-07	-5.945024e-06	-4.793968e-09	-4.229014e+01	-3.143087e+02
3.900000e-07	-5.841962e-06	-4.743907e-09	-4.155701e+01	-3.117819e+02
4.000000e-07	-5.736825e-06	-4.706021e-09	-4.080911e+01	-3.091783e+02
4.100000e-07	-5.629629e-06	-4.662030e-09	-4.004657e+01	-3.064990e+02
4.200000e-07	-5.520494e-06	-4.625762e-09	-3.927024e+01	-3.037435e+02
4.300000e-07	-5.409368e-06	-4.582544e-09	-3.847974e+01	-3.009102e+02
4.400000e-07	-5.296141e-06	-4.544125e-09	-3.767429e+01	-2.979964e+02
4.500000e-07	-5.180856e-06	-4.500116e-09	-3.685420e+01	-2.949985e+02
4.600000e-07	-5.063612e-06	-4.447241e-09	-3.602019e+01	-2.919128e+02
4.700000e-07	-4.944522e-06	-4.393559e-09	-3.517304e+01	-2.887354e+02
4.800000e-07	-4.823600e-06	-4.340227e-09	-3.431285e+01	-2.854625e+02
4.900000e-07	-4.700904e-06	-4.290342e-09	-3.344005e+01	-2.820906e+02
5.000000e-07	-4.576529e-06	-4.238098e-09	-3.255531e+01	-2.786167e+02
5.100000e-07	-4.450512e-06	-4.187514e-09	-3.165888e+01	-2.750379e+02
5.200000e-07	-4.322898e-06	-4.128205e-09	-3.075109e+01	-2.713515e+02
5.300000e-07	-4.193682e-06	-4.065049e-09	-2.983191e+01	-2.675549e+02
5.400000e-07	-4.062955e-06	-4.002044e-09	-2.890198e+01	-2.636453e+02
5.500000e-07	-3.930701e-06	-3.942727e-09	-2.796118e+01	-2.596200e+02
5.600000e-07	-3.796896e-06	-3.884380e-09	-2.700936e+01	-2.554764e+02
5.700000e-07	-3.661627e-06	-3.819922e-09	-2.604711e+01	-2.512118e+02
5.800000e-07	-3.524914e-06	-3.751629e-09	-2.507460e+01	-2.468236e+02
5.900000e-07	-3.386839e-06	-3.678317e-09	-2.409240e+01	-2.423097e+02
6.000000e-07	-3.247379e-06	-3.604497e-09	-2.310035e+01	-2.376677e+02
6.100000e-07	-3.106479e-06	-3.531489e-09	-2.209805e+01	-2.328956e+02
6.200000e-07	-2.964284e-06	-3.460036e-09	-2.108654e+01	-2.279906e+02
6.300000e-07	-2.820946e-06	-3.386023e-09	-2.006690e+01	-2.229496e+02
6.400000e-07	-2.676495e-06	-3.307313e-09	-1.903934e+01	-2.177681e+02
6.500000e-07	-2.531056e-06	-3.226004e-09	-1.800476e+01	-2.124405e+02
6.600000e-07	-2.384790e-06	-3.140450e-09	-1.696429e+01	-2.069595e+02
6.700000e-07	-2.237779e-06	-3.052868e-09	-1.591852e+01	-2.013163e+02
6.800000e-07	-2.090081e-06	-2.964909e-09	-1.486787e+01	-1.955008e+02
6.900000e-07	-1.941764e-06	-2.875695e-09	-1.381281e+01	-1.895021e+02
7.000000e-07	-1.792810e-06	-2.781419e-09	-1.275322e+01	-1.833093e+02
7.100000e-07	-1.643242e-06	-2.682159e-09	-1.168926e+01	-1.769121e+02
7.200000e-07	-1.493167e-06	-2.580550e-09	-1.062170e+01	-1.703015e+02
7.300000e-07	-1.342649e-06	-2.474801e-09	-9.550980e+00	-1.634702e+02
7.400000e-07	-1.191723e-06	-2.363228e-09	-8.477364e+00	-1.564130e+02
7.500000e-07	-1.040370e-06	-2.252483e-09	-7.400706e+00	-1.491263e+02
7.600000e-07	-8.886421e-07	-2.146245e-09	-6.321388e+00	-1.416069e+02
7.700000e-07	-7.366225e-07	-2.032245e-09	-5.239991e+00	-1.338516e+02
7.800000e-07	-5.843250e-07	-1.908539e-09	-4.156617e+00	-1.258548e+02
7.900000e-07	-4.317732e-07	-1.779579e-09	-3.071434e+00	-1.176074e+02
8.000000e-07	-2.790814e-07	-1.646128e-09	-1.985256e+00	-1.090952e+02
8.100000e-07	-1.263025e-07	-1.507360e-09	-8.984577e-01	-1.002978e+02
8.200000e-07	2.662708e-08	-1.364953e-09	1.894127e-01	-9.118858e+01
8.300000e-07	1.796076e-07	-1.219012e-09	1.277645e+00	-8.173509e+01
8.400000e-07	3.325072e-07	-1.066727e-09	2.365302e+00	-7.190127e+01
8.500000e-07	4.853446e-07	-9.091652e-10	3.452517e+00	-6.165007e+01
8.600000e-07	6.380619e-07	-7.463943e-10	4.538876e+00	-5.094733e+01
8.700000e-07	7.905221e-07	-5.792821e-10	5.623407e+00	-3.976606e+01
8.800000e-07	9.427141e-07	-4.031793e-10	6.706031e+00	-2.809105e+01
8.900000e-07	1.094633e-06	-2.196609e-10	7.786714e+00	-1.592306e+01
9.000000e-07	1.246155e-06	-3.160690e-11	8.864567e+00	-3.282252e+00
9.100000e-07	1.397228e-06	1.635879e-10	9.939230e+00	9.789714e+00
9.200000e-07	1.547834e-06	3.676371e-10	1.101057e+01	2.322915e+01
9.300000e-07	1.697914e-06	5.786025e-10	1.207817e+01	3.695165e+01
9.400000e-07	1.847382e-06	7.912647e-10	1.314142e+01	5.085524e+01
9.500000e-07	1.996149e-06	1.004244e-09	1.419968e+01	6.482510e+01
9.600000e-07	2.144181e-06	1.215570e-09	1.525271e+01	7.873956e+01
9.700000e-07	2.291449e-06	1.424110e-09	1.630031e+01	9.247677e+01
9.800000e-07	2.437901e-06	1.628821e-09	1.734210e+01	1.059214e+02
9.900000e-07	2.583447e-06	1.825539e-09	1.837744e+01	1.189711e+02
1.000000e-06	2.727989e-06	2.011898e-09	1.940565e+01	1.315411e+02
1.010000e-06	2.871513e-06	2.188780e-09	2.042661e+01	1.435682e+02
1.020000e-06	3.013950e-06	2.358702e-09	2.143984e+01	1.550121e+02
1.030000e-06	3.155177e-06	2.522156e-09	2.244446e+01	1.658551e+02
1.040000e-06	3.295117e-06	2.679367e-09	2.343993e+01	1.761002e+02
1.050000e-06	3.433737e-06	2.828411e-09	2.442601e+01	1.857673e+02
1.060000e-06	3.570973e-06	2.969982e-09	2.540224e+01	1.948889e+02
1.070000e-06	3.706822e-06	3.105045e-09	2.636861e+01	2.035051e+02
1.080000e-06	3.841295e-06	3.230165e-09	2.732519e+01	2.116588e+02
1.090000e-06	3.974414e-06	3.345926e-09	2.827214e+01	2.193916e+02
1.100000e-06	4.106184e-06	3.455728e-09	2.920949e+01	2.267407e+02
1.110000e-06	4.236470e-06	3.563226e-09	3.013628e+01	2.337373e+02
1.120000e-06	4.365238e-06	3.666145e-09	3.105228e+01	2.404057e+02
1.130000e-06	4.492535e-06	3.762457e-09	3.195781e+01	2.467641e+02
1.140000e-06	4.618321e-06	3.853331e-09	3.285260e+01	2.528265e+02
1.150000e-06	4.742520e-06	3.940169e-09	3.373609e+01	2.586041e+02
1.160000e-06	4.865049e-06	4.022889e-09	3.460770e+01	2.641075e+02
1.170000e-06	4.985843e-06	4.101486e-09	3.546697e+01	2.693488e+02
1.180000e-06	5.104861e-06	4.176672e-09	3.631361e+01	2.743426e+02
1.190000e-06	5.221960e-06	4.248600e-09	3.714660e+01	2.791062e+02
1.200000e-06	5.336991e-06	4.316772e-09	3.796488e+01	2.836592e+02
1.210000e-06	5.449911e-06	4.382404e-09	3.876814e+01	2.880226e+02
1.220000e-06	5.560804e-06	4.447974e-09	3.955698e+01	2.922168e+02
1.230000e-06	5.669760e-06	4.511664e-09	4.033204e+01	2.962600e+02
1.240000e-06	5.776743e-06	4.573363e-09	4.109307e+01	3.001663e+02
1.250000e-06	5.881608e-06	4.631396e-09	4.183903e+01	3.039447e+02
1.260000e-06	5.984288e-06	4.686208e-09	4.256945e+01	3.075984e+02
1.270000e-06	6.084790e-06	4.736130e-09	4.328437e+01	3.111250e+02
1.280000e-06	6.183004e-06	4.782017e-09	4.398302e+01	3.145178e+02
1.290000e-06	6.278840e-06	4.827302e-09	4.466475e+01	3.177668e+02
1.300000e-06	6.372417e-06	4.871950e-09	4.533042e+01	3.208616e+02
1.310000e-06	6.463758e-06	4.914926e-09	4.598018e+01	3.237927e+02
1.320000e-06	6.552754e-06	4.955980e-09	4.661326e+01	3.265540e+02
1.330000e-06	6.639435e-06	4.997784e-09	4.722986e+01	3.291440e+02
1.340000e-06	6.723887e-06	5.036482e-09	4.783062e+01	3.315664e+02
1.350000e-06	6.805989e-06	5.069809e-09	4.841465e+01	3.338300e+02
1.360000e-06	6.885567e-06	5.099767e-09	4.898073e+01	3.359480e+02
1.370000e-06	6.962615e-06	5.128916e-09	4.952881e+01	3.379363e+02
1.380000e-06	7.037045e-06	5.158487e-09	5.005827e+01	3.398116e+02
1.390000e-06	7.108793e-06	5.187336e-09	5.056865e+01	3.415894e+02
1.400000e-06	7.178003e-06	5.215505e-09	5.106099e+01	3.432824e+02
1.410000e-06	7.244647e-06	5.241214e-09	5.153506e+01	3.448990e+02
1.420000e-06	7.308673e-06	5.265511e-09	5.199051e+01	3.464428e+02
1.430000e-06	7.370236e-06	5.289976e-09	5.242844e+01	3.479126e+02
1.440000e-06	7.429310e-06	5.312521e-09	5.284867e+01	3.493038e+02
1.450000e-06	7.485761e-06	5.331027e-09	5.325023e+01	3.506091e+02
1.460000e-06	7.539501e-06	5.346740e-09	5.363252e+01	3.518208e+02
1.470000e-06	7.590196e-06	5.361784e-09	5.399313e+01	3.529326e+02
1.480000e-06	7.637753e-06	5.376551e-09	5.433143e+01	3.539408e+02
1.490000e-06	7.682568e-06	5.392338e-09	5.465023e+01	3.548461e+02
1.500000e-06	7.724667e-06	5.406947e-09	5.494970e+01	3.556531e+02
1.510000e-06	7.763957e-06	5.419720e-09	5.522919e+01	3.563705e+02
1.520000e-06	7.800616e-06	5.432139e-09	5.548996e+01	3.570101e+02
1.530000e-06	7.834499e-06	5.443130e-09	5.573099e+01	3.575851e+02
1.540000e-06	7.865527e-06	5.452854e-09	5.595171e+01	3.581080e+02
1.550000e-06	7.893924e-06	5.462726e-09	5.615371e+01	3.585894e+02
1.560000e-06	7.919425e-06	5.471217e-09	5.633512e+01	3.590359e+02
1.570000e-06	7.941909e-06	5.477599e-09	5.649506e+01	3.594494e+02
1.580000e-06	7.961751e-06	5.483483e-09	5.663620e+01	3.598269e+02
1.590000e-06	7.978795e-06	5.489137e-09	5.675745e+01	3.601608e+02
1.600000e-06	7.992828e-06	5.494483e-09	5.685727e+01	3.604403e+02
1.610000e-06	8.003807e-06	5.498991e-09	5.693537e+01	3.606532e+02
1.620000e-06	8.011641e-06	5.501309e-09	5.699110e+01	3.607876e+02
1.630000e-06	8.016602e-06	5.502423e-09	5.702639e+01	3.608344e+02
1.640000e-06	8.018726e-06	5.504695e-09	5.704150e+01	3.607884e+02
1.650000e-06	8.017965e-06	5.506293e-09	5.703609e+01	3.606500e+02
1.660000e-06	8.014588e-06	5.498864e-09	5.701206e+01	3.604250e+02
1.670000e-06	8.008551e-06	5.493306e-09	5.696912e+01	3.601245e+02
1.680000e-06	7.999842e-06	5.490130e-09	5.690717e+01	3.597633e+02
1.690000e-06	7.988487e-06	5.486421e-09	5.682639e+01	3.593585e+02
1.700000e-06	7.974268e-06	5.483328e-09	5.672524e+01	3.589270e+02
1.710000e-06	7.957399e-06	5.482368e-09	5.660524e+01	3.584833e+02
1.720000e-06	7.938257e-06	5.483217e-09	5.646908e+01	3.580376e+02
1.730000e-06	7.916674e-06	5.421368e-09	5.631555e+01	3.575946e+02
1.740000e-06	7.891907e-06	5.363985e-09	5.613937e+01	3.571523e+02
1.750000e-06	7.863414e-06	5.396341e-09	5.593668e+01	3.567028e+02
1.760000e-06	7.831504e-06	5.408661e-09	5.570969e+01	3.562326e+02
1.770000e-06	7.797015e-06	5.391090e-09	5.546435e+01	3.557246e+02
1.780000e-06	7.760288e-06	5.437197e-09	5.520309e+01	3.551601e+02
1.790000e-06	7.721333e-06	5.473951e-09	5.492598e+01	3.545208e+02
1.800000e-06	7.680266e-06	5.352135e-09	5.463385e+01	3.537911e+02
1.810000e-06	7.636759e-06	5.384005e-09	5.432436e+01	3.529596e+02
1.820000e-06	7.590732e-06	5.389815e-09	5.399695e+01	3.520202e+02
1.830000e-06	7.541967e-06	5.325987e-09	5.365006e+01	3.509725e+02
1.840000e-06	7.490100e-06	5.399281e-09	5.328110e+01	3.498215e+02
1.850000e-06	7.435360e-06	5.316308e-09	5.289171e+01	3.485762e+02
1.860000e-06	7.377821e-06	5.333677e-09	5.248239e+01	3.472486e+02
1.870000e-06	7.317682e-06	5.280659e-09	5.205459e+01	3.458517e+02
1.880000e-06	7.254829e-06	5.210805e-09	5.160749e+01	3.443975e+02
1.890000e-06	7.189061e-06	5.252407e-09	5.113965e+01	3.428962e+02
1.900000e-06	7.120599e-06	5.172556e-09	5.065264e+01	3.413544e+02
1.910000e-06	7.049298e-06	5.209005e-09	5.014544e+01	3.397747e+02
1.920000e-06	6.975307e-06	5.169517e-09	4.961910e+01	3.381560e+02
1.930000e-06	6.898590e-06	5.142473e-09	4.907337e+01	3.364936e+02
1.940000e-06	6.819001e-06	5.114037e-09	4.850721e+01	3.347803e+02
1.950000e-06	6.736907e-06	5.036598e-09	4.792323e+01	3.330078e+02
1.960000e-06	6.652385e-06	5.072137e-09	4.732198e+01	3.311672e+02
1.970000e-06	6.565378e-06	5.011447e-09	4.670306e+01	3.292508e+02
1.980000e-06	6.476000e-06	5.003215e-09	4.606726e+01	3.272526e+02
1.990000e-06	6.384446e-06	4.969051e-09	4.541598e+01	3.251686e+02
2.000000e-06	6.290637e-06	4.925485e-09	4.474867e+01	3.229973e+02
2.010000e-06	6.194465e-06	4.883210e-09	4.406455e+01	3.207390e+02
2.020000e-06	6.096057e-06	4.836663e-09	4.336452e+01	3.183958e+02
2.030000e-06	5.995498e-06	4.827853e-09	4.264919e+01	3.159702e+02
2.040000e-06	5.892815e-06	4.782029e-09	4.191876e+01	3.134652e+02
2.050000e-06	5.788048e-06	4.762829e-09	4.117349e+01	3.108830e+02
2.060000e-06	5.681370e-06	4.708267e-09	4.041463e+01	3.082248e+02
2.070000e-06	5.572799e-06	4.664626e-09	3.964230e+01	3.054907e+02
2.080000e-06	5.462218e-06	4.605630e-09	3.885568e+01	3.026794e+02
2.090000e-06	5.349520e-06	4.562028e-09	3.805400e+01	2.997884e+02
2.100000e-06	5.234769e-06	4.528597e-09	3.723772e+01	2.968145e+02
2.110000e-06	5.118035e-06	4.490056e-09	3.640733e+01	2.937538e+02
2.120000e-06	4.999276e-06	4.446003e-09	3.556253e+01	2.906025e+02
2.130000e-06	4.878621e-06	4.388749e-09	3.470425e+01	2.873568e+02
2.140000e-06	4.756227e-06	4.338142e-09	3.383360e+01	2.840131e+02
2.150000e-06	4.632142e-06	4.279264e-09	3.295091e+01	2.805681e+02
2.160000e-06	4.506312e-06	4.232170e-09	3.205582e+01	2.770191e+02
2.170000e-06	4.378838e-06	4.179860e-09	3.114902e+01	2.733633e+02
2.180000e-06	4.249773e-06	4.130810e-09	3.023092e+01	2.695979e+02
2.190000e-06	4.119208e-06	4.067085e-09	2.930213e+01	2.657204e+02
2.200000e-06	3.987165e-06	4.002255e-09	2.836284e+01	2.617280e+02
2.210000e-06	3.853588e-06	3.935388e-09	2.741264e+01	2.576179e+02
2.220000e-06	3.718510e-06	3.874291e-09	2.645176e+01	2.533877e+02
2.230000e-06	3.581982e-06	3.813322e-09	2.548056e+01	2.490346e+02
2.240000e-06	3.444141e-06	3.749223e-09	2.450002e+01	2.445563e+02
2.250000e-06	3.305060e-06	3.681923e-09	2.351067e+01	2.399507e+02
2.260000e-06	3.164663e-06	3.606594e-09	2.251195e+01	2.352155e+02
2.270000e-06	3.022928e-06	3.526364e-09	2.150371e+01	2.303483e+02
2.280000e-06	2.880019e-06	3.443042e-09	2.048712e+01	2.253461e+02
2.290000e-06	2.736089e-06	3.365220e-09	1.946327e+01	2.202048e+02
2.300000e-06	2.591194e-06	3.287803e-09	1.843255e+01	2.149191e+02
2.310000e-06	2.445373e-06	3.213685e-09	1.739525e+01	2.094823e+02
2.320000e-06	2.298725e-06	3.133474e-09	1.635206e+01	2.038860e+02
2.330000e-06	2.151318e-06	3.044012e-09	1.530348e+01	1.981203e+02
2.340000e-06	2.003190e-06	2.945557e-09	1.424976e+01	1.921746e+02
2.350000e-06	1.854398e-06	2.845511e-09	1.319133e+01	1.860379e+02
2.360000e-06	1.705050e-06	2.748846e-09	1.212894e+01	1.796996e+02
2.370000e-06	1.555182e-06	2.651134e-09	1.106284e+01	1.731502e+02
2.380000e-06	1.404769e-06	2.551657e-09	9.992877e+00	1.663822e+02
2.390000e-06	1.253859e-06	2.447173e-09	8.919370e+00	1.593895e+02
2.400000e-06	1.102565e-06	2.335112e-09	7.843135e+00	1.521682e+02
2.410000e-06	9.509050e-07	2.220207e-09	6.764297e+00	1.447151e+02
2.420000e-06	7.989009e-07	2.103988e-09	5.683010e+00	1.370271e+02
2.430000e-06	6.466679e-07	1.986927e-09	4.600095e+00	1.290996e+02
2.440000e-06	4.941933e-07	1.865356e-09	3.515462e+00	1.209245e+02
2.450000e-06	3.414466e-07	1.738095e-09	2.428892e+00	1.124893e+02
2.460000e-06	1.885605e-07	1.604713e-09	1.341332e+00	1.037754e+02
2.470000e-06	3.559744e-08	1.463654e-09	2.532237e-01	9.475787e+01
2.480000e-06	-1.174255e-07	1.318313e-09	-8.353109e-01	8.540582e+01
2.490000e-06	-2.704143e-07	1.170116e-09	-1.923602e+00	7.568399e+01
2.500000e-06	-4.233175e-07	1.018312e-09	-3.011284e+00	6.555526e+01
2.510000e-06	-5.761037e-07	8.599055e-10	-4.098134e+00	5.498421e+01
2.520000e-06	-7.286660e-07	6.927439e-10	-5.183392e+00	4.394134e+01
2.530000e-06	-8.809519e-07	5.174039e-10	-6.266683e+00	3.240761e+01
2.540000e-06	-1.032967e-06	3.338716e-10	-7.348048e+00	2.037884e+01
2.550000e-06	-1.184654e-06	1.424156e-10	-8.427076e+00	7.869364e+00
2.560000e-06	-1.335953e-06	-5.651338e-11	-9.503350e+00	-5.085436e+00
2.570000e-06	-1.486777e-06	-2.619522e-10	-1.057624e+01	-1.842811e+01
2.580000e-06	-1.637037e-06	-4.725981e-10	-1.164512e+01	-3.207992e+01
2.590000e-06	-1.786618e-06	-6.874409e-10	-1.270917e+01	-4.594351e+01
2.600000e-06	-1.935483e-06	-9.043898e-10	-1.376813e+01	-5.990715e+01
2.610000e-06	-2.083646e-06	-1.121864e-09	-1.482209e+01	-7.385047e+01
2.620000e-06	-2.231044e-06	-1.336332e-09	-1.587061e+01	-8.765096e+01
2.630000e-06	-2.377641e-06	-1.545234e-09	-1.691344e+01	-1.011908e+02
2.640000e-06	-2.523342e-06	-1.749105e-09	-1.794989e+01	-1.143633e+02
2.650000e-06	-2.668089e-06	-1.945023e-09	-1.897955e+01	-1.270783e+02
2.660000e-06	-2.811868e-06	-2.129826e-09	-2.000233e+01	-1.392661e+02
2.670000e-06	-2.954490e-06	-2.304170e-09	-2.101687e+01	-1.508799e+02
2.680000e-06	-3.095866e-06	-2.469913e-09	-2.202256e+01	-1.618956e+02
2.690000e-06	-3.236024e-06	-2.628174e-09	-2.301958e+01	-1.723106e+02
2.700000e-06	-3.374933e-06	-2.777105e-09	-2.400771e+01	-1.821405e+02
2.710000e-06	-3.512522e-06	-2.919000e-09	-2.498645e+01	-1.914146e+02
2.720000e-06	-3.648766e-06	-3.056076e-09	-2.595563e+01	-2.001713e+02
2.730000e-06	-3.783721e-06	-3.187332e-09	-2.691564e+01	-2.084532e+02
2.740000e-06	-3.917285e-06	-3.310963e-09	-2.786575e+01	-2.163027e+02
2.750000e-06	-4.049468e-06	-3.425742e-09	-2.880603e+01	-2.237585e+02
2.760000e-06	-4.180271e-06	-3.532941e-09	-2.973651e+01	-2.308535e+02
2.770000e-06	-4.309661e-06	-3.632874e-09	-3.065693e+01	-2.376140e+02
2.780000e-06	-4.437587e-06	-3.729427e-09	-3.156694e+01	-2.440599e+02
2.790000e-06	-4.563931e-06	-3.823973e-09	-3.246569e+01	-2.502062e+02
2.800000e-06	-4.688707e-06	-3.914016e-09	-3.335328e+01	-2.560645e+02
2.810000e-06	-4.811831e-06	-3.998685e-09	-3.422913e+01	-2.616455e+02
2.820000e-06	-4.933205e-06	-4.079391e-09	-3.509254e+01	-2.669609e+02
2.830000e-06	-5.052722e-06	-4.156098e-09	-3.594272e+01	-2.720242e+02
2.840000e-06	-5.170264e-06	-4.229927e-09	-3.677886e+01	-2.768521e+02
2.850000e-06	-5.285685e-06	-4.300264e-09	-3.759991e+01	-2.814637e+02
2.860000e-06	-5.398838e-06	-4.367460e-09	-3.840483e+01	-2.858796e+02
2.870000e-06	-5.509855e-06	-4.433081e-09	-3.919455e+01	-2.901206e+02
2.880000e-06	-5.618975e-06	-4.497354e-09	-3.997078e+01	-2.942058e+02
2.890000e-06	-5.726237e-06	-4.561449e-09	-4.073379e+01	-2.981505e+02
2.900000e-06	-5.831556e-06	-4.622323e-09	-4.148298e+01	-3.019653e+02
2.910000e-06	-5.934656e-06	-4.678894e-09	-4.221639e+01	-3.056552e+02
2.920000e-06	-6.035483e-06	-4.732835e-09	-4.293363e+01	-3.092191e+02
2.930000e-06	-6.134192e-06	-4.784697e-09	-4.363579e+01	-3.126515e+02
2.940000e-06	-6.230710e-06	-4.834676e-09	-4.432238e+01	-3.159432e+02
