# Temperatura_=_38.27
# Concentracion g/m^3_=_5000.0
# C_Vs_to_Am_M_A/Vsm_=_65563218390.804596
# pendiente_HvsI_1/m_=_3716.3
# ordenada_HvsI_A/m_=_1297.0
# frecuencia_Hz_=_302511.71513640066

Tiempo_(s)	Campo_(V.s)	Magnetizacion_(V.s)	Campo_(kA/m)	Magnetizacion_(A/m)
0.000000e+00	-8.016772e-06	-5.287055e-09	-5.686289e+01	-3.453491e+02
1.000000e-08	-8.012476e-06	-5.286043e-09	-5.683242e+01	-3.451200e+02
2.000000e-08	-8.005583e-06	-5.280619e-09	-5.678353e+01	-3.448282e+02
3.000000e-08	-7.995929e-06	-5.274391e-09	-5.671505e+01	-3.444862e+02
4.000000e-08	-7.983324e-06	-5.268652e-09	-5.662565e+01	-3.441079e+02
5.000000e-08	-7.967743e-06	-5.262352e-09	-5.651513e+01	-3.437064e+02
6.000000e-08	-7.949536e-06	-5.254803e-09	-5.638598e+01	-3.432931e+02
7.000000e-08	-7.929051e-06	-5.251096e-09	-5.624068e+01	-3.428760e+02
8.000000e-08	-7.905938e-06	-5.271905e-09	-5.607675e+01	-3.424587e+02
9.000000e-08	-7.879638e-06	-5.287469e-09	-5.589020e+01	-3.420405e+02
1.000000e-07	-7.850157e-06	-5.267206e-09	-5.568109e+01	-3.416159e+02
1.100000e-07	-7.817790e-06	-5.238579e-09	-5.545151e+01	-3.411760e+02
1.200000e-07	-7.782673e-06	-5.220936e-09	-5.520243e+01	-3.407088e+02
1.300000e-07	-7.745103e-06	-5.196476e-09	-5.493595e+01	-3.402012e+02
1.400000e-07	-7.705402e-06	-5.155144e-09	-5.465435e+01	-3.396398e+02
1.500000e-07	-7.663449e-06	-5.167995e-09	-5.435677e+01	-3.390126e+02
1.600000e-07	-7.618844e-06	-5.176541e-09	-5.404039e+01	-3.383097e+02
1.700000e-07	-7.571496e-06	-5.131751e-09	-5.370455e+01	-3.375240e+02
1.800000e-07	-7.521238e-06	-5.131737e-09	-5.334807e+01	-3.366517e+02
1.900000e-07	-7.467931e-06	-5.119723e-09	-5.296997e+01	-3.356917e+02
2.000000e-07	-7.411835e-06	-5.082206e-09	-5.257208e+01	-3.346460e+02
2.100000e-07	-7.353030e-06	-5.063466e-09	-5.215497e+01	-3.335180e+02
2.200000e-07	-7.291579e-06	-5.052726e-09	-5.171910e+01	-3.323127e+02
2.300000e-07	-7.227465e-06	-5.041508e-09	-5.126435e+01	-3.310354e+02
2.400000e-07	-7.160538e-06	-5.011526e-09	-5.078963e+01	-3.296910e+02
2.500000e-07	-7.090933e-06	-4.997417e-09	-5.029592e+01	-3.282838e+02
2.600000e-07	-7.018609e-06	-4.980333e-09	-4.978293e+01	-3.268172e+02
2.700000e-07	-6.943443e-06	-4.940505e-09	-4.924978e+01	-3.252931e+02
2.800000e-07	-6.865495e-06	-4.909730e-09	-4.869689e+01	-3.237127e+02
2.900000e-07	-6.784750e-06	-4.900068e-09	-4.812417e+01	-3.220758e+02
3.000000e-07	-6.701512e-06	-4.884459e-09	-4.753376e+01	-3.203817e+02
3.100000e-07	-6.616045e-06	-4.848313e-09	-4.692755e+01	-3.186291e+02
3.200000e-07	-6.528268e-06	-4.822750e-09	-4.630494e+01	-3.168163e+02
3.300000e-07	-6.438115e-06	-4.798862e-09	-4.566549e+01	-3.149414e+02
3.400000e-07	-6.345618e-06	-4.762997e-09	-4.500941e+01	-3.130021e+02
3.500000e-07	-6.250888e-06	-4.727155e-09	-4.433749e+01	-3.109960e+02
3.600000e-07	-6.153902e-06	-4.700956e-09	-4.364957e+01	-3.089208e+02
3.700000e-07	-6.054657e-06	-4.673296e-09	-4.294563e+01	-3.067737e+02
3.800000e-07	-5.953234e-06	-4.632012e-09	-4.222624e+01	-3.045523e+02
3.900000e-07	-5.849694e-06	-4.598154e-09	-4.149183e+01	-3.022540e+02
4.000000e-07	-5.744054e-06	-4.567187e-09	-4.074253e+01	-2.998764e+02
4.100000e-07	-5.636377e-06	-4.525425e-09	-3.997877e+01	-2.974177e+02
4.200000e-07	-5.526764e-06	-4.481006e-09	-3.920128e+01	-2.948764e+02
4.300000e-07	-5.415116e-06	-4.445960e-09	-3.840937e+01	-2.922515e+02
4.400000e-07	-5.301364e-06	-4.409102e-09	-3.760253e+01	-2.895425e+02
4.500000e-07	-5.185531e-06	-4.362622e-09	-3.678092e+01	-2.867490e+02
4.600000e-07	-5.067712e-06	-4.318206e-09	-3.594523e+01	-2.838706e+02
4.700000e-07	-4.948109e-06	-4.277016e-09	-3.509689e+01	-2.809067e+02
4.800000e-07	-4.826747e-06	-4.228987e-09	-3.423607e+01	-2.778557e+02
4.900000e-07	-4.703574e-06	-4.175487e-09	-3.336241e+01	-2.747153e+02
5.000000e-07	-4.578692e-06	-4.125472e-09	-3.247662e+01	-2.714817e+02
5.100000e-07	-4.452154e-06	-4.074161e-09	-3.157909e+01	-2.681502e+02
5.200000e-07	-4.324006e-06	-4.019375e-09	-3.067014e+01	-2.647151e+02
5.300000e-07	-4.194333e-06	-3.962846e-09	-2.975037e+01	-2.611700e+02
5.400000e-07	-4.063057e-06	-3.905322e-09	-2.881922e+01	-2.575087e+02
5.500000e-07	-3.930267e-06	-3.847681e-09	-2.787735e+01	-2.537254e+02
5.600000e-07	-3.796026e-06	-3.788796e-09	-2.692517e+01	-2.498154e+02
5.700000e-07	-3.660327e-06	-3.729006e-09	-2.596266e+01	-2.457754e+02
5.800000e-07	-3.523260e-06	-3.666290e-09	-2.499045e+01	-2.416040e+02
5.900000e-07	-3.384767e-06	-3.600291e-09	-2.400812e+01	-2.373012e+02
6.000000e-07	-3.244734e-06	-3.531992e-09	-2.301487e+01	-2.328683e+02
6.100000e-07	-3.103298e-06	-3.462234e-09	-2.201167e+01	-2.283068e+02
6.200000e-07	-2.960666e-06	-3.390783e-09	-2.099998e+01	-2.236180e+02
6.300000e-07	-2.816818e-06	-3.317453e-09	-1.997966e+01	-2.188018e+02
6.400000e-07	-2.671890e-06	-3.240970e-09	-1.895169e+01	-2.138557e+02
6.500000e-07	-2.526107e-06	-3.161343e-09	-1.791765e+01	-2.087745e+02
6.600000e-07	-2.379442e-06	-3.078123e-09	-1.687736e+01	-2.035499e+02
6.700000e-07	-2.231949e-06	-2.993124e-09	-1.583120e+01	-1.981705e+02
6.800000e-07	-2.083781e-06	-2.909269e-09	-1.478024e+01	-1.926229e+02
6.900000e-07	-1.934992e-06	-2.824089e-09	-1.372488e+01	-1.868922e+02
7.000000e-07	-1.785658e-06	-2.735935e-09	-1.266566e+01	-1.809636e+02
7.100000e-07	-1.635801e-06	-2.640864e-09	-1.160272e+01	-1.748236e+02
7.200000e-07	-1.485337e-06	-2.542463e-09	-1.053548e+01	-1.684613e+02
7.300000e-07	-1.334272e-06	-2.441904e-09	-9.463981e+00	-1.618691e+02
7.400000e-07	-1.182767e-06	-2.336192e-09	-8.389359e+00	-1.550428e+02
7.500000e-07	-1.030876e-06	-2.228785e-09	-7.311996e+00	-1.479813e+02
7.600000e-07	-8.786090e-07	-2.119626e-09	-6.231965e+00	-1.406854e+02
7.700000e-07	-7.260922e-07	-2.005128e-09	-5.150166e+00	-1.331560e+02
7.800000e-07	-5.733774e-07	-1.885885e-09	-4.066961e+00	-1.253920e+02
7.900000e-07	-4.204385e-07	-1.764528e-09	-2.982166e+00	-1.173882e+02
8.000000e-07	-2.673318e-07	-1.639250e-09	-1.896182e+00	-1.091332e+02
8.100000e-07	-1.140925e-07	-1.506430e-09	-8.092569e-01	-1.006084e+02
8.200000e-07	3.924874e-08	-1.367311e-09	2.783909e-01	-9.178726e+01
8.300000e-07	1.926497e-07	-1.224347e-09	1.366463e+00	-8.263631e+01
8.400000e-07	3.460174e-07	-1.077330e-09	2.454298e+00	-7.311725e+01
8.500000e-07	4.992905e-07	-9.261113e-10	3.541463e+00	-6.319011e+01
8.600000e-07	6.524409e-07	-7.674144e-10	4.627757e+00	-5.281745e+01
8.700000e-07	8.054071e-07	-6.009058e-10	5.712745e+00	-4.196915e+01
8.800000e-07	9.581890e-07	-4.283927e-10	6.796426e+00	-3.062725e+01
8.900000e-07	1.110655e-06	-2.502067e-10	7.877866e+00	-1.879039e+01
9.000000e-07	1.262707e-06	-6.579784e-11	8.956367e+00	-6.477236e+00
9.100000e-07	1.414311e-06	1.256503e-10	1.003169e+01	6.271442e+00
9.200000e-07	1.565337e-06	3.222325e-10	1.110292e+01	1.939253e+01
9.300000e-07	1.715728e-06	5.238011e-10	1.216964e+01	3.280211e+01
9.400000e-07	1.865455e-06	7.299316e-10	1.323166e+01	4.639891e+01
9.500000e-07	2.014494e-06	9.384146e-10	1.428879e+01	6.006925e+01
9.600000e-07	2.162821e-06	1.145299e-09	1.534087e+01	7.369307e+01
9.700000e-07	2.310398e-06	1.350174e-09	1.638763e+01	8.715068e+01
9.800000e-07	2.457171e-06	1.552715e-09	1.742869e+01	1.003292e+02
9.900000e-07	2.603047e-06	1.747107e-09	1.846339e+01	1.131287e+02
1.000000e-06	2.747948e-06	1.929193e-09	1.949117e+01	1.254665e+02
1.010000e-06	2.891805e-06	2.102258e-09	2.051155e+01	1.372807e+02
1.020000e-06	3.034534e-06	2.270885e-09	2.152392e+01	1.485312e+02
1.030000e-06	3.176043e-06	2.433110e-09	2.252765e+01	1.591994e+02
1.040000e-06	3.316266e-06	2.585912e-09	2.352224e+01	1.692858e+02
1.050000e-06	3.455185e-06	2.730464e-09	2.450760e+01	1.788068e+02
1.060000e-06	3.592773e-06	2.869817e-09	2.548351e+01	1.877906e+02
1.070000e-06	3.728967e-06	3.004240e-09	2.644953e+01	1.962726e+02
1.080000e-06	3.863733e-06	3.128363e-09	2.740543e+01	2.042911e+02
1.090000e-06	3.997095e-06	3.242320e-09	2.835136e+01	2.118838e+02
1.100000e-06	4.129045e-06	3.349565e-09	2.928728e+01	2.190855e+02
1.110000e-06	4.259553e-06	3.452161e-09	3.021297e+01	2.259259e+02
1.120000e-06	4.388570e-06	3.551411e-09	3.112809e+01	2.324297e+02
1.130000e-06	4.516018e-06	3.646308e-09	3.203208e+01	2.386171e+02
1.140000e-06	4.641902e-06	3.735671e-09	3.292497e+01	2.445046e+02
1.150000e-06	4.766164e-06	3.820068e-09	3.380635e+01	2.501069e+02
1.160000e-06	4.888806e-06	3.899528e-09	3.467626e+01	2.554382e+02
1.170000e-06	5.009771e-06	3.974812e-09	3.553426e+01	2.605132e+02
1.180000e-06	5.128910e-06	4.048031e-09	3.637931e+01	2.653481e+02
1.190000e-06	5.246172e-06	4.117926e-09	3.721105e+01	2.699605e+02
1.200000e-06	5.361456e-06	4.184560e-09	3.802876e+01	2.743686e+02
1.210000e-06	5.474633e-06	4.248525e-09	3.883152e+01	2.785906e+02
1.220000e-06	5.585725e-06	4.311923e-09	3.961950e+01	2.826428e+02
1.230000e-06	5.694875e-06	4.374092e-09	4.039370e+01	2.865389e+02
1.240000e-06	5.802087e-06	4.432542e-09	4.115415e+01	2.902886e+02
1.250000e-06	5.907150e-06	4.487710e-09	4.189936e+01	2.938971e+02
1.260000e-06	6.009925e-06	4.539890e-09	4.262834e+01	2.973649e+02
1.270000e-06	6.110482e-06	4.587601e-09	4.334159e+01	3.006890e+02
1.280000e-06	6.208766e-06	4.632140e-09	4.403872e+01	3.038635e+02
1.290000e-06	6.304640e-06	4.674531e-09	4.471876e+01	3.068815e+02
1.300000e-06	6.398267e-06	4.714417e-09	4.538285e+01	3.097366e+02
1.310000e-06	6.489746e-06	4.751775e-09	4.603171e+01	3.124251e+02
1.320000e-06	6.578889e-06	4.788485e-09	4.666400e+01	3.149465e+02
1.330000e-06	6.665649e-06	4.825629e-09	4.727939e+01	3.173050e+02
1.340000e-06	6.750100e-06	4.861859e-09	4.787840e+01	3.195090e+02
1.350000e-06	6.832174e-06	4.894068e-09	4.846055e+01	3.215711e+02
1.360000e-06	6.911746e-06	4.922550e-09	4.902495e+01	3.235062e+02
1.370000e-06	6.988779e-06	4.948534e-09	4.957135e+01	3.253308e+02
1.380000e-06	7.063172e-06	4.973862e-09	5.009901e+01	3.270604e+02
1.390000e-06	7.134907e-06	5.000335e-09	5.060783e+01	3.287087e+02
1.400000e-06	7.204146e-06	5.026076e-09	5.109894e+01	3.302854e+02
1.410000e-06	7.270876e-06	5.050506e-09	5.157226e+01	3.317960e+02
1.420000e-06	7.334936e-06	5.073216e-09	5.202664e+01	3.332416e+02
1.430000e-06	7.396438e-06	5.094253e-09	5.246287e+01	3.346192e+02
1.440000e-06	7.455517e-06	5.113800e-09	5.288192e+01	3.359227e+02
1.450000e-06	7.511935e-06	5.131092e-09	5.328208e+01	3.371447e+02
1.460000e-06	7.565515e-06	5.146202e-09	5.366213e+01	3.382779e+02
1.470000e-06	7.616073e-06	5.160407e-09	5.402074e+01	3.393165e+02
1.480000e-06	7.663593e-06	5.174089e-09	5.435780e+01	3.402579e+02
1.490000e-06	7.708409e-06	5.188523e-09	5.467567e+01	3.411030e+02
1.500000e-06	7.750519e-06	5.202660e-09	5.497436e+01	3.418567e+02
1.510000e-06	7.789778e-06	5.215297e-09	5.525283e+01	3.425270e+02
1.520000e-06	7.826267e-06	5.227247e-09	5.551164e+01	3.431243e+02
1.530000e-06	7.860006e-06	5.236482e-09	5.575095e+01	3.436600e+02
1.540000e-06	7.890913e-06	5.243610e-09	5.597018e+01	3.441448e+02
1.550000e-06	7.919153e-06	5.251462e-09	5.617048e+01	3.445874e+02
1.560000e-06	7.944596e-06	5.258634e-09	5.635095e+01	3.449931e+02
1.570000e-06	7.967032e-06	5.265160e-09	5.651009e+01	3.453634e+02
1.580000e-06	7.986673e-06	5.270845e-09	5.664940e+01	3.456958e+02
1.590000e-06	8.003447e-06	5.275685e-09	5.676837e+01	3.459842e+02
1.600000e-06	8.017189e-06	5.279734e-09	5.686585e+01	3.462202e+02
1.610000e-06	8.027838e-06	5.283939e-09	5.694138e+01	3.463943e+02
1.620000e-06	8.035444e-06	5.288159e-09	5.699533e+01	3.464978e+02
1.630000e-06	8.040171e-06	5.290391e-09	5.702886e+01	3.465239e+02
1.640000e-06	8.041953e-06	5.291558e-09	5.704150e+01	3.464692e+02
1.650000e-06	8.040919e-06	5.289128e-09	5.703416e+01	3.463345e+02
1.660000e-06	8.037340e-06	5.284734e-09	5.700878e+01	3.461248e+02
1.670000e-06	8.031055e-06	5.280342e-09	5.696420e+01	3.458493e+02
1.680000e-06	8.022040e-06	5.276139e-09	5.690025e+01	3.455198e+02
1.690000e-06	8.010301e-06	5.271792e-09	5.681699e+01	3.451500e+02
1.700000e-06	7.995685e-06	5.268502e-09	5.671332e+01	3.447534e+02
1.710000e-06	7.978520e-06	5.266350e-09	5.659157e+01	3.443421e+02
1.720000e-06	7.959165e-06	5.250184e-09	5.645428e+01	3.439250e+02
1.730000e-06	7.937270e-06	5.203402e-09	5.629898e+01	3.435073e+02
1.740000e-06	7.912066e-06	5.181545e-09	5.612021e+01	3.430892e+02
1.750000e-06	7.883184e-06	5.195176e-09	5.591536e+01	3.426668e+02
1.760000e-06	7.850992e-06	5.196057e-09	5.568702e+01	3.422319e+02
1.770000e-06	7.816235e-06	5.193557e-09	5.544048e+01	3.417733e+02
1.780000e-06	7.779206e-06	5.226810e-09	5.517784e+01	3.412782e+02
1.790000e-06	7.739991e-06	5.219140e-09	5.489969e+01	3.407331e+02
1.800000e-06	7.698678e-06	5.172532e-09	5.460666e+01	3.401254e+02
1.810000e-06	7.654830e-06	5.174654e-09	5.429564e+01	3.394445e+02
1.820000e-06	7.608315e-06	5.153216e-09	5.396571e+01	3.386825e+02
1.830000e-06	7.559067e-06	5.152911e-09	5.361639e+01	3.378347e+02
1.840000e-06	7.506793e-06	5.153018e-09	5.324561e+01	3.368993e+02
1.850000e-06	7.451572e-06	5.127098e-09	5.285393e+01	3.358773e+02
1.860000e-06	7.393550e-06	5.118962e-09	5.244238e+01	3.347719e+02
1.870000e-06	7.332944e-06	5.066645e-09	5.201250e+01	3.335877e+02
1.880000e-06	7.269657e-06	5.056509e-09	5.156361e+01	3.323299e+02
1.890000e-06	7.203558e-06	5.052182e-09	5.109477e+01	3.310038e+02
1.900000e-06	7.134687e-06	5.008726e-09	5.060627e+01	3.296137e+02
1.910000e-06	7.062940e-06	5.010966e-09	5.009737e+01	3.281634e+02
1.920000e-06	6.988524e-06	4.989743e-09	4.956954e+01	3.266551e+02
1.930000e-06	6.911362e-06	4.958343e-09	4.902222e+01	3.250903e+02
1.940000e-06	6.831402e-06	4.928197e-09	4.845507e+01	3.234691e+02
1.950000e-06	6.748963e-06	4.903629e-09	4.787033e+01	3.217910e+02
1.960000e-06	6.664034e-06	4.886899e-09	4.726793e+01	3.200549e+02
1.970000e-06	6.576581e-06	4.843155e-09	4.664763e+01	3.182591e+02
1.980000e-06	6.486756e-06	4.822855e-09	4.601050e+01	3.164016e+02
1.990000e-06	6.394783e-06	4.800011e-09	4.535814e+01	3.144805e+02
2.000000e-06	6.300522e-06	4.762321e-09	4.468954e+01	3.124933e+02
2.010000e-06	6.203887e-06	4.726742e-09	4.400411e+01	3.104376e+02
2.020000e-06	6.105022e-06	4.697241e-09	4.330286e+01	3.083109e+02
2.030000e-06	6.004009e-06	4.666635e-09	4.258638e+01	3.061106e+02
2.040000e-06	5.900886e-06	4.626256e-09	4.185493e+01	3.038340e+02
2.050000e-06	5.795640e-06	4.598209e-09	4.110842e+01	3.014788e+02
2.060000e-06	5.688453e-06	4.564834e-09	4.034814e+01	2.990430e+02
2.070000e-06	5.579340e-06	4.519628e-09	3.957421e+01	2.965250e+02
2.080000e-06	5.468212e-06	4.470885e-09	3.878598e+01	2.939236e+02
2.090000e-06	5.355041e-06	4.435143e-09	3.798326e+01	2.912382e+02
2.100000e-06	5.239859e-06	4.402233e-09	3.716627e+01	2.884684e+02
2.110000e-06	5.122646e-06	4.360861e-09	3.633488e+01	2.856139e+02
2.120000e-06	5.003393e-06	4.316157e-09	3.548902e+01	2.826741e+02
2.130000e-06	4.882295e-06	4.266186e-09	3.463007e+01	2.796478e+02
2.140000e-06	4.759429e-06	4.216077e-09	3.375859e+01	2.765327e+02
2.150000e-06	4.634912e-06	4.167298e-09	3.287539e+01	2.733257e+02
2.160000e-06	4.508703e-06	4.122962e-09	3.198019e+01	2.700223e+02
2.170000e-06	4.380726e-06	4.074973e-09	3.107245e+01	2.666170e+02
2.180000e-06	4.251153e-06	4.021240e-09	3.015339e+01	2.631035e+02
2.190000e-06	4.120055e-06	3.964523e-09	2.922351e+01	2.594756e+02
2.200000e-06	3.987441e-06	3.907636e-09	2.828288e+01	2.557273e+02
2.210000e-06	3.853312e-06	3.849133e-09	2.733151e+01	2.518534e+02
2.220000e-06	3.717709e-06	3.789827e-09	2.636967e+01	2.478503e+02
2.230000e-06	3.580729e-06	3.725753e-09	2.539808e+01	2.437161e+02
2.240000e-06	3.442371e-06	3.657467e-09	2.441670e+01	2.394503e+02
2.250000e-06	3.302649e-06	3.589374e-09	2.342566e+01	2.350539e+02
2.260000e-06	3.161686e-06	3.521579e-09	2.242581e+01	2.305286e+02
2.270000e-06	3.019473e-06	3.450747e-09	2.141710e+01	2.258756e+02
2.280000e-06	2.876033e-06	3.376339e-09	2.039968e+01	2.210955e+02
2.290000e-06	2.731498e-06	3.302897e-09	1.937449e+01	2.161865e+02
2.300000e-06	2.586041e-06	3.229939e-09	1.834277e+01	2.111441e+02
2.310000e-06	2.439808e-06	3.156323e-09	1.730554e+01	2.059611e+02
2.320000e-06	2.292779e-06	3.077990e-09	1.626266e+01	2.006268e+02
2.330000e-06	2.144898e-06	2.990640e-09	1.521374e+01	1.951283e+02
2.340000e-06	1.996238e-06	2.895150e-09	1.415930e+01	1.894509e+02
2.350000e-06	1.846942e-06	2.800308e-09	1.310034e+01	1.835799e+02
2.360000e-06	1.697156e-06	2.710208e-09	1.203791e+01	1.775011e+02
2.370000e-06	1.546837e-06	2.620264e-09	1.097170e+01	1.712028e+02
2.380000e-06	1.395943e-06	2.524425e-09	9.901410e+00	1.646764e+02
2.390000e-06	1.244608e-06	2.419705e-09	8.827990e+00	1.579167e+02
2.400000e-06	1.092866e-06	2.310043e-09	7.751686e+00	1.509220e+02
2.410000e-06	9.407381e-07	2.200743e-09	6.672647e+00	1.436925e+02
2.420000e-06	7.883152e-07	2.090863e-09	5.591512e+00	1.362293e+02
2.430000e-06	6.356348e-07	1.976515e-09	4.508552e+00	1.285322e+02
2.440000e-06	4.826911e-07	1.853513e-09	3.423724e+00	1.205973e+02
2.450000e-06	3.295063e-07	1.726286e-09	2.337185e+00	1.124153e+02
2.460000e-06	1.761412e-07	1.598908e-09	1.249368e+00	1.039695e+02
2.470000e-06	2.271311e-08	1.467857e-09	1.611039e-01	9.523566e+01
2.480000e-06	-1.307144e-07	1.330920e-09	-9.271560e-01	8.618223e+01
2.490000e-06	-2.840964e-07	1.186895e-09	-2.015093e+00	7.677197e+01
2.500000e-06	-4.374026e-07	1.036092e-09	-3.102492e+00	6.696499e+01
2.510000e-06	-5.906226e-07	8.801039e-10	-4.189281e+00	5.672266e+01
2.520000e-06	-7.437020e-07	7.182942e-10	-5.275072e+00	4.601226e+01
2.530000e-06	-8.965475e-07	5.474881e-10	-6.359203e+00	3.481188e+01
2.540000e-06	-1.049036e-06	3.684310e-10	-7.440802e+00	2.311500e+01
2.550000e-06	-1.201087e-06	1.832163e-10	-8.519299e+00	1.093431e+01
2.560000e-06	-1.352662e-06	-8.770356e-12	-9.594417e+00	-1.695858e+00
2.570000e-06	-1.503751e-06	-2.061853e-10	-1.066609e+01	-1.471869e+01
2.580000e-06	-1.654309e-06	-4.097606e-10	-1.173400e+01	-2.805595e+01
2.590000e-06	-1.804245e-06	-6.206632e-10	-1.279750e+01	-4.161088e+01
2.600000e-06	-1.953520e-06	-8.352805e-10	-1.385630e+01	-5.527275e+01
2.610000e-06	-2.102097e-06	-1.049958e-09	-1.491016e+01	-6.892267e+01
2.620000e-06	-2.249817e-06	-1.262013e-09	-1.595793e+01	-8.244015e+01
2.630000e-06	-2.396601e-06	-1.469569e-09	-1.699907e+01	-9.570976e+01
2.640000e-06	-2.542528e-06	-1.670800e-09	-1.803412e+01	-1.086272e+02
2.650000e-06	-2.687543e-06	-1.861710e-09	-1.906272e+01	-1.211047e+02
2.660000e-06	-2.831555e-06	-2.040748e-09	-2.008419e+01	-1.330740e+02
2.670000e-06	-2.974495e-06	-2.209670e-09	-2.109806e+01	-1.444888e+02
2.680000e-06	-3.116278e-06	-2.369891e-09	-2.210373e+01	-1.553245e+02
2.690000e-06	-3.256732e-06	-2.524159e-09	-2.309997e+01	-1.655765e+02
2.700000e-06	-3.395763e-06	-2.673775e-09	-2.408611e+01	-1.752571e+02
2.710000e-06	-3.533541e-06	-2.817896e-09	-2.506338e+01	-1.843915e+02
2.720000e-06	-3.670085e-06	-2.954711e-09	-2.603188e+01	-1.930134e+02
2.730000e-06	-3.805284e-06	-3.083483e-09	-2.699084e+01	-2.011609e+02
2.740000e-06	-3.939116e-06	-3.204599e-09	-2.794011e+01	-2.088720e+02
2.750000e-06	-4.071530e-06	-3.316758e-09	-2.887933e+01	-2.161826e+02
2.760000e-06	-4.202539e-06	-3.419979e-09	-2.980857e+01	-2.231239e+02
2.770000e-06	-4.332156e-06	-3.517101e-09	-3.072795e+01	-2.297221e+02
2.780000e-06	-4.460292e-06	-3.610783e-09	-3.163681e+01	-2.359985e+02
2.790000e-06	-4.586917e-06	-3.701789e-09	-3.253496e+01	-2.419706e+02
2.800000e-06	-4.711930e-06	-3.789574e-09	-3.342167e+01	-2.476534e+02
2.810000e-06	-4.835222e-06	-3.873205e-09	-3.429619e+01	-2.530611e+02
2.820000e-06	-4.956847e-06	-3.953855e-09	-3.515887e+01	-2.582082e+02
2.830000e-06	-5.076673e-06	-4.029278e-09	-3.600880e+01	-2.631104e+02
2.840000e-06	-5.194462e-06	-4.099098e-09	-3.684427e+01	-2.677850e+02
2.850000e-06	-5.310114e-06	-4.165261e-09	-3.766459e+01	-2.722501e+02
2.860000e-06	-5.423574e-06	-4.229493e-09	-3.846936e+01	-2.765239e+02
2.870000e-06	-5.534832e-06	-4.292573e-09	-3.925851e+01	-2.806235e+02
2.880000e-06	-5.644075e-06	-4.352857e-09	-4.003337e+01	-2.845635e+02
2.890000e-06	-5.751461e-06	-4.411714e-09	-4.079506e+01	-2.883548e+02
2.900000e-06	-5.856854e-06	-4.469718e-09	-4.154261e+01	-2.920038e+02
2.910000e-06	-5.960075e-06	-4.526469e-09	-4.227476e+01	-2.955124e+02
2.920000e-06	-6.061032e-06	-4.580932e-09	-4.299085e+01	-2.988786e+02
2.930000e-06	-6.159817e-06	-4.632538e-09	-4.369153e+01	-3.020969e+02
2.940000e-06	-6.256526e-06	-4.680395e-09	-4.437748e+01	-3.051607e+02
