# Temperatura_=_39.65
# Concentracion g/m^3_=_5000.0
# C_Vs_to_Am_M_A/Vsm_=_65563218390.804596
# pendiente_HvsI_1/m_=_3716.3
# ordenada_HvsI_A/m_=_1297.0
# frecuencia_Hz_=_302513.71430225257

Tiempo_(s)	Campo_(V.s)	Magnetizacion_(V.s)	Campo_(kA/m)	Magnetizacion_(A/m)
0.000000e+00	-7.958604e-06	-5.280046e-09	-5.686636e+01	-3.456169e+02
1.000000e-08	-7.954339e-06	-5.278229e-09	-5.683589e+01	-3.453939e+02
2.000000e-08	-7.947555e-06	-5.274499e-09	-5.678741e+01	-3.450993e+02
3.000000e-08	-7.938048e-06	-5.270787e-09	-5.671948e+01	-3.447459e+02
4.000000e-08	-7.925617e-06	-5.265454e-09	-5.663066e+01	-3.443483e+02
5.000000e-08	-7.910240e-06	-5.258692e-09	-5.652079e+01	-3.439222e+02
6.000000e-08	-7.892228e-06	-5.250135e-09	-5.639209e+01	-3.434814e+02
7.000000e-08	-7.871996e-06	-5.241754e-09	-5.624752e+01	-3.430370e+02
8.000000e-08	-7.849192e-06	-5.263779e-09	-5.608459e+01	-3.425956e+02
9.000000e-08	-7.823182e-06	-5.282069e-09	-5.589873e+01	-3.421585e+02
1.000000e-07	-7.793919e-06	-5.263156e-09	-5.568964e+01	-3.417216e+02
1.100000e-07	-7.761822e-06	-5.234001e-09	-5.546030e+01	-3.412757e+02
1.200000e-07	-7.727009e-06	-5.211483e-09	-5.521155e+01	-3.408078e+02
1.300000e-07	-7.689696e-06	-5.176834e-09	-5.494494e+01	-3.403024e+02
1.400000e-07	-7.650309e-06	-5.127121e-09	-5.466351e+01	-3.397430e+02
1.500000e-07	-7.608718e-06	-5.164481e-09	-5.436633e+01	-3.391142e+02
1.600000e-07	-7.564442e-06	-5.170602e-09	-5.404997e+01	-3.384030e+02
1.700000e-07	-7.517440e-06	-5.122935e-09	-5.371412e+01	-3.375999e+02
1.800000e-07	-7.467618e-06	-5.148953e-09	-5.335814e+01	-3.366996e+02
1.900000e-07	-7.414762e-06	-5.118098e-09	-5.298046e+01	-3.357012e+02
2.000000e-07	-7.359117e-06	-5.076527e-09	-5.258287e+01	-3.346079e+02
2.100000e-07	-7.300765e-06	-5.054304e-09	-5.216592e+01	-3.334259e+02
2.200000e-07	-7.239737e-06	-5.018761e-09	-5.172987e+01	-3.321635e+02
2.300000e-07	-7.176146e-06	-5.013754e-09	-5.127549e+01	-3.308300e+02
2.400000e-07	-7.109813e-06	-5.004843e-09	-5.080152e+01	-3.294341e+02
2.500000e-07	-7.040788e-06	-5.002998e-09	-5.030832e+01	-3.279833e+02
2.600000e-07	-6.969114e-06	-4.980834e-09	-4.979619e+01	-3.264828e+02
2.700000e-07	-6.894646e-06	-4.940169e-09	-4.926410e+01	-3.249356e+02
2.800000e-07	-6.817379e-06	-4.899976e-09	-4.871200e+01	-3.233418e+02
2.900000e-07	-6.737286e-06	-4.888889e-09	-4.813972e+01	-3.216994e+02
3.000000e-07	-6.654656e-06	-4.887056e-09	-4.754931e+01	-3.200044e+02
3.100000e-07	-6.569813e-06	-4.847345e-09	-4.694307e+01	-3.182519e+02
3.200000e-07	-6.482713e-06	-4.819291e-09	-4.632073e+01	-3.164365e+02
3.300000e-07	-6.393282e-06	-4.791032e-09	-4.568171e+01	-3.145528e+02
3.400000e-07	-6.301560e-06	-4.749241e-09	-4.502634e+01	-3.125963e+02
3.500000e-07	-6.207605e-06	-4.716033e-09	-4.435501e+01	-3.105633e+02
3.600000e-07	-6.111375e-06	-4.698368e-09	-4.366741e+01	-3.084513e+02
3.700000e-07	-6.012833e-06	-4.672533e-09	-4.296331e+01	-3.062589e+02
3.800000e-07	-5.912112e-06	-4.626568e-09	-4.224363e+01	-3.039858e+02
3.900000e-07	-5.809305e-06	-4.591445e-09	-4.150905e+01	-3.016321e+02
4.000000e-07	-5.704483e-06	-4.557598e-09	-4.076006e+01	-2.991984e+02
4.100000e-07	-5.597657e-06	-4.516271e-09	-3.999676e+01	-2.966853e+02
4.200000e-07	-5.488779e-06	-4.469336e-09	-3.921880e+01	-2.940933e+02
4.300000e-07	-5.378004e-06	-4.433489e-09	-3.842728e+01	-2.914225e+02
4.400000e-07	-5.265291e-06	-4.401064e-09	-3.762192e+01	-2.886724e+02
4.500000e-07	-5.150482e-06	-4.358619e-09	-3.680157e+01	-2.858420e+02
4.600000e-07	-5.033667e-06	-4.310747e-09	-3.596690e+01	-2.829297e+02
4.700000e-07	-4.914989e-06	-4.265491e-09	-3.511892e+01	-2.799330e+02
4.800000e-07	-4.794522e-06	-4.215434e-09	-3.425815e+01	-2.768492e+02
4.900000e-07	-4.672255e-06	-4.157178e-09	-3.338451e+01	-2.736748e+02
5.000000e-07	-4.548222e-06	-4.107799e-09	-3.249826e+01	-2.704060e+02
5.100000e-07	-4.422612e-06	-4.061447e-09	-3.160075e+01	-2.670385e+02
5.200000e-07	-4.295457e-06	-4.009311e-09	-3.069219e+01	-2.635680e+02
5.300000e-07	-4.166803e-06	-3.950561e-09	-2.977293e+01	-2.599903e+02
5.400000e-07	-4.036588e-06	-3.893922e-09	-2.884251e+01	-2.563012e+02
5.500000e-07	-3.904704e-06	-3.841670e-09	-2.790016e+01	-2.524970e+02
5.600000e-07	-3.771333e-06	-3.785878e-09	-2.694719e+01	-2.485747e+02
5.700000e-07	-3.636611e-06	-3.721839e-09	-2.598456e+01	-2.445318e+02
5.800000e-07	-3.500573e-06	-3.654144e-09	-2.501254e+01	-2.403666e+02
5.900000e-07	-3.363154e-06	-3.584912e-09	-2.403064e+01	-2.360778e+02
6.000000e-07	-3.224320e-06	-3.513394e-09	-2.303863e+01	-2.316646e+02
6.100000e-07	-3.084060e-06	-3.444614e-09	-2.203644e+01	-2.271256e+02
6.200000e-07	-2.942484e-06	-3.378042e-09	-2.102484e+01	-2.224593e+02
6.300000e-07	-2.799848e-06	-3.309630e-09	-2.000566e+01	-2.176628e+02
6.400000e-07	-2.656136e-06	-3.234450e-09	-1.897881e+01	-2.127317e+02
6.500000e-07	-2.511251e-06	-3.156443e-09	-1.794356e+01	-2.076600e+02
6.600000e-07	-2.365463e-06	-3.075060e-09	-1.690187e+01	-2.024397e+02
6.700000e-07	-2.218989e-06	-2.989566e-09	-1.585527e+01	-1.970611e+02
6.800000e-07	-2.071809e-06	-2.902849e-09	-1.480363e+01	-1.915134e+02
6.900000e-07	-1.924007e-06	-2.814282e-09	-1.374754e+01	-1.857850e+02
7.000000e-07	-1.775650e-06	-2.725081e-09	-1.268750e+01	-1.798647e+02
7.100000e-07	-1.626741e-06	-2.631562e-09	-1.162350e+01	-1.737420e+02
7.200000e-07	-1.477332e-06	-2.536573e-09	-1.055593e+01	-1.674082e+02
7.300000e-07	-1.327473e-06	-2.436684e-09	-9.485151e+00	-1.608564e+02
7.400000e-07	-1.177150e-06	-2.331374e-09	-8.411054e+00	-1.540820e+02
7.500000e-07	-1.026386e-06	-2.226284e-09	-7.333801e+00	-1.470818e+02
7.600000e-07	-8.752932e-07	-2.120904e-09	-6.254204e+00	-1.398533e+02
7.700000e-07	-7.239515e-07	-2.008572e-09	-5.172828e+00	-1.323934e+02
7.800000e-07	-5.723438e-07	-1.886917e-09	-4.089550e+00	-1.246970e+02
7.900000e-07	-4.205336e-07	-1.762054e-09	-3.004825e+00	-1.167553e+02
8.000000e-07	-2.685558e-07	-1.633012e-09	-1.918904e+00	-1.085543e+02
8.100000e-07	-1.164391e-07	-1.500313e-09	-8.319885e-01	-1.000743e+02
8.200000e-07	3.575872e-08	-1.365233e-09	2.555057e-01	-9.128968e+01
8.300000e-07	1.880371e-07	-1.226403e-09	1.343576e+00	-8.216940e+01
8.400000e-07	3.402489e-07	-1.079601e-09	2.431170e+00	-7.267912e+01
8.500000e-07	4.923142e-07	-9.264091e-10	3.517717e+00	-6.278374e+01
8.600000e-07	6.442662e-07	-7.694560e-10	4.603455e+00	-5.245097e+01
8.700000e-07	7.960716e-07	-6.057107e-10	5.688145e+00	-4.165532e+01
8.800000e-07	9.476367e-07	-4.330239e-10	6.771118e+00	-3.038228e+01
8.900000e-07	1.098904e-06	-2.532987e-10	7.851964e+00	-1.863216e+01
9.000000e-07	1.249803e-06	-7.152891e-11	8.930180e+00	-6.423157e+00
9.100000e-07	1.400193e-06	1.152629e-10	1.000475e+01	6.206615e+00
9.200000e-07	1.550116e-06	3.090504e-10	1.107600e+01	1.919867e+01
9.300000e-07	1.699574e-06	5.086965e-10	1.214391e+01	3.247524e+01
9.400000e-07	1.848379e-06	7.128814e-10	1.320716e+01	4.594197e+01
9.500000e-07	1.996514e-06	9.196866e-10	1.426563e+01	5.949207e+01
9.600000e-07	2.143947e-06	1.126074e-09	1.531908e+01	7.301166e+01
9.700000e-07	2.290594e-06	1.328793e-09	1.636691e+01	8.638561e+01
9.800000e-07	2.436379e-06	1.529464e-09	1.740858e+01	9.950369e+01
9.900000e-07	2.581168e-06	1.724800e-09	1.844314e+01	1.122662e+02
1.000000e-06	2.724948e-06	1.909074e-09	1.947048e+01	1.245888e+02
1.010000e-06	2.867714e-06	2.083089e-09	2.049059e+01	1.364058e+02
1.020000e-06	3.009410e-06	2.249194e-09	2.150304e+01	1.476722e+02
1.030000e-06	3.149943e-06	2.410335e-09	2.250719e+01	1.583636e+02
1.040000e-06	3.289117e-06	2.564248e-09	2.350162e+01	1.684752e+02
1.050000e-06	3.426854e-06	2.709973e-09	2.448579e+01	1.780188e+02
1.060000e-06	3.563289e-06	2.850288e-09	2.546066e+01	1.870193e+02
1.070000e-06	3.698474e-06	2.984377e-09	2.642659e+01	1.955104e+02
1.080000e-06	3.832340e-06	3.109065e-09	2.738310e+01	2.035307e+02
1.090000e-06	3.964927e-06	3.223488e-09	2.833047e+01	2.111197e+02
1.100000e-06	4.096086e-06	3.330492e-09	2.926763e+01	2.183148e+02
1.110000e-06	4.225640e-06	3.434351e-09	3.019333e+01	2.251495e+02
1.120000e-06	4.353718e-06	3.533227e-09	3.110848e+01	2.316518e+02
1.130000e-06	4.480318e-06	3.627005e-09	3.201308e+01	2.378449e+02
1.140000e-06	4.605445e-06	3.715952e-09	3.290714e+01	2.437473e+02
1.150000e-06	4.729082e-06	3.800989e-09	3.379056e+01	2.493744e+02
1.160000e-06	4.850959e-06	3.882335e-09	3.466141e+01	2.547399e+02
1.170000e-06	4.971066e-06	3.959805e-09	3.551960e+01	2.598568e+02
1.180000e-06	5.089423e-06	4.034370e-09	3.636529e+01	2.647389e+02
1.190000e-06	5.205840e-06	4.103948e-09	3.719712e+01	2.694007e+02
1.200000e-06	5.320252e-06	4.169596e-09	3.801463e+01	2.738580e+02
1.210000e-06	5.432647e-06	4.232455e-09	3.881772e+01	2.781264e+02
1.220000e-06	5.543044e-06	4.295557e-09	3.960654e+01	2.822213e+02
1.230000e-06	5.651483e-06	4.357471e-09	4.038136e+01	2.861561e+02
1.240000e-06	5.757823e-06	4.416423e-09	4.114119e+01	2.899412e+02
1.250000e-06	5.862010e-06	4.471930e-09	4.188563e+01	2.935836e+02
1.260000e-06	5.964135e-06	4.525640e-09	4.261535e+01	2.970861e+02
1.270000e-06	6.064111e-06	4.575882e-09	4.332970e+01	3.004480e+02
1.280000e-06	6.161742e-06	4.621582e-09	4.402730e+01	3.036653e+02
1.290000e-06	6.257013e-06	4.665530e-09	4.470804e+01	3.067325e+02
1.300000e-06	6.350106e-06	4.706332e-09	4.537321e+01	3.096436e+02
1.310000e-06	6.440959e-06	4.743039e-09	4.602238e+01	3.123939e+02
1.320000e-06	6.529451e-06	4.778785e-09	4.665468e+01	3.149812e+02
1.330000e-06	6.615622e-06	4.816346e-09	4.727039e+01	3.174071e+02
1.340000e-06	6.699536e-06	4.852894e-09	4.786998e+01	3.196767e+02
1.350000e-06	6.781112e-06	4.886605e-09	4.845286e+01	3.217993e+02
1.360000e-06	6.860152e-06	4.918768e-09	4.901763e+01	3.237872e+02
1.370000e-06	6.936604e-06	4.949303e-09	4.956390e+01	3.256543e+02
1.380000e-06	7.010445e-06	4.977101e-09	5.009151e+01	3.274151e+02
1.390000e-06	7.081726e-06	5.001235e-09	5.060083e+01	3.290829e+02
1.400000e-06	7.150501e-06	5.025182e-09	5.109225e+01	3.306682e+02
1.410000e-06	7.216670e-06	5.049012e-09	5.156504e+01	3.321781e+02
1.420000e-06	7.280253e-06	5.071367e-09	5.201936e+01	3.336157e+02
1.430000e-06	7.341414e-06	5.093667e-09	5.245638e+01	3.349803e+02
1.440000e-06	7.400046e-06	5.114106e-09	5.287532e+01	3.362679e+02
1.450000e-06	7.456001e-06	5.131092e-09	5.327513e+01	3.374729e+02
1.460000e-06	7.509210e-06	5.146823e-09	5.365532e+01	3.385890e+02
1.470000e-06	7.559361e-06	5.162151e-09	5.401367e+01	3.396111e+02
1.480000e-06	7.606511e-06	5.177082e-09	5.435056e+01	3.405365e+02
1.490000e-06	7.651073e-06	5.191811e-09	5.466897e+01	3.413657e+02
1.500000e-06	7.692903e-06	5.204389e-09	5.496786e+01	3.421030e+02
1.510000e-06	7.731854e-06	5.215200e-09	5.524617e+01	3.427563e+02
1.520000e-06	7.768192e-06	5.225597e-09	5.550582e+01	3.433358e+02
1.530000e-06	7.801770e-06	5.234649e-09	5.574574e+01	3.438534e+02
1.540000e-06	7.832500e-06	5.242792e-09	5.596531e+01	3.443209e+02
1.550000e-06	7.860594e-06	5.252055e-09	5.616605e+01	3.447482e+02
1.560000e-06	7.885835e-06	5.260470e-09	5.634641e+01	3.451424e+02
1.570000e-06	7.908144e-06	5.267249e-09	5.650581e+01	3.455063e+02
1.580000e-06	7.927730e-06	5.272431e-09	5.664576e+01	3.458386e+02
1.590000e-06	7.944456e-06	5.276544e-09	5.676527e+01	3.461339e+02
1.600000e-06	7.958174e-06	5.279304e-09	5.686329e+01	3.463832e+02
1.610000e-06	7.968771e-06	5.280915e-09	5.693901e+01	3.465761e+02
1.620000e-06	7.976332e-06	5.281870e-09	5.699303e+01	3.467016e+02
1.630000e-06	7.981140e-06	5.283002e-09	5.702739e+01	3.467503e+02
1.640000e-06	7.983115e-06	5.286221e-09	5.704150e+01	3.467162e+02
1.650000e-06	7.982225e-06	5.285711e-09	5.703514e+01	3.465971e+02
1.660000e-06	7.978704e-06	5.282162e-09	5.700998e+01	3.463959e+02
1.670000e-06	7.972490e-06	5.278201e-09	5.696558e+01	3.461202e+02
1.680000e-06	7.963608e-06	5.274774e-09	5.690211e+01	3.457817e+02
1.690000e-06	7.952101e-06	5.271862e-09	5.681989e+01	3.453948e+02
1.700000e-06	7.937763e-06	5.269285e-09	5.671745e+01	3.449748e+02
1.710000e-06	7.920822e-06	5.268113e-09	5.659640e+01	3.445365e+02
1.720000e-06	7.901647e-06	5.257070e-09	5.645939e+01	3.440919e+02
1.730000e-06	7.879959e-06	5.203850e-09	5.630442e+01	3.436489e+02
1.740000e-06	7.855049e-06	5.174522e-09	5.612643e+01	3.432103e+02
1.750000e-06	7.826505e-06	5.183144e-09	5.592248e+01	3.427736e+02
1.760000e-06	7.794598e-06	5.184739e-09	5.569450e+01	3.423311e+02
1.770000e-06	7.760109e-06	5.190582e-09	5.544806e+01	3.418706e+02
1.780000e-06	7.723394e-06	5.241594e-09	5.518572e+01	3.413771e+02
1.790000e-06	7.684500e-06	5.227903e-09	5.490781e+01	3.408343e+02
1.800000e-06	7.643460e-06	5.192356e-09	5.461457e+01	3.402264e+02
1.810000e-06	7.599914e-06	5.208988e-09	5.430342e+01	3.395395e+02
1.820000e-06	7.553802e-06	5.156917e-09	5.397395e+01	3.387629e+02
1.830000e-06	7.504992e-06	5.162409e-09	5.362518e+01	3.378902e+02
1.840000e-06	7.453201e-06	5.155670e-09	5.325512e+01	3.369193e+02
1.850000e-06	7.398509e-06	5.137212e-09	5.286433e+01	3.358522e+02
1.860000e-06	7.340938e-06	5.155297e-09	5.245297e+01	3.346943e+02
1.870000e-06	7.280846e-06	5.094501e-09	5.202360e+01	3.334536e+02
1.880000e-06	7.218183e-06	5.072106e-09	5.157585e+01	3.321390e+02
1.890000e-06	7.152616e-06	5.039150e-09	5.110736e+01	3.307597e+02
1.900000e-06	7.084246e-06	4.996157e-09	5.061884e+01	3.293235e+02
1.910000e-06	7.013030e-06	5.012668e-09	5.010998e+01	3.278364e+02
1.920000e-06	6.939145e-06	4.997526e-09	4.958205e+01	3.263020e+02
1.930000e-06	6.862587e-06	4.979100e-09	4.903503e+01	3.247212e+02
1.940000e-06	6.783264e-06	4.933492e-09	4.846824e+01	3.230926e+02
1.950000e-06	6.701415e-06	4.897192e-09	4.788341e+01	3.214127e+02
1.960000e-06	6.617185e-06	4.878620e-09	4.728157e+01	3.196768e+02
1.970000e-06	6.530482e-06	4.840221e-09	4.666204e+01	3.178795e+02
1.980000e-06	6.441284e-06	4.831773e-09	4.602470e+01	3.160154e+02
1.990000e-06	6.349938e-06	4.807697e-09	4.537201e+01	3.140797e+02
2.000000e-06	6.256424e-06	4.762282e-09	4.470383e+01	3.120684e+02
2.010000e-06	6.160600e-06	4.717471e-09	4.401914e+01	3.099787e+02
2.020000e-06	6.062525e-06	4.686629e-09	4.331837e+01	3.078090e+02
2.030000e-06	5.962306e-06	4.659623e-09	4.260228e+01	3.055586e+02
2.040000e-06	5.859995e-06	4.625249e-09	4.187124e+01	3.032274e+02
2.050000e-06	5.755567e-06	4.600264e-09	4.112507e+01	3.008160e+02
2.060000e-06	5.649181e-06	4.565574e-09	4.036491e+01	2.983251e+02
2.070000e-06	5.540920e-06	4.519060e-09	3.959136e+01	2.957553e+02
2.080000e-06	5.430718e-06	4.465840e-09	3.880394e+01	2.931066e+02
2.090000e-06	5.318413e-06	4.427963e-09	3.800149e+01	2.903788e+02
2.100000e-06	5.204063e-06	4.393893e-09	3.718443e+01	2.875711e+02
2.110000e-06	5.087812e-06	4.348836e-09	3.635378e+01	2.846820e+02
2.120000e-06	4.969577e-06	4.301186e-09	3.550896e+01	2.817093e+02
2.130000e-06	4.849382e-06	4.254282e-09	3.465013e+01	2.786503e+02
2.140000e-06	4.727412e-06	4.208009e-09	3.377863e+01	2.755017e+02
2.150000e-06	4.603786e-06	4.157531e-09	3.289528e+01	2.722598e+02
2.160000e-06	4.478542e-06	4.109546e-09	3.200038e+01	2.689206e+02
2.170000e-06	4.351635e-06	4.062084e-09	3.109360e+01	2.654796e+02
2.180000e-06	4.223052e-06	4.011427e-09	3.017484e+01	2.619325e+02
2.190000e-06	4.092926e-06	3.952538e-09	2.924506e+01	2.582752e+02
2.200000e-06	3.961345e-06	3.891440e-09	2.830487e+01	2.545038e+02
2.210000e-06	3.828383e-06	3.829034e-09	2.735482e+01	2.506151e+02
2.220000e-06	3.693905e-06	3.765933e-09	2.639394e+01	2.466064e+02
2.230000e-06	3.557867e-06	3.703536e-09	2.542191e+01	2.424759e+02
2.240000e-06	3.420458e-06	3.644628e-09	2.444009e+01	2.382221e+02
2.250000e-06	3.281884e-06	3.584123e-09	2.344994e+01	2.338441e+02
2.260000e-06	3.142125e-06	3.515127e-09	2.245133e+01	2.293408e+02
2.270000e-06	3.001145e-06	3.438734e-09	2.144398e+01	2.247107e+02
2.280000e-06	2.858943e-06	3.360839e-09	2.042791e+01	2.199513e+02
2.290000e-06	2.715475e-06	3.285572e-09	1.940280e+01	2.150588e+02
2.300000e-06	2.570990e-06	3.211488e-09	1.837041e+01	2.100276e+02
2.310000e-06	2.425700e-06	3.139571e-09	1.733227e+01	2.048502e+02
2.320000e-06	2.279661e-06	3.062129e-09	1.628879e+01	1.995175e+02
2.330000e-06	2.132894e-06	2.974547e-09	1.524010e+01	1.940189e+02
2.340000e-06	1.985386e-06	2.879268e-09	1.418612e+01	1.883429e+02
2.350000e-06	1.837158e-06	2.786110e-09	1.312699e+01	1.824781e+02
2.360000e-06	1.688373e-06	2.696700e-09	1.206388e+01	1.764138e+02
2.370000e-06	1.539158e-06	2.604614e-09	1.099770e+01	1.701407e+02
2.380000e-06	1.389504e-06	2.508866e-09	9.928381e+00	1.636513e+02
2.390000e-06	1.239382e-06	2.408133e-09	8.855718e+00	1.569405e+02
2.400000e-06	1.088866e-06	2.299651e-09	7.780237e+00	1.500046e+02
2.410000e-06	9.379665e-07	2.187380e-09	6.702022e+00	1.428412e+02
2.420000e-06	7.866330e-07	2.073508e-09	5.620704e+00	1.354474e+02
2.430000e-06	6.349081e-07	1.958141e-09	4.536589e+00	1.278189e+02
2.440000e-06	4.829232e-07	1.839964e-09	3.450616e+00	1.199480e+02
2.450000e-06	3.307626e-07	1.719690e-09	2.363388e+00	1.118224e+02
2.460000e-06	1.784269e-07	1.595258e-09	1.274908e+00	1.034241e+02
2.470000e-06	2.602428e-08	1.462175e-09	1.859505e-01	9.472904e+01
2.480000e-06	-1.263985e-07	1.322220e-09	-9.031515e-01	8.570763e+01
2.490000e-06	-2.787911e-07	1.177750e-09	-1.992037e+00	7.632626e+01
2.500000e-06	-4.311235e-07	1.029059e-09	-3.080493e+00	6.654969e+01
2.510000e-06	-5.833596e-07	8.752065e-10	-4.168261e+00	5.634445e+01
2.520000e-06	-7.353682e-07	7.152164e-10	-5.254403e+00	4.568267e+01
2.530000e-06	-8.871154e-07	5.445420e-10	-6.338677e+00	3.454630e+01
2.540000e-06	-1.038534e-06	3.644654e-10	-7.420603e+00	2.293104e+01
2.550000e-06	-1.189440e-06	1.792548e-10	-8.498867e+00	1.084973e+01
2.560000e-06	-1.339790e-06	-1.027294e-11	-9.573162e+00	-1.665321e+00
2.570000e-06	-1.489662e-06	-2.058889e-10	-1.064404e+01	-1.456142e+01
2.580000e-06	-1.639033e-06	-4.089584e-10	-1.171133e+01	-2.776608e+01
2.590000e-06	-1.787839e-06	-6.169046e-10	-1.277459e+01	-4.118934e+01
2.600000e-06	-1.936055e-06	-8.287365e-10	-1.383363e+01	-5.472746e+01
2.610000e-06	-2.083571e-06	-1.040971e-09	-1.488767e+01	-6.826799e+01
2.620000e-06	-2.230252e-06	-1.252540e-09	-1.593575e+01	-8.169554e+01
2.630000e-06	-2.376099e-06	-1.459605e-09	-1.697786e+01	-9.489788e+01
2.640000e-06	-2.521112e-06	-1.658878e-09	-1.801402e+01	-1.077718e+02
2.650000e-06	-2.665188e-06	-1.849940e-09	-1.904349e+01	-1.202281e+02
2.660000e-06	-2.808125e-06	-2.029053e-09	-2.006481e+01	-1.321955e+02
2.670000e-06	-2.949832e-06	-2.198818e-09	-2.107734e+01	-1.436229e+02
2.680000e-06	-3.090373e-06	-2.360048e-09	-2.208154e+01	-1.544803e+02
2.690000e-06	-3.229756e-06	-2.515389e-09	-2.307747e+01	-1.647575e+02
2.700000e-06	-3.367921e-06	-2.664543e-09	-2.406470e+01	-1.744617e+02
2.710000e-06	-3.504887e-06	-2.805848e-09	-2.504336e+01	-1.836147e+02
2.720000e-06	-3.640541e-06	-2.941428e-09	-2.601265e+01	-1.922479e+02
2.730000e-06	-3.774709e-06	-3.071077e-09	-2.697131e+01	-2.003991e+02
2.740000e-06	-3.907555e-06	-3.193681e-09	-2.792053e+01	-2.081078e+02
2.750000e-06	-4.039142e-06	-3.306493e-09	-2.886076e+01	-2.154123e+02
2.760000e-06	-4.169304e-06	-3.409262e-09	-2.979079e+01	-2.223472e+02
2.770000e-06	-4.298044e-06	-3.504945e-09	-3.071068e+01	-2.289423e+02
2.780000e-06	-4.425226e-06	-3.596639e-09	-3.161943e+01	-2.352221e+02
2.790000e-06	-4.550820e-06	-3.686703e-09	-3.251683e+01	-2.412063e+02
2.800000e-06	-4.674995e-06	-3.774893e-09	-3.340409e+01	-2.469111e+02
2.810000e-06	-4.797509e-06	-3.858796e-09	-3.427949e+01	-2.523504e+02
2.820000e-06	-4.918218e-06	-3.939238e-09	-3.514199e+01	-2.575374e+02
2.830000e-06	-5.037085e-06	-4.016138e-09	-3.599132e+01	-2.624855e+02
2.840000e-06	-5.153973e-06	-4.088018e-09	-3.682652e+01	-2.672092e+02
2.850000e-06	-5.268748e-06	-4.155361e-09	-3.764662e+01	-2.717237e+02
2.860000e-06	-5.381318e-06	-4.220035e-09	-3.845096e+01	-2.760449e+02
2.870000e-06	-5.491824e-06	-4.283628e-09	-3.924056e+01	-2.801883e+02
2.880000e-06	-5.600419e-06	-4.345152e-09	-4.001649e+01	-2.841680e+02
2.890000e-06	-5.707156e-06	-4.406086e-09	-4.077916e+01	-2.879955e+02
2.900000e-06	-5.811867e-06	-4.466924e-09	-4.152735e+01	-2.916786e+02
2.910000e-06	-5.914352e-06	-4.524480e-09	-4.225963e+01	-2.952214e+02
2.920000e-06	-6.014605e-06	-4.576869e-09	-4.297596e+01	-2.986242e+02
2.930000e-06	-6.112768e-06	-4.625631e-09	-4.367737e+01	-3.018837e+02
2.940000e-06	-6.208787e-06	-4.673868e-09	-4.436345e+01	-3.049948e+02
