# Temperatura_=_30.8
# Concentracion g/m^3_=_5000.0
# C_Vs_to_Am_M_A/Vsm_=_65563218390.804596
# pendiente_HvsI_1/m_=_3716.3
# ordenada_HvsI_A/m_=_1297.0
# frecuencia_Hz_=_302515.59434737824

Tiempo_(s)	Campo_(V.s)	Magnetizacion_(V.s)	Campo_(kA/m)	Magnetizacion_(A/m)
0.000000e+00	-8.042240e-06	-5.494659e-09	-5.686757e+01	-3.599706e+02
1.000000e-08	-8.038500e-06	-5.497484e-09	-5.684112e+01	-3.597362e+02
2.000000e-08	-8.032174e-06	-5.491816e-09	-5.679639e+01	-3.594393e+02
3.000000e-08	-8.023146e-06	-5.487044e-09	-5.673255e+01	-3.590933e+02
4.000000e-08	-8.011253e-06	-5.484767e-09	-5.664845e+01	-3.587125e+02
5.000000e-08	-7.996320e-06	-5.480265e-09	-5.654286e+01	-3.583110e+02
6.000000e-08	-7.978590e-06	-5.469938e-09	-5.641749e+01	-3.579007e+02
7.000000e-08	-7.958611e-06	-5.456970e-09	-5.627621e+01	-3.574898e+02
8.000000e-08	-7.936205e-06	-5.466707e-09	-5.611778e+01	-3.570822e+02
9.000000e-08	-7.910643e-06	-5.536191e-09	-5.593703e+01	-3.566765e+02
1.000000e-07	-7.881763e-06	-5.505441e-09	-5.573281e+01	-3.562668e+02
1.100000e-07	-7.849978e-06	-5.436420e-09	-5.550806e+01	-3.558428e+02
1.200000e-07	-7.815412e-06	-5.429971e-09	-5.526364e+01	-3.553915e+02
1.300000e-07	-7.778258e-06	-5.417734e-09	-5.500092e+01	-3.548985e+02
1.400000e-07	-7.738879e-06	-5.359070e-09	-5.472247e+01	-3.543497e+02
1.500000e-07	-7.697237e-06	-5.322740e-09	-5.442801e+01	-3.537326e+02
1.600000e-07	-7.653042e-06	-5.454158e-09	-5.411551e+01	-3.530377e+02
1.700000e-07	-7.606150e-06	-5.350069e-09	-5.378392e+01	-3.522589e+02
1.800000e-07	-7.556417e-06	-5.304534e-09	-5.343226e+01	-3.513938e+02
1.900000e-07	-7.503634e-06	-5.390249e-09	-5.305902e+01	-3.504437e+02
2.000000e-07	-7.447908e-06	-5.289781e-09	-5.266498e+01	-3.494123e+02
2.100000e-07	-7.389443e-06	-5.299557e-09	-5.225157e+01	-3.483052e+02
2.200000e-07	-7.328370e-06	-5.276197e-09	-5.181971e+01	-3.471287e+02
2.300000e-07	-7.264672e-06	-5.259560e-09	-5.136930e+01	-3.458887e+02
2.400000e-07	-7.198150e-06	-5.240835e-09	-5.089891e+01	-3.445900e+02
2.500000e-07	-7.128914e-06	-5.198807e-09	-5.040934e+01	-3.432357e+02
2.600000e-07	-7.056952e-06	-5.221473e-09	-4.990049e+01	-3.418267e+02
2.700000e-07	-6.982146e-06	-5.177518e-09	-4.937153e+01	-3.403626e+02
2.800000e-07	-6.904537e-06	-5.135753e-09	-4.882275e+01	-3.388413e+02
2.900000e-07	-6.824114e-06	-5.097905e-09	-4.825406e+01	-3.372599e+02
3.000000e-07	-6.741194e-06	-5.107500e-09	-4.766772e+01	-3.356153e+02
3.100000e-07	-6.656081e-06	-5.101252e-09	-4.706588e+01	-3.339045e+02
3.200000e-07	-6.568657e-06	-5.036225e-09	-4.644770e+01	-3.321255e+02
3.300000e-07	-6.478799e-06	-5.032274e-09	-4.581230e+01	-3.302768e+02
3.400000e-07	-6.386608e-06	-4.997354e-09	-4.516041e+01	-3.283575e+02
3.500000e-07	-6.292170e-06	-4.960245e-09	-4.449263e+01	-3.263675e+02
3.600000e-07	-6.195432e-06	-4.925878e-09	-4.380858e+01	-3.243065e+02
3.700000e-07	-6.096368e-06	-4.910235e-09	-4.310809e+01	-3.221740e+02
3.800000e-07	-5.995127e-06	-4.884700e-09	-4.239221e+01	-3.199688e+02
3.900000e-07	-5.891756e-06	-4.827246e-09	-4.166126e+01	-3.176887e+02
4.000000e-07	-5.786231e-06	-4.790736e-09	-4.091508e+01	-3.153310e+02
4.100000e-07	-5.678662e-06	-4.752336e-09	-4.015445e+01	-3.128919e+02
4.200000e-07	-5.569101e-06	-4.725627e-09	-3.937973e+01	-3.103673e+02
4.300000e-07	-5.457510e-06	-4.674213e-09	-3.859065e+01	-3.077531e+02
4.400000e-07	-5.343845e-06	-4.634947e-09	-3.778692e+01	-3.050458e+02
4.500000e-07	-5.228063e-06	-4.599857e-09	-3.696821e+01	-3.022423e+02
4.600000e-07	-5.110315e-06	-4.558339e-09	-3.613560e+01	-2.993408e+02
4.700000e-07	-4.990738e-06	-4.510378e-09	-3.529006e+01	-2.963400e+02
4.800000e-07	-4.869393e-06	-4.460912e-09	-3.443201e+01	-2.932399e+02
4.900000e-07	-4.746278e-06	-4.413513e-09	-3.356146e+01	-2.900403e+02
5.000000e-07	-4.621419e-06	-4.354330e-09	-3.267856e+01	-2.867414e+02
5.100000e-07	-4.494916e-06	-4.302217e-09	-3.178404e+01	-2.833425e+02
5.200000e-07	-4.366774e-06	-4.250552e-09	-3.087794e+01	-2.798421e+02
5.300000e-07	-4.237078e-06	-4.199024e-09	-2.996085e+01	-2.762374e+02
5.400000e-07	-4.105711e-06	-4.133722e-09	-2.903194e+01	-2.725243e+02
5.500000e-07	-3.972786e-06	-4.071382e-09	-2.809201e+01	-2.686975e+02
5.600000e-07	-3.838424e-06	-4.015991e-09	-2.714192e+01	-2.647512e+02
5.700000e-07	-3.702529e-06	-3.956954e-09	-2.618099e+01	-2.606793e+02
5.800000e-07	-3.565248e-06	-3.895503e-09	-2.521026e+01	-2.564758e+02
5.900000e-07	-3.426517e-06	-3.830525e-09	-2.422928e+01	-2.521358e+02
6.000000e-07	-3.286205e-06	-3.762190e-09	-2.323712e+01	-2.476552e+02
6.100000e-07	-3.144503e-06	-3.684912e-09	-2.223513e+01	-2.430313e+02
6.200000e-07	-3.001628e-06	-3.610418e-09	-2.122485e+01	-2.382620e+02
6.300000e-07	-2.857580e-06	-3.537336e-09	-2.020626e+01	-2.333457e+02
6.400000e-07	-2.712374e-06	-3.460388e-09	-1.917950e+01	-2.282805e+02
6.500000e-07	-2.566271e-06	-3.378105e-09	-1.814638e+01	-2.230638e+02
6.600000e-07	-2.419370e-06	-3.293602e-09	-1.710763e+01	-2.176908e+02
6.700000e-07	-2.271717e-06	-3.209665e-09	-1.606356e+01	-2.121550e+02
6.800000e-07	-2.123338e-06	-3.124508e-09	-1.501436e+01	-2.064476e+02
6.900000e-07	-1.974311e-06	-3.038582e-09	-1.396057e+01	-2.005576e+02
7.000000e-07	-1.824705e-06	-2.944751e-09	-1.290269e+01	-1.944725e+02
7.100000e-07	-1.674500e-06	-2.846752e-09	-1.184057e+01	-1.881793e+02
7.200000e-07	-1.523681e-06	-2.745636e-09	-1.077412e+01	-1.816652e+02
7.300000e-07	-1.372261e-06	-2.643265e-09	-9.703406e+00	-1.749189e+02
7.400000e-07	-1.220321e-06	-2.534512e-09	-8.629026e+00	-1.679312e+02
7.500000e-07	-1.067993e-06	-2.421551e-09	-7.551898e+00	-1.606955e+02
7.600000e-07	-9.153328e-07	-2.312147e-09	-6.472419e+00	-1.532074e+02
7.700000e-07	-7.623965e-07	-2.197254e-09	-5.390990e+00	-1.454644e+02
7.800000e-07	-6.092600e-07	-2.074951e-09	-4.308145e+00	-1.374642e+02
7.900000e-07	-4.558876e-07	-1.948828e-09	-3.223632e+00	-1.292036e+02
8.000000e-07	-3.023364e-07	-1.820718e-09	-2.137854e+00	-1.206763e+02
8.100000e-07	-1.486553e-07	-1.682732e-09	-1.051158e+00	-1.118717e+02
8.200000e-07	5.150887e-09	-1.537763e-09	3.642249e-02	-1.027736e+02
8.300000e-07	1.590079e-07	-1.391122e-09	1.124362e+00	-9.335960e+01
8.400000e-07	3.128476e-07	-1.240937e-09	2.212180e+00	-8.360215e+01
8.500000e-07	4.665984e-07	-1.085981e-09	3.299369e+00	-7.346992e+01
8.600000e-07	6.201684e-07	-9.268618e-10	4.385279e+00	-6.293062e+01
8.700000e-07	7.735475e-07	-7.648297e-10	5.469840e+00	-5.195467e+01
8.800000e-07	9.267156e-07	-5.926974e-10	6.552909e+00	-4.051928e+01
8.900000e-07	1.079613e-06	-4.113749e-10	7.634066e+00	-2.861284e+01
9.000000e-07	1.232181e-06	-2.234887e-10	8.712886e+00	-1.623886e+01
9.100000e-07	1.384349e-06	-2.962544e-11	9.788888e+00	-3.419080e+00
9.200000e-07	1.536052e-06	1.709659e-10	1.086160e+01	9.804609e+00
9.300000e-07	1.687178e-06	3.763313e-10	1.193022e+01	2.336988e+01
9.400000e-07	1.837616e-06	5.840447e-10	1.299398e+01	3.719539e+01
9.500000e-07	1.987328e-06	7.932577e-10	1.405262e+01	5.118381e+01
9.600000e-07	2.136289e-06	1.001412e-09	1.510593e+01	6.522647e+01
9.700000e-07	2.284493e-06	1.209655e-09	1.615390e+01	7.920886e+01
9.800000e-07	2.431923e-06	1.419476e-09	1.719640e+01	9.301689e+01
9.900000e-07	2.578433e-06	1.629616e-09	1.823239e+01	1.065430e+02
1.000000e-06	2.723972e-06	1.832164e-09	1.926150e+01	1.196915e+02
1.010000e-06	2.868506e-06	2.024331e-09	2.028352e+01	1.323835e+02
1.020000e-06	3.011879e-06	2.207032e-09	2.129733e+01	1.445592e+02
1.030000e-06	3.154050e-06	2.380563e-09	2.230264e+01	1.561794e+02
1.040000e-06	3.295054e-06	2.546740e-09	2.329969e+01	1.672255e+02
1.050000e-06	3.434782e-06	2.703495e-09	2.428772e+01	1.776964e+02
1.060000e-06	3.573127e-06	2.852785e-09	2.526597e+01	1.876067e+02
1.070000e-06	3.710085e-06	2.995761e-09	2.623442e+01	1.969814e+02
1.080000e-06	3.845615e-06	3.134114e-09	2.719277e+01	2.058527e+02
1.090000e-06	3.979733e-06	3.264554e-09	2.814113e+01	2.142556e+02
1.100000e-06	4.112487e-06	3.386409e-09	2.907985e+01	2.222245e+02
1.110000e-06	4.243743e-06	3.502253e-09	3.000797e+01	2.297908e+02
1.120000e-06	4.373461e-06	3.612724e-09	3.092523e+01	2.369819e+02
1.130000e-06	4.501695e-06	3.717113e-09	3.183198e+01	2.438201e+02
1.140000e-06	4.628378e-06	3.813456e-09	3.272777e+01	2.503241e+02
1.150000e-06	4.753486e-06	3.905498e-09	3.361242e+01	2.565093e+02
1.160000e-06	4.876949e-06	3.993730e-09	3.448545e+01	2.623899e+02
1.170000e-06	4.998699e-06	4.077468e-09	3.534635e+01	2.679799e+02
1.180000e-06	5.118693e-06	4.157096e-09	3.619485e+01	2.732948e+02
1.190000e-06	5.236807e-06	4.235276e-09	3.703004e+01	2.783514e+02
1.200000e-06	5.352945e-06	4.310610e-09	3.785127e+01	2.831683e+02
1.210000e-06	5.466985e-06	4.381703e-09	3.865766e+01	2.877651e+02
1.220000e-06	5.578854e-06	4.449878e-09	3.944869e+01	2.921614e+02
1.230000e-06	5.688694e-06	4.514675e-09	4.022538e+01	2.963753e+02
1.240000e-06	5.796560e-06	4.575981e-09	4.098811e+01	3.004218e+02
1.250000e-06	5.902405e-06	4.633481e-09	4.173655e+01	3.043124e+02
1.260000e-06	6.006094e-06	4.689417e-09	4.246976e+01	3.080536e+02
1.270000e-06	6.107496e-06	4.743645e-09	4.318678e+01	3.116475e+02
1.280000e-06	6.206621e-06	4.793980e-09	4.388770e+01	3.150922e+02
1.290000e-06	6.303368e-06	4.841619e-09	4.457181e+01	3.183826e+02
1.300000e-06	6.397796e-06	4.887951e-09	4.523952e+01	3.215126e+02
1.310000e-06	6.489996e-06	4.931005e-09	4.589148e+01	3.244761e+02
1.320000e-06	6.579873e-06	4.970691e-09	4.652701e+01	3.272691e+02
1.330000e-06	6.667356e-06	5.011535e-09	4.714561e+01	3.298909e+02
1.340000e-06	6.752484e-06	5.050100e-09	4.774756e+01	3.323444e+02
1.350000e-06	6.835326e-06	5.085635e-09	4.833335e+01	3.346371e+02
1.360000e-06	6.915720e-06	5.116314e-09	4.890182e+01	3.367798e+02
1.370000e-06	6.993544e-06	5.144300e-09	4.945212e+01	3.387861e+02
1.380000e-06	7.068770e-06	5.174022e-09	4.998405e+01	3.406705e+02
1.390000e-06	7.141296e-06	5.202052e-09	5.049689e+01	3.424473e+02
1.400000e-06	7.211263e-06	5.230237e-09	5.099164e+01	3.441289e+02
1.410000e-06	7.278760e-06	5.256831e-09	5.146892e+01	3.457246e+02
1.420000e-06	7.343578e-06	5.282384e-09	5.192725e+01	3.472401e+02
1.430000e-06	7.405780e-06	5.305756e-09	5.236709e+01	3.486772e+02
1.440000e-06	7.465558e-06	5.325388e-09	5.278979e+01	3.500343e+02
1.450000e-06	7.522754e-06	5.343407e-09	5.319422e+01	3.513077e+02
1.460000e-06	7.577201e-06	5.359620e-09	5.357922e+01	3.524927e+02
1.470000e-06	7.628728e-06	5.375698e-09	5.394358e+01	3.535849e+02
1.480000e-06	7.677146e-06	5.392037e-09	5.428595e+01	3.545816e+02
1.490000e-06	7.722669e-06	5.407934e-09	5.460784e+01	3.554830e+02
1.500000e-06	7.765517e-06	5.421530e-09	5.491082e+01	3.562921e+02
1.510000e-06	7.805574e-06	5.431987e-09	5.519408e+01	3.570150e+02
1.520000e-06	7.842851e-06	5.442064e-09	5.545767e+01	3.576604e+02
1.530000e-06	7.877364e-06	5.453489e-09	5.570171e+01	3.582378e+02
1.540000e-06	7.909024e-06	5.464762e-09	5.592558e+01	3.587572e+02
1.550000e-06	7.937933e-06	5.475431e-09	5.613000e+01	3.592266e+02
1.560000e-06	7.964017e-06	5.484569e-09	5.631445e+01	3.596517e+02
1.570000e-06	7.987135e-06	5.491187e-09	5.647791e+01	3.600349e+02
1.580000e-06	8.007456e-06	5.496801e-09	5.662160e+01	3.603746e+02
1.590000e-06	8.024995e-06	5.500932e-09	5.674562e+01	3.606661e+02
1.600000e-06	8.039507e-06	5.502817e-09	5.684824e+01	3.609022e+02
1.610000e-06	8.050889e-06	5.505289e-09	5.692873e+01	3.610743e+02
1.620000e-06	8.059130e-06	5.509533e-09	5.698700e+01	3.611744e+02
1.630000e-06	8.064406e-06	5.513853e-09	5.702430e+01	3.611962e+02
1.640000e-06	8.066838e-06	5.517599e-09	5.704150e+01	3.611366e+02
1.650000e-06	8.066446e-06	5.520288e-09	5.703873e+01	3.609966e+02
1.660000e-06	8.063407e-06	5.509626e-09	5.701724e+01	3.607816e+02
1.670000e-06	8.057674e-06	5.502456e-09	5.697670e+01	3.605009e+02
1.680000e-06	8.049222e-06	5.498250e-09	5.691694e+01	3.601670e+02
1.690000e-06	8.038091e-06	5.493581e-09	5.683823e+01	3.597942e+02
1.700000e-06	8.024100e-06	5.491753e-09	5.673930e+01	3.593968e+02
1.710000e-06	8.007461e-06	5.493549e-09	5.662164e+01	3.589875e+02
1.720000e-06	7.988527e-06	5.497848e-09	5.648776e+01	3.585757e+02
1.730000e-06	7.967141e-06	5.433787e-09	5.633653e+01	3.581666e+02
1.740000e-06	7.942681e-06	5.358106e-09	5.616358e+01	3.577603e+02
1.750000e-06	7.914557e-06	5.418045e-09	5.596471e+01	3.573522e+02
1.760000e-06	7.882900e-06	5.438219e-09	5.574086e+01	3.569330e+02
1.770000e-06	7.848503e-06	5.402880e-09	5.549763e+01	3.564905e+02
1.780000e-06	7.811821e-06	5.451477e-09	5.523825e+01	3.560104e+02
1.790000e-06	7.772914e-06	5.528516e-09	5.496314e+01	3.554784e+02
1.800000e-06	7.731941e-06	5.360824e-09	5.467341e+01	3.548815e+02
1.810000e-06	7.688530e-06	5.381623e-09	5.436644e+01	3.542092e+02
1.820000e-06	7.642470e-06	5.437059e-09	5.404075e+01	3.534543e+02
1.830000e-06	7.593737e-06	5.320134e-09	5.369615e+01	3.526134e+02
1.840000e-06	7.541914e-06	5.427358e-09	5.332971e+01	3.516868e+02
1.850000e-06	7.487101e-06	5.310937e-09	5.294212e+01	3.506777e+02
1.860000e-06	7.429515e-06	5.343704e-09	5.253492e+01	3.495911e+02
1.870000e-06	7.369342e-06	5.322184e-09	5.210943e+01	3.484333e+02
1.880000e-06	7.306487e-06	5.224787e-09	5.166497e+01	3.472105e+02
1.890000e-06	7.240724e-06	5.334786e-09	5.119996e+01	3.459277e+02
1.900000e-06	7.172217e-06	5.218454e-09	5.071554e+01	3.445886e+02
1.910000e-06	7.100868e-06	5.237877e-09	5.021102e+01	3.431948e+02
1.920000e-06	7.026777e-06	5.208774e-09	4.968711e+01	3.417462e+02
1.930000e-06	6.949962e-06	5.199919e-09	4.914395e+01	3.402410e+02
1.940000e-06	6.870326e-06	5.208483e-09	4.858083e+01	3.386766e+02
1.950000e-06	6.788186e-06	5.106571e-09	4.800001e+01	3.370499e+02
1.960000e-06	6.703578e-06	5.150139e-09	4.740174e+01	3.353578e+02
1.970000e-06	6.616424e-06	5.059118e-09	4.678547e+01	3.335980e+02
1.980000e-06	6.526857e-06	5.048082e-09	4.615213e+01	3.317688e+02
1.990000e-06	6.435062e-06	5.034305e-09	4.550303e+01	3.298693e+02
2.000000e-06	6.341027e-06	5.016875e-09	4.483810e+01	3.278991e+02
2.010000e-06	6.244669e-06	4.982424e-09	4.415674e+01	3.258579e+02
2.020000e-06	6.146082e-06	4.908318e-09	4.345963e+01	3.237455e+02
2.030000e-06	6.045339e-06	4.902195e-09	4.274726e+01	3.215607e+02
2.040000e-06	5.942368e-06	4.863544e-09	4.201914e+01	3.193019e+02
2.050000e-06	5.837220e-06	4.860197e-09	4.127563e+01	3.169662e+02
2.060000e-06	5.730192e-06	4.805222e-09	4.051882e+01	3.145503e+02
2.070000e-06	5.621278e-06	4.770421e-09	3.974868e+01	3.120500e+02
2.080000e-06	5.510299e-06	4.711413e-09	3.896393e+01	3.094614e+02
2.090000e-06	5.397243e-06	4.668201e-09	3.816450e+01	3.067806e+02
2.100000e-06	5.282148e-06	4.643022e-09	3.735065e+01	3.040044e+02
2.110000e-06	5.165000e-06	4.611697e-09	3.652229e+01	3.011305e+02
2.120000e-06	5.045746e-06	4.562460e-09	3.567903e+01	2.981577e+02
2.130000e-06	4.924646e-06	4.495145e-09	3.482271e+01	2.950855e+02
2.140000e-06	4.801827e-06	4.454155e-09	3.395425e+01	2.919138e+02
2.150000e-06	4.677256e-06	4.410138e-09	3.307340e+01	2.886429e+02
2.160000e-06	4.550982e-06	4.370084e-09	3.218050e+01	2.852722e+02
2.170000e-06	4.422975e-06	4.307489e-09	3.127535e+01	2.818006e+02
2.180000e-06	4.293343e-06	4.255582e-09	3.035870e+01	2.782256e+02
2.190000e-06	4.162196e-06	4.195267e-09	2.943135e+01	2.745434e+02
2.200000e-06	4.029524e-06	4.143221e-09	2.849321e+01	2.707493e+02
2.210000e-06	3.895423e-06	4.089510e-09	2.754497e+01	2.668373e+02
2.220000e-06	3.759762e-06	4.032442e-09	2.658569e+01	2.628014e+02
2.230000e-06	3.622591e-06	3.959858e-09	2.561574e+01	2.586356e+02
2.240000e-06	3.484183e-06	3.883035e-09	2.463704e+01	2.543346e+02
2.250000e-06	3.344397e-06	3.819194e-09	2.364860e+01	2.498940e+02
2.260000e-06	3.203295e-06	3.757387e-09	2.265086e+01	2.453108e+02
2.270000e-06	3.060919e-06	3.688365e-09	2.164410e+01	2.405828e+02
2.280000e-06	2.917238e-06	3.606654e-09	2.062811e+01	2.357082e+02
2.290000e-06	2.772451e-06	3.528864e-09	1.960431e+01	2.306853e+02
2.300000e-06	2.626817e-06	3.451018e-09	1.857451e+01	2.255118e+02
2.310000e-06	2.480386e-06	3.380310e-09	1.753909e+01	2.201836e+02
2.320000e-06	2.333073e-06	3.304946e-09	1.649741e+01	2.146947e+02
2.330000e-06	2.184883e-06	3.216385e-09	1.544955e+01	2.090369e+02
2.340000e-06	2.035937e-06	3.115707e-09	1.439634e+01	2.031998e+02
2.350000e-06	1.886453e-06	3.015620e-09	1.333932e+01	1.971713e+02
2.360000e-06	1.736464e-06	2.922378e-09	1.227873e+01	1.909384e+02
2.370000e-06	1.585897e-06	2.828075e-09	1.121405e+01	1.844881e+02
2.380000e-06	1.434739e-06	2.728608e-09	1.014520e+01	1.778088e+02
2.390000e-06	1.283015e-06	2.622797e-09	9.072337e+00	1.708904e+02
2.400000e-06	1.130763e-06	2.510249e-09	7.995753e+00	1.637256e+02
2.410000e-06	9.780515e-07	2.397461e-09	6.915910e+00	1.563095e+02
2.420000e-06	8.249917e-07	2.286583e-09	5.833607e+00	1.486391e+02
2.430000e-06	6.717512e-07	2.169729e-09	4.750027e+00	1.407121e+02
2.440000e-06	5.183348e-07	2.041292e-09	3.665203e+00	1.325259e+02
2.450000e-06	3.647552e-07	1.907151e-09	2.579224e+00	1.240752e+02
2.460000e-06	2.110868e-07	1.775309e-09	1.492618e+00	1.153508e+02
2.470000e-06	5.731716e-08	1.640793e-09	4.052960e-01	1.063381e+02
2.480000e-06	-9.649906e-08	1.499277e-09	-6.823555e-01	9.701652e+01
2.490000e-06	-2.503150e-07	1.351720e-09	-1.770005e+00	8.735981e+01
2.500000e-06	-4.040797e-07	1.197704e-09	-2.857292e+00	7.733751e+01
2.510000e-06	-5.577444e-07	1.038792e-09	-3.943872e+00	6.691726e+01
2.520000e-06	-7.112546e-07	8.750852e-10	-5.029360e+00	5.606831e+01
2.530000e-06	-8.645555e-07	7.034734e-10	-6.113368e+00	4.476547e+01
2.540000e-06	-1.017618e-06	5.220934e-10	-7.195690e+00	3.299353e+01
2.550000e-06	-1.170334e-06	3.322052e-10	-8.275562e+00	2.075129e+01
2.560000e-06	-1.322634e-06	1.356974e-10	-9.352488e+00	8.055044e+00
2.570000e-06	-1.474438e-06	-6.532433e-11	-1.042591e+01	-5.059184e+00
2.580000e-06	-1.625621e-06	-2.708196e-10	-1.149494e+01	-1.853484e+01
2.590000e-06	-1.776062e-06	-4.818109e-10	-1.255873e+01	-3.229576e+01
2.600000e-06	-1.925808e-06	-6.977365e-10	-1.361760e+01	-4.624880e+01
2.610000e-06	-2.074984e-06	-9.166013e-10	-1.467244e+01	-6.028796e+01
2.620000e-06	-2.223466e-06	-1.135720e-09	-1.572237e+01	-7.429981e+01
2.630000e-06	-2.370985e-06	-1.351369e-09	-1.676550e+01	-8.816950e+01
2.640000e-06	-2.517520e-06	-1.562755e-09	-1.780166e+01	-1.017870e+02
2.650000e-06	-2.663183e-06	-1.769061e-09	-1.883166e+01	-1.150527e+02
2.660000e-06	-2.807880e-06	-1.964735e-09	-1.985483e+01	-1.278826e+02
2.670000e-06	-2.951502e-06	-2.150000e-09	-2.087040e+01	-1.402111e+02
2.680000e-06	-3.093909e-06	-2.326153e-09	-2.187737e+01	-1.519933e+02
2.690000e-06	-3.235117e-06	-2.494618e-09	-2.287587e+01	-1.632047e+02
2.700000e-06	-3.375116e-06	-2.656030e-09	-2.386582e+01	-1.738396e+02
2.710000e-06	-3.513772e-06	-2.811137e-09	-2.484627e+01	-1.839083e+02
2.720000e-06	-3.651100e-06	-2.960731e-09	-2.581733e+01	-1.934334e+02
2.730000e-06	-3.787086e-06	-3.101733e-09	-2.677890e+01	-2.024456e+02
2.740000e-06	-3.921668e-06	-3.234312e-09	-2.773055e+01	-2.109791e+02
2.750000e-06	-4.054916e-06	-3.359719e-09	-2.867276e+01	-2.190691e+02
2.760000e-06	-4.186732e-06	-3.476661e-09	-2.960484e+01	-2.267480e+02
2.770000e-06	-4.317016e-06	-3.585936e-09	-3.052610e+01	-2.340442e+02
2.780000e-06	-4.445876e-06	-3.689811e-09	-3.143728e+01	-2.409817e+02
2.790000e-06	-4.573195e-06	-3.790579e-09	-3.233756e+01	-2.475799e+02
2.800000e-06	-4.698943e-06	-3.887632e-09	-3.322675e+01	-2.538552e+02
2.810000e-06	-4.823026e-06	-3.979280e-09	-3.410415e+01	-2.598219e+02
2.820000e-06	-4.945354e-06	-4.066197e-09	-3.496914e+01	-2.654939e+02
2.830000e-06	-5.065945e-06	-4.148966e-09	-3.582185e+01	-2.708862e+02
2.840000e-06	-5.184642e-06	-4.227804e-09	-3.666118e+01	-2.760152e+02
2.850000e-06	-5.301243e-06	-4.301120e-09	-3.748568e+01	-2.808991e+02
2.860000e-06	-5.415595e-06	-4.369887e-09	-3.829427e+01	-2.855572e+02
2.870000e-06	-5.527684e-06	-4.437319e-09	-3.908686e+01	-2.900094e+02
2.880000e-06	-5.637655e-06	-4.503914e-09	-3.986448e+01	-2.942741e+02
2.890000e-06	-5.745697e-06	-4.568818e-09	-4.062846e+01	-2.983676e+02
2.900000e-06	-5.851873e-06	-4.631470e-09	-4.137924e+01	-3.023023e+02
2.910000e-06	-5.955931e-06	-4.690849e-09	-4.211505e+01	-3.060862e+02
2.920000e-06	-6.057674e-06	-4.747717e-09	-4.283448e+01	-3.097227e+02
2.930000e-06	-6.157190e-06	-4.802146e-09	-4.353817e+01	-3.132109e+02
2.940000e-06	-6.254592e-06	-4.853667e-09	-4.422691e+01	-3.165465e+02
