# Temperatura_=_42.13
# Concentracion g/m^3_=_5000.0
# C_Vs_to_Am_M_A/Vsm_=_65563218390.804596
# pendiente_HvsI_1/m_=_3716.3
# ordenada_HvsI_A/m_=_1297.0
# frecuencia_Hz_=_302511.35273216997

Tiempo_(s)	Campo_(V.s)	Magnetizacion_(V.s)	Campo_(kA/m)	Magnetizacion_(A/m)
0.000000e+00	-8.018595e-06	-5.440084e-09	-5.686242e+01	-3.557394e+02
1.000000e-08	-8.014364e-06	-5.439224e-09	-5.683241e+01	-3.555039e+02
2.000000e-08	-8.007586e-06	-5.435924e-09	-5.678435e+01	-3.551951e+02
3.000000e-08	-7.998062e-06	-5.430416e-09	-5.671681e+01	-3.548258e+02
4.000000e-08	-7.985614e-06	-5.424456e-09	-5.662854e+01	-3.544110e+02
5.000000e-08	-7.970153e-06	-5.417429e-09	-5.651890e+01	-3.539661e+02
6.000000e-08	-7.952008e-06	-5.411118e-09	-5.639023e+01	-3.535055e+02
7.000000e-08	-7.931643e-06	-5.410510e-09	-5.624582e+01	-3.530405e+02
8.000000e-08	-7.908724e-06	-5.413362e-09	-5.608329e+01	-3.525776e+02
9.000000e-08	-7.882634e-06	-5.427684e-09	-5.589827e+01	-3.521183e+02
1.000000e-07	-7.853320e-06	-5.427838e-09	-5.569040e+01	-3.516585e+02
1.100000e-07	-7.821126e-06	-5.396745e-09	-5.546210e+01	-3.511890e+02
1.200000e-07	-7.786181e-06	-5.367423e-09	-5.521430e+01	-3.506967e+02
1.300000e-07	-7.748737e-06	-5.341129e-09	-5.494877e+01	-3.501658e+02
1.400000e-07	-7.709102e-06	-5.300726e-09	-5.466770e+01	-3.495799e+02
1.500000e-07	-7.667185e-06	-5.285239e-09	-5.437046e+01	-3.489233e+02
1.600000e-07	-7.622631e-06	-5.323614e-09	-5.405451e+01	-3.481830e+02
1.700000e-07	-7.575313e-06	-5.310613e-09	-5.371897e+01	-3.473494e+02
1.800000e-07	-7.525195e-06	-5.270863e-09	-5.336356e+01	-3.464171e+02
1.900000e-07	-7.472044e-06	-5.275067e-09	-5.298665e+01	-3.453851e+02
2.000000e-07	-7.415990e-06	-5.219290e-09	-5.258915e+01	-3.442564e+02
2.100000e-07	-7.357292e-06	-5.183987e-09	-5.217291e+01	-3.430367e+02
2.200000e-07	-7.295994e-06	-5.190900e-09	-5.173822e+01	-3.417340e+02
2.300000e-07	-7.232006e-06	-5.161939e-09	-5.128446e+01	-3.403567e+02
2.400000e-07	-7.165195e-06	-5.143286e-09	-5.081068e+01	-3.389130e+02
2.500000e-07	-7.095670e-06	-5.130518e-09	-5.031766e+01	-3.374094e+02
2.600000e-07	-7.023420e-06	-5.119202e-09	-4.980531e+01	-3.358505e+02
2.700000e-07	-6.948310e-06	-5.083411e-09	-4.927268e+01	-3.342385e+02
2.800000e-07	-6.870372e-06	-5.061628e-09	-4.872000e+01	-3.325731e+02
2.900000e-07	-6.789737e-06	-5.048291e-09	-4.814819e+01	-3.308522e+02
3.000000e-07	-6.706650e-06	-5.008457e-09	-4.755899e+01	-3.290720e+02
3.100000e-07	-6.621297e-06	-4.982165e-09	-4.695373e+01	-3.272280e+02
3.200000e-07	-6.533643e-06	-4.947060e-09	-4.633215e+01	-3.253156e+02
3.300000e-07	-6.443583e-06	-4.913338e-09	-4.569351e+01	-3.233305e+02
3.400000e-07	-6.351202e-06	-4.879103e-09	-4.503840e+01	-3.212693e+02
3.500000e-07	-6.256520e-06	-4.848124e-09	-4.436698e+01	-3.191296e+02
3.600000e-07	-6.159534e-06	-4.825246e-09	-4.367922e+01	-3.169100e+02
3.700000e-07	-6.060295e-06	-4.791482e-09	-4.297549e+01	-3.146100e+02
3.800000e-07	-5.958844e-06	-4.753403e-09	-4.225607e+01	-3.122298e+02
3.900000e-07	-5.855258e-06	-4.714693e-09	-4.152150e+01	-3.097699e+02
4.000000e-07	-5.749653e-06	-4.677196e-09	-4.077262e+01	-3.072308e+02
4.100000e-07	-5.642103e-06	-4.626806e-09	-4.000995e+01	-3.046127e+02
4.200000e-07	-5.532557e-06	-4.587223e-09	-3.923313e+01	-3.019154e+02
4.300000e-07	-5.420950e-06	-4.558710e-09	-3.844169e+01	-2.991380e+02
4.400000e-07	-5.307238e-06	-4.518465e-09	-3.763532e+01	-2.962793e+02
4.500000e-07	-5.191483e-06	-4.467246e-09	-3.681446e+01	-2.933371e+02
4.600000e-07	-5.073839e-06	-4.420308e-09	-3.598021e+01	-2.903089e+02
4.700000e-07	-4.954345e-06	-4.374568e-09	-3.513284e+01	-2.871915e+02
4.800000e-07	-4.832985e-06	-4.322355e-09	-3.427224e+01	-2.839816e+02
4.900000e-07	-4.709855e-06	-4.272118e-09	-3.339908e+01	-2.806752e+02
5.000000e-07	-4.585074e-06	-4.222639e-09	-3.251423e+01	-2.772683e+02
5.100000e-07	-4.458660e-06	-4.170724e-09	-3.161778e+01	-2.737565e+02
5.200000e-07	-4.330565e-06	-4.109746e-09	-3.070942e+01	-2.701357e+02
5.300000e-07	-4.200897e-06	-4.048006e-09	-2.978990e+01	-2.664016e+02
5.400000e-07	-4.069662e-06	-3.986371e-09	-2.885927e+01	-2.625504e+02
5.500000e-07	-3.936858e-06	-3.925708e-09	-2.791751e+01	-2.585786e+02
5.600000e-07	-3.802565e-06	-3.865141e-09	-2.696520e+01	-2.544837e+02
5.700000e-07	-3.666783e-06	-3.803294e-09	-2.600233e+01	-2.502635e+02
5.800000e-07	-3.529611e-06	-3.739867e-09	-2.502960e+01	-2.459169e+02
5.900000e-07	-3.391004e-06	-3.671542e-09	-2.404669e+01	-2.414432e+02
6.000000e-07	-3.250938e-06	-3.597879e-09	-2.305344e+01	-2.368419e+02
6.100000e-07	-3.109501e-06	-3.520465e-09	-2.205047e+01	-2.321127e+02
6.200000e-07	-2.966797e-06	-3.446183e-09	-2.103850e+01	-2.272542e+02
6.300000e-07	-2.822987e-06	-3.373626e-09	-2.001870e+01	-2.222641e+02
6.400000e-07	-2.678152e-06	-3.297371e-09	-1.899163e+01	-2.171384e+02
6.500000e-07	-2.532363e-06	-3.214797e-09	-1.795779e+01	-2.118710e+02
6.600000e-07	-2.385701e-06	-3.129442e-09	-1.691777e+01	-2.064537e+02
6.700000e-07	-2.238250e-06	-3.043470e-09	-1.587214e+01	-2.008766e+02
6.800000e-07	-2.090149e-06	-2.957555e-09	-1.482192e+01	-1.951281e+02
6.900000e-07	-1.941418e-06	-2.869490e-09	-1.376722e+01	-1.891958e+02
7.000000e-07	-1.791984e-06	-2.775415e-09	-1.270753e+01	-1.830677e+02
7.100000e-07	-1.641944e-06	-2.673878e-09	-1.164355e+01	-1.767324e+02
7.200000e-07	-1.491436e-06	-2.570210e-09	-1.057625e+01	-1.701805e+02
7.300000e-07	-1.340499e-06	-2.466030e-09	-9.505910e+00	-1.634047e+02
7.400000e-07	-1.189069e-06	-2.358121e-09	-8.432067e+00	-1.564002e+02
7.500000e-07	-1.037167e-06	-2.249362e-09	-7.354883e+00	-1.491638e+02
7.600000e-07	-8.849132e-07	-2.139997e-09	-6.275202e+00	-1.416932e+02
7.700000e-07	-7.323677e-07	-2.025692e-09	-5.193453e+00	-1.339858e+02
7.800000e-07	-5.795143e-07	-1.904184e-09	-4.109521e+00	-1.260365e+02
7.900000e-07	-4.263968e-07	-1.779536e-09	-3.023716e+00	-1.178367e+02
8.000000e-07	-2.731318e-07	-1.649981e-09	-1.936865e+00	-1.093722e+02
8.100000e-07	-1.197858e-07	-1.511664e-09	-8.494391e-01	-1.006226e+02
8.200000e-07	3.366936e-08	-1.367997e-09	2.387602e-01	-9.156081e+01
8.300000e-07	1.871890e-07	-1.220886e-09	1.327417e+00	-8.215444e+01
8.400000e-07	3.406658e-07	-1.070537e-09	2.415770e+00	-7.236721e+01
8.500000e-07	4.940639e-07	-9.152625e-10	3.503565e+00	-6.216214e+01
8.600000e-07	6.473526e-07	-7.525476e-10	4.590584e+00	-5.150537e+01
8.700000e-07	8.004545e-07	-5.824526e-10	5.676278e+00	-4.037047e+01
8.800000e-07	9.532675e-07	-4.054011e-10	6.759924e+00	-2.874297e+01
8.900000e-07	1.105734e-06	-2.234430e-10	7.841114e+00	-1.662446e+01
9.000000e-07	1.257798e-06	-3.642794e-11	8.919444e+00	-4.035882e+00
9.100000e-07	1.409371e-06	1.576902e-10	9.994299e+00	8.980472e+00
9.200000e-07	1.560367e-06	3.594666e-10	1.106506e+01	2.236058e+01
9.300000e-07	1.710778e-06	5.684193e-10	1.213167e+01	3.602009e+01
9.400000e-07	1.860623e-06	7.802253e-10	1.319427e+01	4.985746e+01
9.500000e-07	2.009787e-06	9.916363e-10	1.425204e+01	6.375866e+01
9.600000e-07	2.158157e-06	1.200271e-09	1.530418e+01	7.760309e+01
9.700000e-07	2.305755e-06	1.407248e-09	1.635084e+01	9.127010e+01
9.800000e-07	2.452573e-06	1.612588e-09	1.739198e+01	1.046456e+02
9.900000e-07	2.598519e-06	1.810446e-09	1.842693e+01	1.176280e+02
1.000000e-06	2.743538e-06	1.994102e-09	1.945530e+01	1.301335e+02
1.010000e-06	2.887518e-06	2.167467e-09	2.047631e+01	1.420990e+02
1.020000e-06	3.030316e-06	2.336684e-09	2.148894e+01	1.534842e+02
1.030000e-06	3.171902e-06	2.500831e-09	2.249297e+01	1.642708e+02
1.040000e-06	3.312170e-06	2.655477e-09	2.348766e+01	1.744612e+02
1.050000e-06	3.451120e-06	2.801229e-09	2.447300e+01	1.840745e+02
1.060000e-06	3.588778e-06	2.940576e-09	2.544917e+01	1.931425e+02
1.070000e-06	3.724978e-06	3.075733e-09	2.641501e+01	2.017048e+02
1.080000e-06	3.859745e-06	3.202580e-09	2.737068e+01	2.098043e+02
1.090000e-06	3.993186e-06	3.319100e-09	2.831695e+01	2.174827e+02
1.100000e-06	4.125223e-06	3.427869e-09	2.925327e+01	2.247780e+02
1.110000e-06	4.255920e-06	3.531441e-09	3.018008e+01	2.317222e+02
1.120000e-06	4.385130e-06	3.633358e-09	3.109636e+01	2.383407e+02
1.130000e-06	4.512654e-06	3.729876e-09	3.200067e+01	2.446527e+02
1.140000e-06	4.638634e-06	3.819426e-09	3.289403e+01	2.506728e+02
1.150000e-06	4.763037e-06	3.903974e-09	3.377622e+01	2.564126e+02
1.160000e-06	4.885855e-06	3.985644e-09	3.464716e+01	2.618825e+02
1.170000e-06	5.006926e-06	4.064771e-09	3.550571e+01	2.670941e+02
1.180000e-06	5.126110e-06	4.141838e-09	3.635088e+01	2.720605e+02
1.190000e-06	5.243464e-06	4.214123e-09	3.718308e+01	2.767975e+02
1.200000e-06	5.358861e-06	4.281517e-09	3.800140e+01	2.813230e+02
1.210000e-06	5.472072e-06	4.346803e-09	3.880421e+01	2.856564e+02
1.220000e-06	5.583134e-06	4.412421e-09	3.959179e+01	2.898166e+02
1.230000e-06	5.692307e-06	4.475241e-09	4.036597e+01	2.938207e+02
1.240000e-06	5.799582e-06	4.533101e-09	4.112669e+01	2.976827e+02
1.250000e-06	5.904735e-06	4.587418e-09	4.187236e+01	3.014117e+02
1.260000e-06	6.007630e-06	4.640114e-09	4.260203e+01	3.050115e+02
1.270000e-06	6.108332e-06	4.691183e-09	4.331613e+01	3.084812e+02
1.280000e-06	6.206803e-06	4.740161e-09	4.401442e+01	3.118152e+02
1.290000e-06	6.302838e-06	4.786508e-09	4.469544e+01	3.150053e+02
1.300000e-06	6.396499e-06	4.829285e-09	4.535961e+01	3.180419e+02
1.310000e-06	6.487996e-06	4.868935e-09	4.600845e+01	3.209168e+02
1.320000e-06	6.577149e-06	4.907795e-09	4.664067e+01	3.236242e+02
1.330000e-06	6.663947e-06	4.947904e-09	4.725618e+01	3.261625e+02
1.340000e-06	6.748553e-06	4.987092e-09	4.785615e+01	3.285350e+02
1.350000e-06	6.830853e-06	5.021253e-09	4.843976e+01	3.307500e+02
1.360000e-06	6.910581e-06	5.051764e-09	4.900514e+01	3.328198e+02
1.370000e-06	6.987669e-06	5.081195e-09	4.955179e+01	3.347597e+02
1.380000e-06	7.062144e-06	5.109693e-09	5.007992e+01	3.365864e+02
1.390000e-06	7.133971e-06	5.136792e-09	5.058926e+01	3.383155e+02
1.400000e-06	7.203306e-06	5.162742e-09	5.108094e+01	3.399604e+02
1.410000e-06	7.270145e-06	5.187282e-09	5.155492e+01	3.415307e+02
1.420000e-06	7.334320e-06	5.208066e-09	5.201000e+01	3.430313e+02
1.430000e-06	7.395911e-06	5.228906e-09	5.244677e+01	3.444627e+02
1.440000e-06	7.455034e-06	5.250362e-09	5.286602e+01	3.458212e+02
1.450000e-06	7.511531e-06	5.270010e-09	5.326666e+01	3.471005e+02
1.460000e-06	7.565322e-06	5.288845e-09	5.364811e+01	3.482931e+02
1.470000e-06	7.616070e-06	5.305956e-09	5.400798e+01	3.493917e+02
1.480000e-06	7.663636e-06	5.320893e-09	5.434529e+01	3.503914e+02
1.490000e-06	7.708501e-06	5.335666e-09	5.466344e+01	3.512906e+02
1.500000e-06	7.750678e-06	5.349372e-09	5.496253e+01	3.520915e+02
1.510000e-06	7.790013e-06	5.360465e-09	5.524147e+01	3.528003e+02
1.520000e-06	7.826680e-06	5.371155e-09	5.550149e+01	3.534264e+02
1.530000e-06	7.860620e-06	5.381066e-09	5.574216e+01	3.539814e+02
1.540000e-06	7.891669e-06	5.390116e-09	5.596235e+01	3.544771e+02
1.550000e-06	7.919980e-06	5.398676e-09	5.616310e+01	3.549245e+02
1.560000e-06	7.945456e-06	5.406398e-09	5.634376e+01	3.553314e+02
1.570000e-06	7.967970e-06	5.413355e-09	5.650342e+01	3.557023e+02
1.580000e-06	7.987759e-06	5.420542e-09	5.664375e+01	3.560371e+02
1.590000e-06	8.004740e-06	5.425537e-09	5.676416e+01	3.563313e+02
1.600000e-06	8.018689e-06	5.428140e-09	5.686309e+01	3.565772e+02
1.610000e-06	8.029460e-06	5.431298e-09	5.693946e+01	3.567648e+02
1.620000e-06	8.037120e-06	5.434699e-09	5.699378e+01	3.568837e+02
1.630000e-06	8.041910e-06	5.437094e-09	5.702775e+01	3.569246e+02
1.640000e-06	8.043849e-06	5.438030e-09	5.704150e+01	3.568812e+02
1.650000e-06	8.042977e-06	5.435363e-09	5.703532e+01	3.567516e+02
1.660000e-06	8.039482e-06	5.430455e-09	5.701053e+01	3.565383e+02
1.670000e-06	8.033327e-06	5.426115e-09	5.696689e+01	3.562488e+02
1.680000e-06	8.024434e-06	5.423136e-09	5.690382e+01	3.558949e+02
1.690000e-06	8.012818e-06	5.420404e-09	5.682145e+01	3.554910e+02
1.700000e-06	7.998376e-06	5.416206e-09	5.671904e+01	3.550528e+02
1.710000e-06	7.981329e-06	5.408756e-09	5.659815e+01	3.545949e+02
1.720000e-06	7.961986e-06	5.390437e-09	5.646098e+01	3.541298e+02
1.730000e-06	7.940135e-06	5.366376e-09	5.630603e+01	3.536654e+02
1.740000e-06	7.915096e-06	5.328263e-09	5.612848e+01	3.532049e+02
1.750000e-06	7.886405e-06	5.323365e-09	5.592501e+01	3.527455e+02
1.760000e-06	7.854334e-06	5.335220e-09	5.569759e+01	3.522796e+02
1.770000e-06	7.819635e-06	5.333384e-09	5.545153e+01	3.517948e+02
1.780000e-06	7.782676e-06	5.352236e-09	5.518944e+01	3.512762e+02
1.790000e-06	7.743519e-06	5.381478e-09	5.491176e+01	3.507072e+02
1.800000e-06	7.702236e-06	5.345645e-09	5.461901e+01	3.500718e+02
1.810000e-06	7.658480e-06	5.303127e-09	5.430873e+01	3.493561e+02
1.820000e-06	7.612062e-06	5.312118e-09	5.397956e+01	3.485495e+02
1.830000e-06	7.562864e-06	5.278275e-09	5.363068e+01	3.476452e+02
1.840000e-06	7.510647e-06	5.308845e-09	5.326040e+01	3.466412e+02
1.850000e-06	7.455559e-06	5.313749e-09	5.286975e+01	3.455391e+02
1.860000e-06	7.397701e-06	5.263813e-09	5.245946e+01	3.443443e+02
1.870000e-06	7.337231e-06	5.250986e-09	5.203065e+01	3.430640e+02
1.880000e-06	7.274061e-06	5.206352e-09	5.158269e+01	3.417067e+02
1.890000e-06	7.208010e-06	5.196043e-09	5.111430e+01	3.402807e+02
1.900000e-06	7.139199e-06	5.159161e-09	5.062634e+01	3.387932e+02
1.910000e-06	7.067480e-06	5.152963e-09	5.011775e+01	3.372493e+02
1.920000e-06	6.992943e-06	5.148309e-09	4.958919e+01	3.356520e+02
1.930000e-06	6.915796e-06	5.087351e-09	4.904212e+01	3.340016e+02
1.940000e-06	6.835987e-06	5.082919e-09	4.847617e+01	3.322964e+02
1.950000e-06	6.753556e-06	5.038963e-09	4.789162e+01	3.305331e+02
1.960000e-06	6.668649e-06	5.023965e-09	4.728952e+01	3.287074e+02
1.970000e-06	6.581321e-06	4.996664e-09	4.667025e+01	3.268145e+02
1.980000e-06	6.491585e-06	4.958640e-09	4.603390e+01	3.248502e+02
1.990000e-06	6.399613e-06	4.942973e-09	4.538170e+01	3.228105e+02
2.000000e-06	6.305391e-06	4.883532e-09	4.471354e+01	3.206930e+02
2.010000e-06	6.208889e-06	4.860946e-09	4.402921e+01	3.184958e+02
2.020000e-06	6.110155e-06	4.825132e-09	4.332906e+01	3.162184e+02
2.030000e-06	6.009251e-06	4.799358e-09	4.261351e+01	3.138606e+02
2.040000e-06	5.906220e-06	4.758195e-09	4.188289e+01	3.114230e+02
2.050000e-06	5.801090e-06	4.727841e-09	4.113738e+01	3.089060e+02
2.060000e-06	5.694016e-06	4.693651e-09	4.037809e+01	3.063100e+02
2.070000e-06	5.584961e-06	4.635414e-09	3.960474e+01	3.036350e+02
2.080000e-06	5.473849e-06	4.590614e-09	3.881681e+01	3.008802e+02
2.090000e-06	5.360695e-06	4.543320e-09	3.801440e+01	2.980444e+02
2.100000e-06	5.245508e-06	4.509261e-09	3.719757e+01	2.951259e+02
2.110000e-06	5.128313e-06	4.465030e-09	3.636650e+01	2.921221e+02
2.120000e-06	5.009122e-06	4.427741e-09	3.552128e+01	2.890301e+02
2.130000e-06	4.888074e-06	4.373276e-09	3.466289e+01	2.858465e+02
2.140000e-06	4.765262e-06	4.318498e-09	3.379199e+01	2.825676e+02
2.150000e-06	4.640697e-06	4.263936e-09	3.290866e+01	2.791894e+02
2.160000e-06	4.514435e-06	4.216933e-09	3.201330e+01	2.757076e+02
2.170000e-06	4.386531e-06	4.168734e-09	3.110629e+01	2.721179e+02
2.180000e-06	4.257064e-06	4.113817e-09	3.018820e+01	2.684162e+02
2.190000e-06	4.126062e-06	4.055501e-09	2.925923e+01	2.645983e+02
2.200000e-06	3.993493e-06	3.988268e-09	2.831913e+01	2.606609e+02
2.210000e-06	3.859398e-06	3.923667e-09	2.736823e+01	2.566009e+02
2.220000e-06	3.723811e-06	3.861633e-09	2.640673e+01	2.524162e+02
2.230000e-06	3.586781e-06	3.804347e-09	2.543501e+01	2.481054e+02
2.240000e-06	3.448359e-06	3.739428e-09	2.445341e+01	2.436676e+02
2.250000e-06	3.308650e-06	3.671948e-09	2.346269e+01	2.391024e+02
2.260000e-06	3.167719e-06	3.599485e-09	2.246331e+01	2.344093e+02
2.270000e-06	3.025543e-06	3.522937e-09	2.145509e+01	2.295875e+02
2.280000e-06	2.882180e-06	3.442720e-09	2.043846e+01	2.246349e+02
2.290000e-06	2.737723e-06	3.364370e-09	1.941407e+01	2.195480e+02
2.300000e-06	2.592356e-06	3.285317e-09	1.838323e+01	2.143214e+02
2.310000e-06	2.446138e-06	3.207636e-09	1.734634e+01	2.089474e+02
2.320000e-06	2.299098e-06	3.129407e-09	1.630364e+01	2.034167e+02
2.330000e-06	2.151270e-06	3.043882e-09	1.525534e+01	1.977179e+02
2.340000e-06	2.002645e-06	2.949279e-09	1.420139e+01	1.918390e+02
2.350000e-06	1.853328e-06	2.850656e-09	1.314254e+01	1.857675e+02
2.360000e-06	1.703440e-06	2.754103e-09	1.207963e+01	1.794920e+02
2.370000e-06	1.553016e-06	2.656857e-09	1.101293e+01	1.730024e+02
2.380000e-06	1.402007e-06	2.557727e-09	9.942083e+00	1.662908e+02
2.390000e-06	1.250557e-06	2.452987e-09	8.868097e+00	1.593516e+02
2.400000e-06	1.098756e-06	2.340780e-09	7.791630e+00	1.521812e+02
2.410000e-06	9.465971e-07	2.225385e-09	6.712623e+00	1.447773e+02
2.420000e-06	7.941670e-07	2.109553e-09	5.631692e+00	1.371374e+02
2.430000e-06	6.415086e-07	1.994410e-09	4.549142e+00	1.292575e+02
2.440000e-06	4.886073e-07	1.874144e-09	3.464870e+00	1.211301e+02
2.450000e-06	3.354565e-07	1.745750e-09	2.378829e+00	1.127426e+02
2.460000e-06	1.820928e-07	1.611761e-09	1.291278e+00	1.040764e+02
2.470000e-06	2.858823e-08	1.471744e-09	2.027283e-01	9.510647e+01
2.480000e-06	-1.249513e-07	1.327643e-09	-8.860695e-01	8.580169e+01
2.490000e-06	-2.784001e-07	1.180186e-09	-1.974224e+00	7.612663e+01
2.500000e-06	-4.317036e-07	1.028030e-09	-3.061348e+00	6.604417e+01
2.510000e-06	-5.848213e-07	8.690323e-10	-4.147154e+00	5.551912e+01
2.520000e-06	-7.377274e-07	7.019621e-10	-5.231461e+00	4.452247e+01
2.530000e-06	-8.904144e-07	5.262073e-10	-6.314213e+00	3.303587e+01
2.540000e-06	-1.042786e-06	3.428757e-10	-7.394729e+00	2.105596e+01
2.550000e-06	-1.194801e-06	1.532540e-10	-8.472715e+00	8.597879e+00
2.560000e-06	-1.346442e-06	-4.290638e-11	-9.548047e+00	-4.302293e+00
2.570000e-06	-1.497685e-06	-2.455095e-10	-1.062056e+01	-1.758668e+01
2.580000e-06	-1.648434e-06	-4.541770e-10	-1.168958e+01	-3.117650e+01
2.590000e-06	-1.798552e-06	-6.689970e-10	-1.275411e+01	-4.497469e+01
2.600000e-06	-1.947968e-06	-8.869283e-10	-1.381366e+01	-5.887023e+01
2.610000e-06	-2.096553e-06	-1.103553e-09	-1.486732e+01	-7.274377e+01
2.620000e-06	-2.244279e-06	-1.317487e-09	-1.591490e+01	-8.647396e+01
2.630000e-06	-2.391200e-06	-1.526961e-09	-1.695677e+01	-9.994420e+01
2.640000e-06	-2.537284e-06	-1.730034e-09	-1.799269e+01	-1.130488e+02
2.650000e-06	-2.682385e-06	-1.924281e-09	-1.902165e+01	-1.256984e+02
2.660000e-06	-2.826385e-06	-2.107769e-09	-2.004280e+01	-1.378238e+02
2.670000e-06	-2.969358e-06	-2.281562e-09	-2.105666e+01	-1.493780e+02
2.680000e-06	-3.111262e-06	-2.446399e-09	-2.206295e+01	-1.603367e+02
2.690000e-06	-3.251882e-06	-2.602572e-09	-2.306014e+01	-1.706966e+02
2.700000e-06	-3.391141e-06	-2.750932e-09	-2.404766e+01	-1.804724e+02
2.710000e-06	-3.529109e-06	-2.892595e-09	-2.502604e+01	-1.896929e+02
2.720000e-06	-3.665725e-06	-3.028499e-09	-2.599482e+01	-1.983958e+02
2.730000e-06	-3.801053e-06	-3.158327e-09	-2.695448e+01	-2.066236e+02
2.740000e-06	-3.935099e-06	-3.281027e-09	-2.790505e+01	-2.144187e+02
2.750000e-06	-4.067654e-06	-3.396277e-09	-2.884503e+01	-2.218204e+02
2.760000e-06	-4.198730e-06	-3.503534e-09	-2.977453e+01	-2.288624e+02
2.770000e-06	-4.328435e-06	-3.603497e-09	-3.069431e+01	-2.355722e+02
2.780000e-06	-4.456698e-06	-3.698672e-09	-3.160387e+01	-2.419705e+02
2.790000e-06	-4.583479e-06	-3.791066e-09	-3.250291e+01	-2.480732e+02
2.800000e-06	-4.708652e-06	-3.880368e-09	-3.339055e+01	-2.538925e+02
2.810000e-06	-4.832058e-06	-3.964831e-09	-3.426567e+01	-2.594389e+02
2.820000e-06	-4.953725e-06	-4.045163e-09	-3.512844e+01	-2.647234e+02
2.830000e-06	-5.073607e-06	-4.121242e-09	-3.597857e+01	-2.697588e+02
2.840000e-06	-5.191521e-06	-4.194148e-09	-3.681473e+01	-2.745601e+02
2.850000e-06	-5.307310e-06	-4.263640e-09	-3.763583e+01	-2.791446e+02
2.860000e-06	-5.420964e-06	-4.329731e-09	-3.844179e+01	-2.835313e+02
2.870000e-06	-5.532381e-06	-4.395915e-09	-3.923188e+01	-2.877395e+02
2.880000e-06	-5.641686e-06	-4.461231e-09	-4.000700e+01	-2.917871e+02
2.890000e-06	-5.749164e-06	-4.523978e-09	-4.076916e+01	-2.956890e+02
2.900000e-06	-5.854742e-06	-4.583464e-09	-4.151784e+01	-2.994558e+02
2.910000e-06	-5.958157e-06	-4.640528e-09	-4.225119e+01	-3.030929e+02
2.920000e-06	-6.059240e-06	-4.695730e-09	-4.296801e+01	-3.066006e+02
2.930000e-06	-6.158088e-06	-4.747244e-09	-4.366897e+01	-3.099746e+02
2.940000e-06	-6.254829e-06	-4.796681e-09	-4.435499e+01	-3.132072e+02
