# Temperatura_=_34.63
# Concentracion g/m^3_=_5000.0
# C_Vs_to_Am_M_A/Vsm_=_65563218390.804596
# pendiente_HvsI_1/m_=_3716.3
# ordenada_HvsI_A/m_=_1297.0
# frecuencia_Hz_=_302515.3206431144

Tiempo_(s)	Campo_(V.s)	Magnetizacion_(V.s)	Campo_(kA/m)	Magnetizacion_(A/m)
0.000000e+00	-8.034279e-06	-5.426242e-09	-5.685815e+01	-3.540754e+02
1.000000e-08	-8.029619e-06	-5.422904e-09	-5.682517e+01	-3.538386e+02
2.000000e-08	-8.022400e-06	-5.415050e-09	-5.677409e+01	-3.535352e+02
3.000000e-08	-8.012429e-06	-5.410214e-09	-5.670352e+01	-3.531787e+02
4.000000e-08	-7.999455e-06	-5.402374e-09	-5.661171e+01	-3.527841e+02
5.000000e-08	-7.983431e-06	-5.389851e-09	-5.649830e+01	-3.523667e+02
6.000000e-08	-7.964879e-06	-5.375805e-09	-5.636701e+01	-3.519400e+02
7.000000e-08	-7.944159e-06	-5.362843e-09	-5.622038e+01	-3.515138e+02
8.000000e-08	-7.920683e-06	-5.458506e-09	-5.605424e+01	-3.510934e+02
9.000000e-08	-7.893890e-06	-5.470799e-09	-5.586463e+01	-3.506784e+02
1.000000e-07	-7.863969e-06	-5.378202e-09	-5.565288e+01	-3.502632e+02
1.100000e-07	-7.831211e-06	-5.352118e-09	-5.542105e+01	-3.498376e+02
1.200000e-07	-7.795707e-06	-5.348449e-09	-5.516979e+01	-3.493879e+02
1.300000e-07	-7.757812e-06	-5.300039e-09	-5.490162e+01	-3.488981e+02
1.400000e-07	-7.717765e-06	-5.219357e-09	-5.461821e+01	-3.483523e+02
1.500000e-07	-7.675389e-06	-5.363901e-09	-5.431831e+01	-3.477360e+02
1.600000e-07	-7.630322e-06	-5.320969e-09	-5.399938e+01	-3.470372e+02
1.700000e-07	-7.582479e-06	-5.188484e-09	-5.366079e+01	-3.462478e+02
1.800000e-07	-7.531655e-06	-5.332462e-09	-5.330111e+01	-3.453637e+02
1.900000e-07	-7.477814e-06	-5.243699e-09	-5.292008e+01	-3.443851e+02
2.000000e-07	-7.421220e-06	-5.197264e-09	-5.251957e+01	-3.433153e+02
2.100000e-07	-7.361917e-06	-5.209888e-09	-5.209989e+01	-3.421607e+02
2.200000e-07	-7.299997e-06	-5.173005e-09	-5.166168e+01	-3.409288e+02
2.300000e-07	-7.235338e-06	-5.194119e-09	-5.120410e+01	-3.396277e+02
2.400000e-07	-7.167855e-06	-5.107925e-09	-5.072652e+01	-3.382649e+02
2.500000e-07	-7.097676e-06	-5.135191e-09	-5.022987e+01	-3.368464e+02
2.600000e-07	-7.024700e-06	-5.116942e-09	-4.971342e+01	-3.353763e+02
2.700000e-07	-6.948954e-06	-5.073962e-09	-4.917737e+01	-3.338564e+02
2.800000e-07	-6.870380e-06	-5.030831e-09	-4.862131e+01	-3.322869e+02
2.900000e-07	-6.789052e-06	-5.034496e-09	-4.804575e+01	-3.306660e+02
3.000000e-07	-6.705426e-06	-5.057614e-09	-4.745394e+01	-3.289909e+02
3.100000e-07	-6.619530e-06	-4.951549e-09	-4.684606e+01	-3.272581e+02
3.200000e-07	-6.531227e-06	-4.943567e-09	-4.622114e+01	-3.254639e+02
3.300000e-07	-6.440582e-06	-4.935566e-09	-4.557965e+01	-3.236046e+02
3.400000e-07	-6.347669e-06	-4.899814e-09	-4.492211e+01	-3.216771e+02
3.500000e-07	-6.252444e-06	-4.851706e-09	-4.424821e+01	-3.196787e+02
3.600000e-07	-6.154848e-06	-4.835095e-09	-4.355753e+01	-3.176071e+02
3.700000e-07	-6.055025e-06	-4.828448e-09	-4.285108e+01	-3.154602e+02
3.800000e-07	-5.953068e-06	-4.758250e-09	-4.212954e+01	-3.132362e+02
3.900000e-07	-5.848916e-06	-4.724942e-09	-4.139246e+01	-3.109334e+02
4.000000e-07	-5.742685e-06	-4.701253e-09	-4.064067e+01	-3.085501e+02
4.100000e-07	-5.634505e-06	-4.677932e-09	-3.987509e+01	-3.060845e+02
4.200000e-07	-5.524406e-06	-4.612018e-09	-3.909592e+01	-3.035351e+02
4.300000e-07	-5.412279e-06	-4.574406e-09	-3.830240e+01	-3.009002e+02
4.400000e-07	-5.297954e-06	-4.550051e-09	-3.749333e+01	-2.981786e+02
4.500000e-07	-5.181498e-06	-4.502252e-09	-3.666918e+01	-2.953689e+02
4.600000e-07	-5.063219e-06	-4.443899e-09	-3.583213e+01	-2.924701e+02
4.700000e-07	-4.943174e-06	-4.401057e-09	-3.498257e+01	-2.894807e+02
4.800000e-07	-4.821260e-06	-4.365213e-09	-3.411979e+01	-2.863994e+02
4.900000e-07	-4.697530e-06	-4.306200e-09	-3.324416e+01	-2.832238e+02
5.000000e-07	-4.572160e-06	-4.257584e-09	-3.235693e+01	-2.799511e+02
5.100000e-07	-4.445183e-06	-4.205534e-09	-3.145832e+01	-2.765775e+02
5.200000e-07	-4.316560e-06	-4.153303e-09	-3.054806e+01	-2.730984e+02
5.300000e-07	-4.186346e-06	-4.088374e-09	-2.962654e+01	-2.695082e+02
5.400000e-07	-4.054527e-06	-4.032972e-09	-2.869366e+01	-2.658011e+02
5.500000e-07	-3.921196e-06	-3.979164e-09	-2.775009e+01	-2.619714e+02
5.600000e-07	-3.786381e-06	-3.921885e-09	-2.679601e+01	-2.580136e+02
5.700000e-07	-3.650044e-06	-3.860057e-09	-2.583116e+01	-2.539232e+02
5.800000e-07	-3.512292e-06	-3.792569e-09	-2.485630e+01	-2.496968e+02
5.900000e-07	-3.373132e-06	-3.723268e-09	-2.387147e+01	-2.453325e+02
6.000000e-07	-3.232458e-06	-3.650643e-09	-2.287593e+01	-2.408294e+02
6.100000e-07	-3.090422e-06	-3.583818e-09	-2.187075e+01	-2.361875e+02
6.200000e-07	-2.947232e-06	-3.511310e-09	-2.085740e+01	-2.314069e+02
6.300000e-07	-2.802944e-06	-3.438648e-09	-1.983629e+01	-2.264872e+02
6.400000e-07	-2.657605e-06	-3.361054e-09	-1.880772e+01	-2.214265e+02
6.500000e-07	-2.511323e-06	-3.279958e-09	-1.777249e+01	-2.162208e+02
6.600000e-07	-2.364290e-06	-3.194004e-09	-1.673195e+01	-2.108639e+02
6.700000e-07	-2.216502e-06	-3.108649e-09	-1.568606e+01	-2.053467e+02
6.800000e-07	-2.067943e-06	-3.026255e-09	-1.463472e+01	-1.996575e+02
6.900000e-07	-1.918755e-06	-2.935245e-09	-1.357893e+01	-1.937833e+02
7.000000e-07	-1.769020e-06	-2.842292e-09	-1.251926e+01	-1.877098e+02
7.100000e-07	-1.618675e-06	-2.745966e-09	-1.145528e+01	-1.814234e+02
7.200000e-07	-1.467747e-06	-2.650476e-09	-1.038716e+01	-1.749115e+02
7.300000e-07	-1.316370e-06	-2.544868e-09	-9.315877e+00	-1.681641e+02
7.400000e-07	-1.164516e-06	-2.432473e-09	-8.241215e+00	-1.611738e+02
7.500000e-07	-1.012227e-06	-2.323875e-09	-7.163473e+00	-1.539359e+02
7.600000e-07	-8.595875e-07	-2.215517e-09	-6.083254e+00	-1.464480e+02
7.700000e-07	-7.066122e-07	-2.098517e-09	-5.000656e+00	-1.387084e+02
7.800000e-07	-5.533136e-07	-1.974060e-09	-3.915771e+00	-1.307147e+02
7.900000e-07	-3.997570e-07	-1.850825e-09	-2.829059e+00	-1.224621e+02
8.000000e-07	-2.460518e-07	-1.719899e-09	-1.741295e+00	-1.139409e+02
8.100000e-07	-9.228224e-08	-1.582750e-09	-6.530764e-01	-1.051361e+02
8.200000e-07	6.149740e-08	-1.442003e-09	4.352138e-01	-9.602591e+01
8.300000e-07	2.153061e-07	-1.296267e-09	1.523710e+00	-8.658238e+01
8.400000e-07	3.690944e-07	-1.140615e-09	2.612061e+00	-7.677282e+01
8.500000e-07	5.228152e-07	-9.804899e-10	3.699934e+00	-6.656228e+01
8.600000e-07	6.763678e-07	-8.193935e-10	4.786618e+00	-5.591708e+01
8.700000e-07	8.296426e-07	-6.525881e-10	5.871335e+00	-4.480909e+01
8.800000e-07	9.826753e-07	-4.772443e-10	6.954340e+00	-3.322025e+01
8.900000e-07	1.135354e-06	-2.942224e-10	8.034837e+00	-2.114692e+01
9.000000e-07	1.287549e-06	-1.078798e-10	9.111917e+00	-8.603547e+00
9.100000e-07	1.439273e-06	8.572074e-11	1.018566e+01	4.374868e+00
9.200000e-07	1.590566e-06	2.852209e-10	1.125635e+01	1.773182e+01
9.300000e-07	1.741363e-06	4.907423e-10	1.232353e+01	3.139015e+01
9.400000e-07	1.891459e-06	7.002141e-10	1.338575e+01	4.525462e+01
9.500000e-07	2.040807e-06	9.142609e-10	1.444268e+01	5.921622e+01
9.600000e-07	2.189433e-06	1.130093e-09	1.549450e+01	7.315768e+01
9.700000e-07	2.337221e-06	1.340434e-09	1.654039e+01	8.695978e+01
9.800000e-07	2.484142e-06	1.547487e-09	1.758014e+01	1.005079e+02
9.900000e-07	2.630202e-06	1.745705e-09	1.861379e+01	1.136980e+02
1.000000e-06	2.775285e-06	1.934152e-09	1.964054e+01	1.264421e+02
1.010000e-06	2.919310e-06	2.114049e-09	2.065980e+01	1.386714e+02
1.020000e-06	3.062169e-06	2.286585e-09	2.167080e+01	1.503388e+02
1.030000e-06	3.203812e-06	2.452655e-09	2.267320e+01	1.614188e+02
1.040000e-06	3.344164e-06	2.610433e-09	2.366647e+01	1.719059e+02
1.050000e-06	3.483152e-06	2.761918e-09	2.465008e+01	1.818120e+02
1.060000e-06	3.620787e-06	2.908166e-09	2.562412e+01	1.911619e+02
1.070000e-06	3.757047e-06	3.049421e-09	2.658842e+01	1.999893e+02
1.080000e-06	3.891883e-06	3.178277e-09	2.754264e+01	2.083325e+02
1.090000e-06	4.025311e-06	3.295105e-09	2.848690e+01	2.162301e+02
1.100000e-06	4.157319e-06	3.403628e-09	2.942112e+01	2.237182e+02
1.110000e-06	4.287927e-06	3.510137e-09	3.034543e+01	2.308285e+02
1.120000e-06	4.417086e-06	3.614824e-09	3.125948e+01	2.375875e+02
1.130000e-06	4.544643e-06	3.713430e-09	3.216219e+01	2.440167e+02
1.140000e-06	4.670607e-06	3.806124e-09	3.305363e+01	2.501337e+02
1.150000e-06	4.794917e-06	3.893538e-09	3.393337e+01	2.559535e+02
1.160000e-06	4.917618e-06	3.977579e-09	3.480171e+01	2.614902e+02
1.170000e-06	5.038660e-06	4.057970e-09	3.565832e+01	2.667586e+02
1.180000e-06	5.157884e-06	4.134845e-09	3.650207e+01	2.717747e+02
1.190000e-06	5.275169e-06	4.206261e-09	3.733208e+01	2.765563e+02
1.200000e-06	5.390417e-06	4.271860e-09	3.814769e+01	2.811223e+02
1.210000e-06	5.503572e-06	4.335270e-09	3.894848e+01	2.854921e+02
1.220000e-06	5.614586e-06	4.400535e-09	3.973412e+01	2.896838e+02
1.230000e-06	5.723604e-06	4.466196e-09	4.050564e+01	2.937131e+02
1.240000e-06	5.830637e-06	4.528068e-09	4.126310e+01	2.975919e+02
1.250000e-06	5.935544e-06	4.585555e-09	4.200552e+01	3.013274e+02
1.260000e-06	6.038248e-06	4.640665e-09	4.273236e+01	3.049217e+02
1.270000e-06	6.138716e-06	4.690985e-09	4.344336e+01	3.083725e+02
1.280000e-06	6.236906e-06	4.737326e-09	4.413825e+01	3.116740e+02
1.290000e-06	6.332773e-06	4.780887e-09	4.481669e+01	3.148183e+02
1.300000e-06	6.426347e-06	4.821707e-09	4.547891e+01	3.177976e+02
1.310000e-06	6.517640e-06	4.861374e-09	4.612498e+01	3.206059e+02
1.320000e-06	6.606610e-06	4.901110e-09	4.675462e+01	3.232404e+02
1.330000e-06	6.693233e-06	4.942321e-09	4.736764e+01	3.257029e+02
1.340000e-06	6.777533e-06	4.979419e-09	4.796423e+01	3.280003e+02
1.350000e-06	6.859458e-06	5.009852e-09	4.854401e+01	3.301438e+02
1.360000e-06	6.938870e-06	5.040068e-09	4.910601e+01	3.321483e+02
1.370000e-06	7.015667e-06	5.070770e-09	4.964949e+01	3.340309e+02
1.380000e-06	7.089749e-06	5.101703e-09	5.017377e+01	3.358086e+02
1.390000e-06	7.161202e-06	5.129145e-09	5.067944e+01	3.374971e+02
1.400000e-06	7.230197e-06	5.152726e-09	5.116771e+01	3.391085e+02
1.410000e-06	7.296631e-06	5.172861e-09	5.163786e+01	3.406505e+02
1.420000e-06	7.360438e-06	5.193181e-09	5.208942e+01	3.421260e+02
1.430000e-06	7.421742e-06	5.216999e-09	5.252326e+01	3.435332e+02
1.440000e-06	7.480544e-06	5.239422e-09	5.293940e+01	3.448664e+02
1.450000e-06	7.536692e-06	5.258683e-09	5.333676e+01	3.461178e+02
1.460000e-06	7.590028e-06	5.275600e-09	5.371422e+01	3.472790e+02
1.470000e-06	7.640277e-06	5.291888e-09	5.406982e+01	3.483426e+02
1.480000e-06	7.687475e-06	5.306697e-09	5.440384e+01	3.493043e+02
1.490000e-06	7.731989e-06	5.320622e-09	5.471887e+01	3.501635e+02
1.500000e-06	7.773763e-06	5.332711e-09	5.501450e+01	3.509239e+02
1.510000e-06	7.812709e-06	5.342708e-09	5.529011e+01	3.515930e+02
1.520000e-06	7.848924e-06	5.351923e-09	5.554641e+01	3.521818e+02
1.530000e-06	7.882342e-06	5.361321e-09	5.578291e+01	3.527027e+02
1.540000e-06	7.912951e-06	5.371566e-09	5.599952e+01	3.531682e+02
1.550000e-06	7.940828e-06	5.381464e-09	5.619681e+01	3.535892e+02
1.560000e-06	7.965808e-06	5.389533e-09	5.637359e+01	3.539731e+02
1.570000e-06	7.987845e-06	5.395342e-09	5.652954e+01	3.543235e+02
1.580000e-06	8.007134e-06	5.400854e-09	5.666605e+01	3.546395e+02
1.590000e-06	8.023529e-06	5.405746e-09	5.678208e+01	3.549156e+02
1.600000e-06	8.036902e-06	5.408984e-09	5.687672e+01	3.551436e+02
1.610000e-06	8.047192e-06	5.411332e-09	5.694954e+01	3.553132e+02
1.620000e-06	8.054371e-06	5.414019e-09	5.700035e+01	3.554142e+02
1.630000e-06	8.058710e-06	5.416745e-09	5.703106e+01	3.554383e+02
1.640000e-06	8.060186e-06	5.421465e-09	5.704150e+01	3.553803e+02
1.650000e-06	8.058828e-06	5.415348e-09	5.703189e+01	3.552398e+02
1.660000e-06	8.054874e-06	5.407611e-09	5.700391e+01	3.550208e+02
1.670000e-06	8.048191e-06	5.407760e-09	5.695661e+01	3.547324e+02
1.680000e-06	8.038836e-06	5.404879e-09	5.689041e+01	3.543872e+02
1.690000e-06	8.026735e-06	5.401344e-09	5.680477e+01	3.540001e+02
1.700000e-06	8.011800e-06	5.406050e-09	5.669908e+01	3.535865e+02
1.710000e-06	7.994372e-06	5.419904e-09	5.657573e+01	3.531605e+02
1.720000e-06	7.974653e-06	5.391046e-09	5.643619e+01	3.527330e+02
1.730000e-06	7.952249e-06	5.244353e-09	5.627764e+01	3.523104e+02
1.740000e-06	7.926425e-06	5.281183e-09	5.609488e+01	3.518938e+02
1.750000e-06	7.896909e-06	5.345679e-09	5.588599e+01	3.514789e+02
1.760000e-06	7.864171e-06	5.313054e-09	5.565431e+01	3.510566e+02
1.770000e-06	7.829043e-06	5.334764e-09	5.540571e+01	3.506137e+02
1.780000e-06	7.791617e-06	5.461626e-09	5.514085e+01	3.501349e+02
1.790000e-06	7.751944e-06	5.319517e-09	5.486008e+01	3.496041e+02
1.800000e-06	7.710105e-06	5.253975e-09	5.456400e+01	3.490061e+02
1.810000e-06	7.665727e-06	5.410002e-09	5.424993e+01	3.483283e+02
1.820000e-06	7.618761e-06	5.223987e-09	5.391756e+01	3.475615e+02
1.830000e-06	7.568978e-06	5.353622e-09	5.356525e+01	3.467007e+02
1.840000e-06	7.516114e-06	5.280327e-09	5.319113e+01	3.457449e+02
1.850000e-06	7.460383e-06	5.234574e-09	5.279672e+01	3.446969e+02
1.860000e-06	7.401950e-06	5.331444e-09	5.238320e+01	3.435623e+02
1.870000e-06	7.340886e-06	5.139491e-09	5.195105e+01	3.423484e+02
1.880000e-06	7.277060e-06	5.283227e-09	5.149936e+01	3.410633e+02
1.890000e-06	7.210371e-06	5.193876e-09	5.102740e+01	3.397148e+02
1.900000e-06	7.140813e-06	5.136309e-09	5.053515e+01	3.383092e+02
1.910000e-06	7.068388e-06	5.170838e-09	5.002260e+01	3.368511e+02
1.920000e-06	6.993321e-06	5.117313e-09	4.949135e+01	3.353431e+02
1.930000e-06	6.915478e-06	5.162190e-09	4.894046e+01	3.337855e+02
1.940000e-06	6.834933e-06	5.005607e-09	4.837045e+01	3.321772e+02
1.950000e-06	6.751923e-06	5.071842e-09	4.778299e+01	3.305154e+02
1.960000e-06	6.666379e-06	5.035107e-09	4.717760e+01	3.287968e+02
1.970000e-06	6.578379e-06	4.977739e-09	4.655483e+01	3.270177e+02
1.980000e-06	6.488073e-06	4.992298e-09	4.591574e+01	3.251745e+02
1.990000e-06	6.395574e-06	4.945807e-09	4.526113e+01	3.232638e+02
2.000000e-06	6.300713e-06	4.929347e-09	4.458980e+01	3.212828e+02
2.010000e-06	6.203566e-06	4.825049e-09	4.390230e+01	3.192291e+02
2.020000e-06	6.104252e-06	4.848622e-09	4.319946e+01	3.171007e+02
2.030000e-06	6.002762e-06	4.816709e-09	4.248122e+01	3.148956e+02
2.040000e-06	5.899105e-06	4.791846e-09	4.174764e+01	3.126121e+02
2.050000e-06	5.793410e-06	4.733764e-09	4.099965e+01	3.102485e+02
2.060000e-06	5.685843e-06	4.700686e-09	4.023840e+01	3.078031e+02
2.070000e-06	5.576286e-06	4.666333e-09	3.946307e+01	3.052742e+02
2.080000e-06	5.464670e-06	4.602654e-09	3.867317e+01	3.026603e+02
2.090000e-06	5.350987e-06	4.586209e-09	3.786865e+01	2.999600e+02
2.100000e-06	5.235202e-06	4.547851e-09	3.704924e+01	2.971719e+02
2.110000e-06	5.117314e-06	4.509882e-09	3.621495e+01	2.942949e+02
2.120000e-06	4.997480e-06	4.444254e-09	3.536689e+01	2.913278e+02
2.130000e-06	4.875884e-06	4.414136e-09	3.450637e+01	2.882691e+02
2.140000e-06	4.752570e-06	4.361294e-09	3.363368e+01	2.851167e+02
2.150000e-06	4.627474e-06	4.314029e-09	3.274838e+01	2.818681e+02
2.160000e-06	4.500655e-06	4.257934e-09	3.185089e+01	2.785196e+02
2.170000e-06	4.372162e-06	4.216442e-09	3.094155e+01	2.750667e+02
2.180000e-06	4.242119e-06	4.165235e-09	3.002124e+01	2.715043e+02
2.190000e-06	4.110556e-06	4.106490e-09	2.909018e+01	2.678265e+02
2.200000e-06	3.977413e-06	4.046099e-09	2.814793e+01	2.640274e+02
2.210000e-06	3.842791e-06	3.976832e-09	2.719522e+01	2.601015e+02
2.220000e-06	3.706652e-06	3.916777e-09	2.623177e+01	2.560441e+02
2.230000e-06	3.569155e-06	3.856665e-09	2.525872e+01	2.518514e+02
2.240000e-06	3.430352e-06	3.803191e-09	2.427642e+01	2.475212e+02
2.250000e-06	3.290153e-06	3.734162e-09	2.328423e+01	2.430522e+02
2.260000e-06	3.148650e-06	3.661070e-09	2.228283e+01	2.384445e+02
2.270000e-06	3.005927e-06	3.578995e-09	2.127278e+01	2.336980e+02
2.280000e-06	2.862005e-06	3.503993e-09	2.025425e+01	2.288126e+02
2.290000e-06	2.717040e-06	3.430524e-09	1.922835e+01	2.237869e+02
2.300000e-06	2.571227e-06	3.359887e-09	1.819643e+01	2.186174e+02
2.310000e-06	2.424566e-06	3.283814e-09	1.715852e+01	2.132985e+02
2.320000e-06	2.277103e-06	3.196800e-09	1.611493e+01	2.078218e+02
2.330000e-06	2.128851e-06	3.105598e-09	1.506576e+01	2.021763e+02
2.340000e-06	1.979816e-06	3.012630e-09	1.401105e+01	1.963491e+02
2.350000e-06	1.830104e-06	2.918391e-09	1.295155e+01	1.903262e+02
2.360000e-06	1.679861e-06	2.823107e-09	1.188829e+01	1.840937e+02
2.370000e-06	1.529159e-06	2.727953e-09	1.082177e+01	1.776387e+02
2.380000e-06	1.377991e-06	2.631495e-09	9.751969e+00	1.709504e+02
2.390000e-06	1.226296e-06	2.526424e-09	8.678432e+00	1.640208e+02
2.400000e-06	1.074070e-06	2.411569e-09	7.601138e+00	1.568445e+02
2.410000e-06	9.214206e-07	2.296279e-09	6.520843e+00	1.494187e+02
2.420000e-06	7.685085e-07	2.178442e-09	5.438693e+00	1.417417e+02
2.430000e-06	6.153866e-07	2.057636e-09	4.355057e+00	1.338113e+02
2.440000e-06	4.620625e-07	1.935432e-09	3.269991e+00	1.256235e+02
2.450000e-06	3.086100e-07	1.811307e-09	2.184016e+00	1.171702e+02
2.460000e-06	1.550059e-07	1.679808e-09	1.096969e+00	1.084375e+02
2.470000e-06	1.295396e-09	1.538461e-09	9.167450e-03	9.940549e+01
2.480000e-06	-1.523916e-07	1.394554e-09	-1.078467e+00	9.004766e+01
2.490000e-06	-3.060173e-07	1.248496e-09	-2.165668e+00	8.033230e+01
2.500000e-06	-4.596078e-07	1.096271e-09	-3.252619e+00	7.022473e+01
2.510000e-06	-6.130865e-07	9.360980e-10	-4.338780e+00	5.969057e+01
2.520000e-06	-7.663578e-07	7.691116e-10	-5.423472e+00	4.869990e+01
2.530000e-06	-9.194210e-07	5.923824e-10	-6.506692e+00	3.723170e+01
2.540000e-06	-1.072219e-06	4.063544e-10	-7.588034e+00	2.527835e+01
2.550000e-06	-1.224576e-06	2.162460e-10	-8.666255e+00	1.284949e+01
2.560000e-06	-1.376423e-06	2.103531e-11	-9.740869e+00	-2.517171e-02
2.570000e-06	-1.527815e-06	-1.822851e-10	-1.081226e+01	-1.329450e+01
2.580000e-06	-1.678650e-06	-3.923644e-10	-1.187972e+01	-2.688631e+01
2.590000e-06	-1.828817e-06	-6.055832e-10	-1.294244e+01	-4.070956e+01
2.600000e-06	-1.978304e-06	-8.212093e-10	-1.400035e+01	-5.465821e+01
2.610000e-06	-2.127092e-06	-1.038783e-09	-1.505331e+01	-6.861646e+01
2.620000e-06	-2.275083e-06	-1.255867e-09	-1.610064e+01	-8.246499e+01
2.630000e-06	-2.422158e-06	-1.468923e-09	-1.714148e+01	-9.608740e+01
2.640000e-06	-2.568298e-06	-1.676537e-09	-1.817571e+01	-1.093765e+02
2.650000e-06	-2.713547e-06	-1.875611e-09	-1.920362e+01	-1.222399e+02
2.660000e-06	-2.857759e-06	-2.063441e-09	-2.022420e+01	-1.346037e+02
2.670000e-06	-3.000825e-06	-2.240533e-09	-2.123668e+01	-1.464154e+02
2.680000e-06	-3.142715e-06	-2.408661e-09	-2.224082e+01	-1.576440e+02
2.690000e-06	-3.283343e-06	-2.569686e-09	-2.323604e+01	-1.682794e+02
2.700000e-06	-3.422667e-06	-2.723645e-09	-2.422203e+01	-1.783294e+02
2.710000e-06	-3.560667e-06	-2.869284e-09	-2.519865e+01	-1.878160e+02
2.720000e-06	-3.697318e-06	-3.008365e-09	-2.616572e+01	-1.967711e+02
2.730000e-06	-3.832621e-06	-3.142037e-09	-2.712325e+01	-2.052323e+02
2.740000e-06	-3.966610e-06	-3.268825e-09	-2.807148e+01	-2.132383e+02
2.750000e-06	-4.099182e-06	-3.386922e-09	-2.900969e+01	-2.208261e+02
2.760000e-06	-4.230256e-06	-3.495255e-09	-2.993729e+01	-2.280287e+02
2.770000e-06	-4.359896e-06	-3.597371e-09	-3.085475e+01	-2.348739e+02
2.780000e-06	-4.488111e-06	-3.695612e-09	-3.176212e+01	-2.413844e+02
2.790000e-06	-4.614765e-06	-3.789925e-09	-3.265844e+01	-2.475785e+02
2.800000e-06	-4.739795e-06	-3.880272e-09	-3.354327e+01	-2.534718e+02
2.810000e-06	-4.863196e-06	-3.965371e-09	-3.441658e+01	-2.590785e+02
2.820000e-06	-4.984865e-06	-4.045938e-09	-3.527762e+01	-2.644130e+02
2.830000e-06	-5.104690e-06	-4.122115e-09	-3.612561e+01	-2.694912e+02
2.840000e-06	-5.222536e-06	-4.196147e-09	-3.695960e+01	-2.743302e+02
2.850000e-06	-5.338240e-06	-4.267550e-09	-3.777844e+01	-2.789488e+02
2.860000e-06	-5.451735e-06	-4.334334e-09	-3.858163e+01	-2.833664e+02
2.870000e-06	-5.562990e-06	-4.398260e-09	-3.936898e+01	-2.876016e+02
2.880000e-06	-5.672144e-06	-4.461337e-09	-4.014145e+01	-2.916708e+02
2.890000e-06	-5.779408e-06	-4.524430e-09	-4.090055e+01	-2.955869e+02
2.900000e-06	-5.884746e-06	-4.585330e-09	-4.164603e+01	-2.993584e+02
2.910000e-06	-5.987963e-06	-4.642533e-09	-4.237649e+01	-3.029885e+02
2.920000e-06	-6.088925e-06	-4.696285e-09	-4.309099e+01	-3.064762e+02
2.930000e-06	-6.187681e-06	-4.746727e-09	-4.378988e+01	-3.098162e+02
2.940000e-06	-6.284240e-06	-4.795267e-09	-4.447322e+01	-3.130012e+02
