# Temperatura_=_45.38
# Concentracion g/m^3_=_5000.0
# C_Vs_to_Am_M_A/Vsm_=_65563218390.804596
# pendiente_HvsI_1/m_=_3716.3
# ordenada_HvsI_A/m_=_1297.0
# frecuencia_Hz_=_302512.4860836894

Tiempo_(s)	Campo_(V.s)	Magnetizacion_(V.s)	Campo_(kA/m)	Magnetizacion_(A/m)
0.000000e+00	-8.087405e-06	-5.661207e-09	-5.685857e+01	-3.707025e+02
1.000000e-08	-8.083228e-06	-5.656398e-09	-5.682920e+01	-3.704745e+02
2.000000e-08	-8.076425e-06	-5.652984e-09	-5.678138e+01	-3.701696e+02
3.000000e-08	-8.066879e-06	-5.650715e-09	-5.671427e+01	-3.697951e+02
4.000000e-08	-8.054369e-06	-5.650175e-09	-5.662632e+01	-3.693596e+02
5.000000e-08	-8.038884e-06	-5.645620e-09	-5.651744e+01	-3.688728e+02
6.000000e-08	-8.020725e-06	-5.639542e-09	-5.638978e+01	-3.683446e+02
7.000000e-08	-8.000256e-06	-5.635730e-09	-5.624587e+01	-3.677842e+02
8.000000e-08	-7.977174e-06	-5.630195e-09	-5.608359e+01	-3.671993e+02
9.000000e-08	-7.950888e-06	-5.632602e-09	-5.589879e+01	-3.665959e+02
1.000000e-07	-7.921376e-06	-5.633299e-09	-5.569131e+01	-3.659779e+02
1.100000e-07	-7.888972e-06	-5.604594e-09	-5.546349e+01	-3.653463e+02
1.200000e-07	-7.853768e-06	-5.580337e-09	-5.521598e+01	-3.647000e+02
1.300000e-07	-7.816042e-06	-5.575996e-09	-5.495075e+01	-3.640350e+02
1.400000e-07	-7.776076e-06	-5.552399e-09	-5.466977e+01	-3.633451e+02
1.500000e-07	-7.733809e-06	-5.491792e-09	-5.437261e+01	-3.626221e+02
1.600000e-07	-7.688975e-06	-5.498143e-09	-5.405740e+01	-3.618561e+02
1.700000e-07	-7.641305e-06	-5.510806e-09	-5.372226e+01	-3.610358e+02
1.800000e-07	-7.590696e-06	-5.444121e-09	-5.336645e+01	-3.601494e+02
1.900000e-07	-7.537068e-06	-5.484158e-09	-5.298942e+01	-3.591853e+02
2.000000e-07	-7.480553e-06	-5.476351e-09	-5.259210e+01	-3.581323e+02
2.100000e-07	-7.421344e-06	-5.418977e-09	-5.217583e+01	-3.569808e+02
2.200000e-07	-7.359548e-06	-5.417989e-09	-5.174136e+01	-3.557234e+02
2.300000e-07	-7.295099e-06	-5.381834e-09	-5.128826e+01	-3.543555e+02
2.400000e-07	-7.227816e-06	-5.360025e-09	-5.081522e+01	-3.528753e+02
2.500000e-07	-7.157757e-06	-5.325566e-09	-5.032267e+01	-3.512846e+02
2.600000e-07	-7.084836e-06	-5.306581e-09	-4.981000e+01	-3.495880e+02
2.700000e-07	-7.009044e-06	-5.275025e-09	-4.927714e+01	-3.477930e+02
2.800000e-07	-6.930459e-06	-5.249090e-09	-4.872466e+01	-3.459086e+02
2.900000e-07	-6.849176e-06	-5.227522e-09	-4.815319e+01	-3.439448e+02
3.000000e-07	-6.765531e-06	-5.183599e-09	-4.756512e+01	-3.419115e+02
3.100000e-07	-6.679620e-06	-5.167146e-09	-4.696113e+01	-3.398170e+02
3.200000e-07	-6.591284e-06	-5.132976e-09	-4.634008e+01	-3.376674e+02
3.300000e-07	-6.500488e-06	-5.100608e-09	-4.570174e+01	-3.354656e+02
3.400000e-07	-6.407418e-06	-5.077633e-09	-4.504741e+01	-3.332114e+02
3.500000e-07	-6.312062e-06	-5.042660e-09	-4.437701e+01	-3.309010e+02
3.600000e-07	-6.214348e-06	-5.000816e-09	-4.369003e+01	-3.285279e+02
3.700000e-07	-6.114389e-06	-4.957287e-09	-4.298726e+01	-3.260837e+02
3.800000e-07	-6.012246e-06	-4.920073e-09	-4.226915e+01	-3.235590e+02
3.900000e-07	-5.907892e-06	-4.879002e-09	-4.153549e+01	-3.209449e+02
4.000000e-07	-5.801445e-06	-4.839539e-09	-4.078711e+01	-3.182337e+02
4.100000e-07	-5.693017e-06	-4.791539e-09	-4.002480e+01	-3.154202e+02
4.200000e-07	-5.582659e-06	-4.746615e-09	-3.924894e+01	-3.125021e+02
4.300000e-07	-5.470224e-06	-4.704780e-09	-3.845846e+01	-3.094799e+02
4.400000e-07	-5.355522e-06	-4.656846e-09	-3.765204e+01	-3.063565e+02
4.500000e-07	-5.238720e-06	-4.606335e-09	-3.683087e+01	-3.031368e+02
4.600000e-07	-5.120040e-06	-4.561265e-09	-3.599649e+01	-2.998260e+02
4.700000e-07	-4.999531e-06	-4.513833e-09	-3.514925e+01	-2.964288e+02
4.800000e-07	-4.877147e-06	-4.457555e-09	-3.428883e+01	-2.929485e+02
4.900000e-07	-4.752977e-06	-4.400016e-09	-3.341585e+01	-2.893853e+02
5.000000e-07	-4.627194e-06	-4.342786e-09	-3.253153e+01	-2.857368e+02
5.100000e-07	-4.499767e-06	-4.284979e-09	-3.163565e+01	-2.819972e+02
5.200000e-07	-4.370636e-06	-4.221468e-09	-3.072780e+01	-2.781583e+02
5.300000e-07	-4.239849e-06	-4.158812e-09	-2.980830e+01	-2.742104e+02
5.400000e-07	-4.107495e-06	-4.095098e-09	-2.887778e+01	-2.701433e+02
5.500000e-07	-3.973682e-06	-4.031136e-09	-2.793701e+01	-2.659476e+02
5.600000e-07	-3.838362e-06	-3.965584e-09	-2.698564e+01	-2.616163e+02
5.700000e-07	-3.701485e-06	-3.900812e-09	-2.602332e+01	-2.571450e+02
5.800000e-07	-3.563113e-06	-3.835284e-09	-2.505050e+01	-2.525329e+02
5.900000e-07	-3.423275e-06	-3.764925e-09	-2.406736e+01	-2.477819e+02
6.000000e-07	-3.281914e-06	-3.689253e-09	-2.307352e+01	-2.428964e+02
6.100000e-07	-3.139140e-06	-3.610949e-09	-2.206975e+01	-2.378819e+02
6.200000e-07	-2.995134e-06	-3.531718e-09	-2.105732e+01	-2.327431e+02
6.300000e-07	-2.850027e-06	-3.449533e-09	-2.003714e+01	-2.274825e+02
6.400000e-07	-2.704019e-06	-3.365808e-09	-1.901063e+01	-2.220994e+02
6.500000e-07	-2.557199e-06	-3.278963e-09	-1.797841e+01	-2.165883e+02
6.600000e-07	-2.409545e-06	-3.190566e-09	-1.694033e+01	-2.109390e+02
6.700000e-07	-2.261057e-06	-3.101009e-09	-1.589638e+01	-2.051368e+02
6.800000e-07	-2.111806e-06	-3.011548e-09	-1.484707e+01	-1.991639e+02
6.900000e-07	-1.961919e-06	-2.919103e-09	-1.379329e+01	-1.930004e+02
7.000000e-07	-1.811393e-06	-2.822735e-09	-1.273501e+01	-1.866270e+02
7.100000e-07	-1.660199e-06	-2.723220e-09	-1.167205e+01	-1.800265e+02
7.200000e-07	-1.508374e-06	-2.621750e-09	-1.060464e+01	-1.731856e+02
7.300000e-07	-1.355945e-06	-2.514790e-09	-9.532981e+00	-1.660957e+02
7.400000e-07	-1.202987e-06	-2.398631e-09	-8.457613e+00	-1.587535e+02
7.500000e-07	-1.049599e-06	-2.280801e-09	-7.379218e+00	-1.511598e+02
7.600000e-07	-8.958409e-07	-2.162966e-09	-6.298218e+00	-1.433181e+02
7.700000e-07	-7.417589e-07	-2.041986e-09	-5.214942e+00	-1.352320e+02
7.800000e-07	-5.874323e-07	-1.914980e-09	-4.129948e+00	-1.269025e+02
7.900000e-07	-4.329403e-07	-1.784440e-09	-3.043790e+00	-1.183253e+02
8.000000e-07	-2.783379e-07	-1.649762e-09	-1.956857e+00	-1.094882e+02
8.100000e-07	-1.236188e-07	-1.509047e-09	-8.691031e-01	-1.003701e+02
8.200000e-07	3.119950e-08	-1.362900e-09	2.193484e-01	-9.094030e+01
8.300000e-07	1.860910e-07	-1.209895e-09	1.308315e+00	-8.116045e+01
8.400000e-07	3.409150e-07	-1.050931e-09	2.396806e+00	-7.098695e+01
8.500000e-07	4.956013e-07	-8.868620e-10	3.484329e+00	-6.037526e+01
8.600000e-07	6.501906e-07	-7.183756e-10	4.571171e+00	-4.928504e+01
8.700000e-07	8.046443e-07	-5.440837e-10	5.657059e+00	-3.768571e+01
8.800000e-07	9.588743e-07	-3.605232e-10	6.741374e+00	-2.556195e+01
8.900000e-07	1.112789e-06	-1.689465e-10	7.823475e+00	-1.291835e+01
9.000000e-07	1.266397e-06	2.778781e-11	8.903412e+00	2.173108e-01
9.100000e-07	1.419564e-06	2.296981e-10	9.980255e+00	1.379252e+01
9.200000e-07	1.572089e-06	4.376739e-10	1.105258e+01	2.773067e+01
9.300000e-07	1.723872e-06	6.516042e-10	1.211970e+01	4.193373e+01
9.400000e-07	1.874873e-06	8.700323e-10	1.318131e+01	5.628690e+01
9.500000e-07	2.025133e-06	1.090182e-09	1.423772e+01	7.066479e+01
9.600000e-07	2.174717e-06	1.308320e-09	1.528937e+01	8.493852e+01
9.700000e-07	2.323564e-06	1.523167e-09	1.633584e+01	9.898307e+01
9.800000e-07	2.471468e-06	1.733558e-09	1.737568e+01	1.126842e+02
9.900000e-07	2.618449e-06	1.935943e-09	1.840903e+01	1.259444e+02
1.000000e-06	2.764667e-06	2.125057e-09	1.943702e+01	1.386868e+02
1.010000e-06	2.909967e-06	2.303722e-09	2.045855e+01	1.508580e+02
1.020000e-06	3.054093e-06	2.475442e-09	2.147182e+01	1.624281e+02
1.030000e-06	3.196969e-06	2.641509e-09	2.247632e+01	1.733888e+02
1.040000e-06	3.338569e-06	2.799355e-09	2.347184e+01	1.837509e+02
1.050000e-06	3.478806e-06	2.949273e-09	2.445778e+01	1.935396e+02
1.060000e-06	3.617675e-06	3.092045e-09	2.543410e+01	2.027896e+02
1.070000e-06	3.755171e-06	3.229044e-09	2.640077e+01	2.115406e+02
1.080000e-06	3.891118e-06	3.358057e-09	2.735654e+01	2.198328e+02
1.090000e-06	4.025563e-06	3.477405e-09	2.830176e+01	2.277039e+02
1.100000e-06	4.158687e-06	3.589590e-09	2.923769e+01	2.351866e+02
1.110000e-06	4.290380e-06	3.697258e-09	3.016356e+01	2.423079e+02
1.120000e-06	4.420633e-06	3.802119e-09	3.107930e+01	2.490892e+02
1.130000e-06	4.549336e-06	3.901845e-09	3.198414e+01	2.555476e+02
1.140000e-06	4.676379e-06	3.994755e-09	3.287732e+01	2.616974e+02
1.150000e-06	4.801871e-06	4.081295e-09	3.375959e+01	2.675518e+02
1.160000e-06	4.925729e-06	4.163081e-09	3.463038e+01	2.731248e+02
1.170000e-06	5.047934e-06	4.241746e-09	3.548954e+01	2.784321e+02
1.180000e-06	5.168316e-06	4.319130e-09	3.633589e+01	2.834914e+02
1.190000e-06	5.286742e-06	4.392141e-09	3.716849e+01	2.883228e+02
1.200000e-06	5.403246e-06	4.462170e-09	3.798757e+01	2.929471e+02
1.210000e-06	5.517605e-06	4.531195e-09	3.879157e+01	2.973850e+02
1.220000e-06	5.629718e-06	4.600088e-09	3.957978e+01	3.016554e+02
1.230000e-06	5.739785e-06	4.665261e-09	4.035361e+01	3.057741e+02
1.240000e-06	5.847907e-06	4.726434e-09	4.111376e+01	3.097521e+02
1.250000e-06	5.954006e-06	4.783013e-09	4.185969e+01	3.135958e+02
1.260000e-06	6.057880e-06	4.835341e-09	4.258998e+01	3.173065e+02
1.270000e-06	6.159504e-06	4.884612e-09	4.330445e+01	3.208812e+02
1.280000e-06	6.258902e-06	4.932354e-09	4.400326e+01	3.243138e+02
1.290000e-06	6.355878e-06	4.981462e-09	4.468505e+01	3.275969e+02
1.300000e-06	6.450425e-06	5.029373e-09	4.534977e+01	3.307231e+02
1.310000e-06	6.542711e-06	5.074865e-09	4.599859e+01	3.336872e+02
1.320000e-06	6.632676e-06	5.118240e-09	4.663109e+01	3.364869e+02
1.330000e-06	6.720226e-06	5.159949e-09	4.724661e+01	3.391238e+02
1.340000e-06	6.805461e-06	5.198018e-09	4.784585e+01	3.416036e+02
1.350000e-06	6.888412e-06	5.230476e-09	4.842904e+01	3.439353e+02
1.360000e-06	6.968859e-06	5.261700e-09	4.899463e+01	3.461308e+02
1.370000e-06	7.046701e-06	5.293129e-09	4.954189e+01	3.482029e+02
1.380000e-06	7.121950e-06	5.323879e-09	5.007093e+01	3.501645e+02
1.390000e-06	7.194480e-06	5.353011e-09	5.058085e+01	3.520266e+02
1.400000e-06	7.264402e-06	5.380970e-09	5.107244e+01	3.537980e+02
1.410000e-06	7.331830e-06	5.408789e-09	5.154649e+01	3.554837e+02
1.420000e-06	7.396597e-06	5.435564e-09	5.200184e+01	3.570858e+02
1.430000e-06	7.458729e-06	5.459981e-09	5.243866e+01	3.586031e+02
1.440000e-06	7.518375e-06	5.480824e-09	5.285800e+01	3.600324e+02
1.450000e-06	7.575383e-06	5.498812e-09	5.325880e+01	3.613694e+02
1.460000e-06	7.629640e-06	5.515124e-09	5.364025e+01	3.626100e+02
1.470000e-06	7.680898e-06	5.530698e-09	5.400062e+01	3.637516e+02
1.480000e-06	7.728981e-06	5.545389e-09	5.433867e+01	3.647935e+02
1.490000e-06	7.774210e-06	5.560549e-09	5.465665e+01	3.657378e+02
1.500000e-06	7.816800e-06	5.575864e-09	5.495608e+01	3.665895e+02
1.510000e-06	7.856580e-06	5.589811e-09	5.523576e+01	3.673556e+02
1.520000e-06	7.893550e-06	5.602062e-09	5.549567e+01	3.680448e+02
1.530000e-06	7.927806e-06	5.612064e-09	5.573651e+01	3.686663e+02
1.540000e-06	7.959222e-06	5.621456e-09	5.595738e+01	3.692285e+02
1.550000e-06	7.987827e-06	5.631193e-09	5.615849e+01	3.697384e+02
1.560000e-06	8.013561e-06	5.638989e-09	5.633941e+01	3.702003e+02
1.570000e-06	8.036339e-06	5.644757e-09	5.649955e+01	3.706157e+02
1.580000e-06	8.056337e-06	5.650966e-09	5.664015e+01	3.709833e+02
1.590000e-06	8.073476e-06	5.657591e-09	5.676064e+01	3.712989e+02
1.600000e-06	8.087548e-06	5.662459e-09	5.685957e+01	3.715565e+02
1.610000e-06	8.098477e-06	5.666250e-09	5.693641e+01	3.717491e+02
1.620000e-06	8.106303e-06	5.670413e-09	5.699144e+01	3.718697e+02
1.630000e-06	8.111285e-06	5.673567e-09	5.702646e+01	3.719123e+02
1.640000e-06	8.113424e-06	5.675051e-09	5.704150e+01	3.718727e+02
1.650000e-06	8.112652e-06	5.672357e-09	5.703607e+01	3.717496e+02
1.660000e-06	8.109146e-06	5.668428e-09	5.701142e+01	3.715440e+02
1.670000e-06	8.102892e-06	5.662268e-09	5.696745e+01	3.712601e+02
1.680000e-06	8.093965e-06	5.655179e-09	5.690469e+01	3.709042e+02
1.690000e-06	8.082311e-06	5.648496e-09	5.682276e+01	3.704847e+02
1.700000e-06	8.067749e-06	5.643378e-09	5.672038e+01	3.700111e+02
1.710000e-06	8.050569e-06	5.635361e-09	5.659959e+01	3.694934e+02
1.720000e-06	8.031107e-06	5.615424e-09	5.646277e+01	3.689408e+02
1.730000e-06	8.009095e-06	5.602517e-09	5.630801e+01	3.683618e+02
1.740000e-06	7.983843e-06	5.575174e-09	5.613048e+01	3.677628e+02
1.750000e-06	7.954904e-06	5.564638e-09	5.592702e+01	3.671483e+02
1.760000e-06	7.922630e-06	5.569023e-09	5.570012e+01	3.665202e+02
1.770000e-06	7.887778e-06	5.551594e-09	5.545509e+01	3.658779e+02
1.780000e-06	7.850506e-06	5.537061e-09	5.519305e+01	3.652184e+02
1.790000e-06	7.810962e-06	5.578978e-09	5.491504e+01	3.645359e+02
1.800000e-06	7.769324e-06	5.568602e-09	5.462230e+01	3.638229e+02
1.810000e-06	7.725173e-06	5.509762e-09	5.431190e+01	3.630698e+02
1.820000e-06	7.678383e-06	5.548260e-09	5.398294e+01	3.622658e+02
1.830000e-06	7.628857e-06	5.493706e-09	5.363474e+01	3.613991e+02
1.840000e-06	7.576223e-06	5.486380e-09	5.326470e+01	3.604580e+02
1.850000e-06	7.520644e-06	5.502686e-09	5.287395e+01	3.594310e+02
1.860000e-06	7.462328e-06	5.450558e-09	5.246396e+01	3.583081e+02
1.870000e-06	7.401358e-06	5.467441e-09	5.203531e+01	3.570812e+02
1.880000e-06	7.337628e-06	5.419216e-09	5.158726e+01	3.557447e+02
1.890000e-06	7.271025e-06	5.414121e-09	5.111901e+01	3.542961e+02
1.900000e-06	7.201608e-06	5.394823e-09	5.063097e+01	3.527362e+02
1.910000e-06	7.129318e-06	5.352334e-09	5.012273e+01	3.510688e+02
1.920000e-06	7.054325e-06	5.349711e-09	4.959549e+01	3.493006e+02
1.930000e-06	6.976569e-06	5.301645e-09	4.904883e+01	3.474403e+02
1.940000e-06	6.896061e-06	5.292788e-09	4.848282e+01	3.454977e+02
1.950000e-06	6.813042e-06	5.243961e-09	4.789915e+01	3.434829e+02
1.960000e-06	6.727467e-06	5.216499e-09	4.729751e+01	3.414047e+02
1.970000e-06	6.639402e-06	5.194036e-09	4.667837e+01	3.392700e+02
1.980000e-06	6.549007e-06	5.133775e-09	4.604285e+01	3.370826e+02
1.990000e-06	6.456340e-06	5.109966e-09	4.539135e+01	3.348432e+02
2.000000e-06	6.361321e-06	5.064764e-09	4.472333e+01	3.325490e+02
2.010000e-06	6.264028e-06	5.042719e-09	4.403930e+01	3.301942e+02
2.020000e-06	6.164520e-06	5.003771e-09	4.333971e+01	3.277708e+02
2.030000e-06	6.062733e-06	4.970970e-09	4.262410e+01	3.252696e+02
2.040000e-06	5.958747e-06	4.926793e-09	4.189303e+01	3.226815e+02
2.050000e-06	5.852731e-06	4.878325e-09	4.114768e+01	3.199982e+02
2.060000e-06	5.744793e-06	4.839883e-09	4.038882e+01	3.172139e+02
2.070000e-06	5.634815e-06	4.790974e-09	3.961562e+01	3.143254e+02
2.080000e-06	5.522783e-06	4.752864e-09	3.882797e+01	3.113322e+02
2.090000e-06	5.408690e-06	4.703099e-09	3.802584e+01	3.082369e+02
2.100000e-06	5.292463e-06	4.662772e-09	3.720871e+01	3.050437e+02
2.110000e-06	5.174110e-06	4.613030e-09	3.637663e+01	3.017580e+02
2.120000e-06	5.053778e-06	4.561920e-09	3.553063e+01	2.983847e+02
2.130000e-06	4.931705e-06	4.499932e-09	3.467240e+01	2.949275e+02
2.140000e-06	4.807896e-06	4.442110e-09	3.380195e+01	2.913877e+02
2.150000e-06	4.682307e-06	4.390296e-09	3.291900e+01	2.877636e+02
2.160000e-06	4.555012e-06	4.342382e-09	3.202405e+01	2.840503e+02
2.170000e-06	4.426076e-06	4.291888e-09	3.111756e+01	2.802403e+02
2.180000e-06	4.295577e-06	4.230819e-09	3.020010e+01	2.763242e+02
2.190000e-06	4.163495e-06	4.167129e-09	2.927149e+01	2.722917e+02
2.200000e-06	4.029794e-06	4.098480e-09	2.833150e+01	2.681332e+02
2.210000e-06	3.894589e-06	4.032589e-09	2.738095e+01	2.638408e+02
2.220000e-06	3.757897e-06	3.964664e-09	2.641993e+01	2.594093e+02
2.230000e-06	3.619793e-06	3.895999e-09	2.544899e+01	2.548369e+02
2.240000e-06	3.480268e-06	3.821428e-09	2.446806e+01	2.501248e+02
2.250000e-06	3.339327e-06	3.746578e-09	2.347717e+01	2.452768e+02
2.260000e-06	3.197079e-06	3.671797e-09	2.247709e+01	2.402982e+02
2.270000e-06	3.053549e-06	3.597600e-09	2.146800e+01	2.351940e+02
2.280000e-06	2.908828e-06	3.520523e-09	2.045054e+01	2.299677e+02
2.290000e-06	2.763100e-06	3.440473e-09	1.942600e+01	2.246196e+02
2.300000e-06	2.616592e-06	3.358525e-09	1.839597e+01	2.191454e+02
2.310000e-06	2.469273e-06	3.275602e-09	1.736025e+01	2.135365e+02
2.320000e-06	2.321076e-06	3.188901e-09	1.631834e+01	2.077793e+02
2.330000e-06	2.171992e-06	3.094081e-09	1.527021e+01	2.018567e+02
2.340000e-06	2.022052e-06	2.992782e-09	1.421605e+01	1.957492e+02
2.350000e-06	1.871434e-06	2.890515e-09	1.315714e+01	1.894373e+02
2.360000e-06	1.720280e-06	2.792079e-09	1.209444e+01	1.829028e+02
2.370000e-06	1.568573e-06	2.692625e-09	1.102787e+01	1.761312e+02
2.380000e-06	1.416333e-06	2.590004e-09	9.957543e+00	1.691126e+02
2.390000e-06	1.263596e-06	2.481688e-09	8.883721e+00	1.618421e+02
2.400000e-06	1.110416e-06	2.364854e-09	7.806788e+00	1.543196e+02
2.410000e-06	9.567928e-07	2.243511e-09	6.726740e+00	1.465479e+02
2.420000e-06	8.028507e-07	2.121728e-09	5.644449e+00	1.385309e+02
2.430000e-06	6.487472e-07	1.997933e-09	4.561023e+00	1.302707e+02
2.440000e-06	4.944526e-07	1.867637e-09	3.476253e+00	1.217647e+02
2.450000e-06	3.400336e-07	1.733486e-09	2.390609e+00	1.130032e+02
2.460000e-06	1.855258e-07	1.598056e-09	1.304341e+00	1.039677e+02
2.470000e-06	3.095522e-08	1.456803e-09	2.176309e-01	9.463013e+01
2.480000e-06	-1.236567e-07	1.308660e-09	-8.693699e-01	8.495417e+01
2.490000e-06	-2.782487e-07	1.155223e-09	-1.956230e+00	7.489731e+01
2.500000e-06	-4.327724e-07	9.951313e-10	-3.042610e+00	6.441480e+01
2.510000e-06	-5.872312e-07	8.286038e-10	-4.128534e+00	5.346452e+01
2.520000e-06	-7.415679e-07	6.544920e-10	-5.213600e+00	4.201255e+01
2.530000e-06	-8.957116e-07	4.715710e-10	-6.297308e+00	3.003868e+01
2.540000e-06	-1.049567e-06	2.805564e-10	-7.378991e+00	1.754141e+01
2.550000e-06	-1.203069e-06	8.126494e-11	-8.458185e+00	4.541636e+00
2.560000e-06	-1.356117e-06	-1.245472e-10	-9.534192e+00	-8.915215e+00
2.570000e-06	-1.508626e-06	-3.346336e-10	-1.060641e+01	-2.275923e+01
2.580000e-06	-1.660515e-06	-5.499080e-10	-1.167427e+01	-3.689811e+01
2.590000e-06	-1.811734e-06	-7.723550e-10	-1.273741e+01	-5.122128e+01
2.600000e-06	-1.962374e-06	-9.976673e-10	-1.379649e+01	-6.560567e+01
2.610000e-06	-2.112366e-06	-1.221355e-09	-1.485101e+01	-7.992266e+01
2.620000e-06	-2.261450e-06	-1.441223e-09	-1.589915e+01	-9.404536e+01
2.630000e-06	-2.409513e-06	-1.655366e-09	-1.694010e+01	-1.078558e+02
2.640000e-06	-2.556615e-06	-1.862682e-09	-1.797431e+01	-1.212512e+02
2.650000e-06	-2.702880e-06	-2.060487e-09	-1.900262e+01	-1.341485e+02
2.660000e-06	-2.848254e-06	-2.246589e-09	-2.002467e+01	-1.464874e+02
2.670000e-06	-2.992578e-06	-2.422009e-09	-2.103934e+01	-1.582314e+02
2.680000e-06	-3.135770e-06	-2.588448e-09	-2.204606e+01	-1.693663e+02
2.690000e-06	-3.277723e-06	-2.747334e-09	-2.304406e+01	-1.798979e+02
2.700000e-06	-3.418235e-06	-2.900209e-09	-2.403193e+01	-1.898476e+02
2.710000e-06	-3.557321e-06	-3.048603e-09	-2.500978e+01	-1.992480e+02
2.720000e-06	-3.695123e-06	-3.188954e-09	-2.597859e+01	-2.081378e+02
2.730000e-06	-3.831584e-06	-3.318731e-09	-2.693799e+01	-2.165575e+02
2.740000e-06	-3.966666e-06	-3.441086e-09	-2.788768e+01	-2.245458e+02
2.750000e-06	-4.100329e-06	-3.557453e-09	-2.882740e+01	-2.321369e+02
2.760000e-06	-4.232483e-06	-3.666974e-09	-2.975651e+01	-2.393595e+02
2.770000e-06	-4.363184e-06	-3.770050e-09	-3.067540e+01	-2.462364e+02
2.780000e-06	-4.492512e-06	-3.868396e-09	-3.158464e+01	-2.527860e+02
2.790000e-06	-4.620315e-06	-3.963337e-09	-3.248316e+01	-2.590230e+02
2.800000e-06	-4.746512e-06	-4.054735e-09	-3.337039e+01	-2.649609e+02
2.810000e-06	-4.870955e-06	-4.141609e-09	-3.424529e+01	-2.706132e+02
2.820000e-06	-4.993648e-06	-4.224563e-09	-3.510789e+01	-2.759951e+02
2.830000e-06	-5.114660e-06	-4.302274e-09	-3.595867e+01	-2.811237e+02
2.840000e-06	-5.233758e-06	-4.375123e-09	-3.679599e+01	-2.860186e+02
2.850000e-06	-5.350696e-06	-4.444737e-09	-3.761811e+01	-2.907003e+02
2.860000e-06	-5.465409e-06	-4.514113e-09	-3.842461e+01	-2.951898e+02
2.870000e-06	-5.577922e-06	-4.583711e-09	-3.921563e+01	-2.995068e+02
2.880000e-06	-5.688223e-06	-4.649519e-09	-3.999110e+01	-3.036679e+02
2.890000e-06	-5.796514e-06	-4.711883e-09	-4.075244e+01	-3.076856e+02
2.900000e-06	-5.902871e-06	-4.772613e-09	-4.150019e+01	-3.115678e+02
2.910000e-06	-6.007180e-06	-4.831815e-09	-4.223353e+01	-3.153171e+02
2.920000e-06	-6.109184e-06	-4.887968e-09	-4.295067e+01	-3.189315e+02
2.930000e-06	-6.208858e-06	-4.940190e-09	-4.365143e+01	-3.224059e+02
2.940000e-06	-6.306396e-06	-4.990328e-09	-4.433717e+01	-3.257329e+02
