# Temperatura_=_44.44
# Concentracion g/m^3_=_5000.0
# C_Vs_to_Am_M_A/Vsm_=_65563218390.804596
# pendiente_HvsI_1/m_=_3716.3
# ordenada_HvsI_A/m_=_1297.0
# frecuencia_Hz_=_302510.63632789574

Tiempo_(s)	Campo_(V.s)	Magnetizacion_(V.s)	Campo_(kA/m)	Magnetizacion_(A/m)
0.000000e+00	-8.048754e-06	-5.614855e-09	-5.686433e+01	-3.675504e+02
1.000000e-08	-8.044601e-06	-5.610058e-09	-5.683499e+01	-3.673049e+02
2.000000e-08	-8.037860e-06	-5.601752e-09	-5.678736e+01	-3.669922e+02
3.000000e-08	-8.028350e-06	-5.596380e-09	-5.672017e+01	-3.666241e+02
4.000000e-08	-8.015920e-06	-5.593850e-09	-5.663236e+01	-3.662129e+02
5.000000e-08	-8.000480e-06	-5.589314e-09	-5.652328e+01	-3.657700e+02
6.000000e-08	-7.982348e-06	-5.582756e-09	-5.639518e+01	-3.653044e+02
7.000000e-08	-7.961983e-06	-5.579748e-09	-5.625130e+01	-3.648222e+02
8.000000e-08	-7.939055e-06	-5.589361e-09	-5.608931e+01	-3.643253e+02
9.000000e-08	-7.912970e-06	-5.616769e-09	-5.590502e+01	-3.638117e+02
1.000000e-07	-7.883651e-06	-5.601776e-09	-5.569788e+01	-3.632761e+02
1.100000e-07	-7.851397e-06	-5.558467e-09	-5.547001e+01	-3.627104e+02
1.200000e-07	-7.816340e-06	-5.532184e-09	-5.522233e+01	-3.621046e+02
1.300000e-07	-7.778757e-06	-5.514988e-09	-5.495681e+01	-3.614485e+02
1.400000e-07	-7.738980e-06	-5.481066e-09	-5.467578e+01	-3.607320e+02
1.500000e-07	-7.696908e-06	-5.447486e-09	-5.437855e+01	-3.599468e+02
1.600000e-07	-7.652189e-06	-5.493925e-09	-5.406261e+01	-3.590861e+02
1.700000e-07	-7.604748e-06	-5.456345e-09	-5.372744e+01	-3.581456e+02
1.800000e-07	-7.554413e-06	-5.413996e-09	-5.337182e+01	-3.571228e+02
1.900000e-07	-7.501035e-06	-5.442734e-09	-5.299471e+01	-3.560172e+02
2.000000e-07	-7.444888e-06	-5.390955e-09	-5.259802e+01	-3.548294e+02
2.100000e-07	-7.386008e-06	-5.371666e-09	-5.218204e+01	-3.535606e+02
2.200000e-07	-7.324433e-06	-5.355578e-09	-5.174702e+01	-3.522124e+02
2.300000e-07	-7.260243e-06	-5.329129e-09	-5.129351e+01	-3.507862e+02
2.400000e-07	-7.193260e-06	-5.308767e-09	-5.082028e+01	-3.492831e+02
2.500000e-07	-7.123510e-06	-5.276534e-09	-5.032749e+01	-3.477040e+02
2.600000e-07	-7.050971e-06	-5.270230e-09	-4.981501e+01	-3.460496e+02
2.700000e-07	-6.975592e-06	-5.240495e-09	-4.928246e+01	-3.443204e+02
2.800000e-07	-6.897459e-06	-5.211474e-09	-4.873045e+01	-3.425173e+02
2.900000e-07	-6.816545e-06	-5.182468e-09	-4.815880e+01	-3.406415e+02
3.000000e-07	-6.733153e-06	-5.158033e-09	-4.756963e+01	-3.386943e+02
3.100000e-07	-6.647502e-06	-5.129789e-09	-4.696451e+01	-3.366774e+02
3.200000e-07	-6.559496e-06	-5.079503e-09	-4.634275e+01	-3.345920e+02
3.300000e-07	-6.469104e-06	-5.057955e-09	-4.570412e+01	-3.324390e+02
3.400000e-07	-6.376424e-06	-5.029485e-09	-4.504935e+01	-3.302182e+02
3.500000e-07	-6.281498e-06	-4.996251e-09	-4.437869e+01	-3.279285e+02
3.600000e-07	-6.184207e-06	-4.962230e-09	-4.369133e+01	-3.255675e+02
3.700000e-07	-6.084616e-06	-4.926071e-09	-4.298772e+01	-3.231314e+02
3.800000e-07	-5.982867e-06	-4.885921e-09	-4.226887e+01	-3.206160e+02
3.900000e-07	-5.878974e-06	-4.842222e-09	-4.153487e+01	-3.180163e+02
4.000000e-07	-5.773012e-06	-4.805278e-09	-4.078625e+01	-3.153278e+02
4.100000e-07	-5.665095e-06	-4.759152e-09	-4.002381e+01	-3.125467e+02
4.200000e-07	-5.555239e-06	-4.717329e-09	-3.924769e+01	-3.096706e+02
4.300000e-07	-5.443360e-06	-4.670895e-09	-3.845726e+01	-3.066987e+02
4.400000e-07	-5.329328e-06	-4.625266e-09	-3.765163e+01	-3.036317e+02
4.500000e-07	-5.213129e-06	-4.577031e-09	-3.683068e+01	-3.004718e+02
4.600000e-07	-5.094972e-06	-4.529428e-09	-3.599590e+01	-2.972221e+02
4.700000e-07	-4.975025e-06	-4.480329e-09	-3.514848e+01	-2.938857e+02
4.800000e-07	-4.853260e-06	-4.425788e-09	-3.428821e+01	-2.904649e+02
4.900000e-07	-4.729691e-06	-4.370877e-09	-3.341520e+01	-2.869603e+02
5.000000e-07	-4.604423e-06	-4.313981e-09	-3.253019e+01	-2.833707e+02
5.100000e-07	-4.477558e-06	-4.258218e-09	-3.163389e+01	-2.796921e+02
5.200000e-07	-4.349063e-06	-4.197528e-09	-3.072607e+01	-2.759182e+02
5.300000e-07	-4.218943e-06	-4.138235e-09	-2.980678e+01	-2.720407e+02
5.400000e-07	-4.087282e-06	-4.076985e-09	-2.887659e+01	-2.680503e+02
5.500000e-07	-3.954036e-06	-4.014738e-09	-2.793521e+01	-2.639373e+02
5.600000e-07	-3.819281e-06	-3.951164e-09	-2.698317e+01	-2.596930e+02
5.700000e-07	-3.683116e-06	-3.884084e-09	-2.602116e+01	-2.553107e+02
5.800000e-07	-3.545404e-06	-3.814991e-09	-2.504823e+01	-2.507860e+02
5.900000e-07	-3.406230e-06	-3.742577e-09	-2.406497e+01	-2.461172e+02
6.000000e-07	-3.265750e-06	-3.668302e-09	-2.307248e+01	-2.413053e+02
6.100000e-07	-3.123852e-06	-3.591581e-09	-2.206997e+01	-2.363528e+02
6.200000e-07	-2.980538e-06	-3.514980e-09	-2.105746e+01	-2.312630e+02
6.300000e-07	-2.836100e-06	-3.436261e-09	-2.003701e+01	-2.260386e+02
6.400000e-07	-2.690759e-06	-3.353644e-09	-1.901018e+01	-2.206802e+02
6.500000e-07	-2.544482e-06	-3.267190e-09	-1.797673e+01	-2.151856e+02
6.600000e-07	-2.397366e-06	-3.178223e-09	-1.693736e+01	-2.095486e+02
6.700000e-07	-2.249543e-06	-3.090165e-09	-1.589299e+01	-2.037592e+02
6.800000e-07	-2.101015e-06	-3.001342e-09	-1.484364e+01	-1.978041e+02
6.900000e-07	-1.951815e-06	-2.908142e-09	-1.378955e+01	-1.916675e+02
7.000000e-07	-1.801965e-06	-2.809750e-09	-1.273086e+01	-1.853330e+02
7.100000e-07	-1.651519e-06	-2.708285e-09	-1.166796e+01	-1.787847e+02
7.200000e-07	-1.500492e-06	-2.606741e-09	-1.060095e+01	-1.720091e+02
7.300000e-07	-1.348947e-06	-2.501619e-09	-9.530288e+00	-1.649963e+02
7.400000e-07	-1.196920e-06	-2.388221e-09	-8.456223e+00	-1.577401e+02
7.500000e-07	-1.044409e-06	-2.272092e-09	-7.378737e+00	-1.502384e+02
7.600000e-07	-8.915450e-07	-2.156937e-09	-6.298753e+00	-1.424915e+02
7.700000e-07	-7.383409e-07	-2.036811e-09	-5.216368e+00	-1.345006e+02
7.800000e-07	-5.848251e-07	-1.910371e-09	-4.131781e+00	-1.262653e+02
7.900000e-07	-4.310382e-07	-1.781391e-09	-3.045279e+00	-1.177809e+02
8.000000e-07	-2.770473e-07	-1.648453e-09	-1.957335e+00	-1.090365e+02
8.100000e-07	-1.229618e-07	-1.507603e-09	-8.687231e-01	-1.000131e+02
8.200000e-07	3.121469e-08	-1.360559e-09	2.205313e-01	-9.068296e+01
8.300000e-07	1.854566e-07	-1.207971e-09	1.310248e+00	-8.101076e+01
8.400000e-07	3.396739e-07	-1.050533e-09	2.399791e+00	-7.095548e+01
8.500000e-07	4.937828e-07	-8.893168e-10	3.488568e+00	-6.047420e+01
8.600000e-07	6.477040e-07	-7.226680e-10	4.576020e+00	-4.952677e+01
8.700000e-07	8.013923e-07	-5.506730e-10	5.661825e+00	-3.808118e+01
8.800000e-07	9.548041e-07	-3.703804e-10	6.745677e+00	-2.611907e+01
8.900000e-07	1.107851e-06	-1.826227e-10	7.826948e+00	-1.364067e+01
9.000000e-07	1.260524e-06	1.065942e-11	8.905585e+00	-6.685524e-01
9.100000e-07	1.412777e-06	2.096480e-10	9.981249e+00	1.275022e+01
9.200000e-07	1.564472e-06	4.168035e-10	1.105297e+01	2.654404e+01
9.300000e-07	1.715536e-06	6.318666e-10	1.212024e+01	4.061882e+01
9.400000e-07	1.865908e-06	8.499043e-10	1.318261e+01	5.486217e+01
9.500000e-07	2.015567e-06	1.069443e-09	1.423996e+01	6.914928e+01
9.600000e-07	2.164531e-06	1.287624e-09	1.529238e+01	8.335000e+01
9.700000e-07	2.312671e-06	1.501563e-09	1.633899e+01	9.733641e+01
9.800000e-07	2.460002e-06	1.709192e-09	1.737988e+01	1.109902e+02
9.900000e-07	2.606518e-06	1.907528e-09	1.841501e+01	1.242090e+02
1.000000e-06	2.752094e-06	2.095362e-09	1.944351e+01	1.369115e+02
1.010000e-06	2.896620e-06	2.273329e-09	2.046458e+01	1.490402e+02
1.020000e-06	3.039995e-06	2.443337e-09	2.147752e+01	1.605623e+02
1.030000e-06	3.182141e-06	2.608140e-09	2.248178e+01	1.714682e+02
1.040000e-06	3.323007e-06	2.765674e-09	2.347700e+01	1.817690e+02
1.050000e-06	3.462611e-06	2.914704e-09	2.446330e+01	1.914913e+02
1.060000e-06	3.600930e-06	3.057574e-09	2.544052e+01	2.006728e+02
1.070000e-06	3.737835e-06	3.194401e-09	2.640775e+01	2.093565e+02
1.080000e-06	3.873216e-06	3.322127e-09	2.736422e+01	2.175860e+02
1.090000e-06	4.007203e-06	3.440030e-09	2.831083e+01	2.254020e+02
1.100000e-06	4.139738e-06	3.550714e-09	2.924719e+01	2.328394e+02
1.110000e-06	4.270796e-06	3.657736e-09	3.017311e+01	2.399262e+02
1.120000e-06	4.400426e-06	3.761894e-09	3.108894e+01	2.466837e+02
1.130000e-06	4.528437e-06	3.860108e-09	3.199334e+01	2.531276e+02
1.140000e-06	4.654858e-06	3.951215e-09	3.288650e+01	2.592701e+02
1.150000e-06	4.779750e-06	4.037897e-09	3.376886e+01	2.651219e+02
1.160000e-06	4.903027e-06	4.123251e-09	3.463981e+01	2.706945e+02
1.170000e-06	5.024578e-06	4.206113e-09	3.549857e+01	2.760012e+02
1.180000e-06	5.144265e-06	4.284030e-09	3.634416e+01	2.810583e+02
1.190000e-06	5.262067e-06	4.357006e-09	3.717643e+01	2.858848e+02
1.200000e-06	5.377925e-06	4.426728e-09	3.799497e+01	2.905015e+02
1.210000e-06	5.491716e-06	4.494570e-09	3.879890e+01	2.949296e+02
1.220000e-06	5.603369e-06	4.559241e-09	3.958773e+01	2.991887e+02
1.230000e-06	5.712995e-06	4.620568e-09	4.036222e+01	3.032952e+02
1.240000e-06	5.820676e-06	4.681453e-09	4.112300e+01	3.072608e+02
1.250000e-06	5.926271e-06	4.741404e-09	4.186902e+01	3.110917e+02
1.260000e-06	6.029583e-06	4.798594e-09	4.259892e+01	3.147885e+02
1.270000e-06	6.130622e-06	4.850979e-09	4.331276e+01	3.183466e+02
1.280000e-06	6.229459e-06	4.900425e-09	4.401104e+01	3.217585e+02
1.290000e-06	6.325871e-06	4.947350e-09	4.469219e+01	3.250145e+02
1.300000e-06	6.419919e-06	4.991946e-09	4.535664e+01	3.281060e+02
1.310000e-06	6.511829e-06	5.033754e-09	4.600598e+01	3.310265e+02
1.320000e-06	6.601355e-06	5.074639e-09	4.663848e+01	3.337738e+02
1.330000e-06	6.688469e-06	5.115377e-09	4.725394e+01	3.363505e+02
1.340000e-06	6.773297e-06	5.153752e-09	4.785325e+01	3.387646e+02
1.350000e-06	6.855810e-06	5.187821e-09	4.843620e+01	3.410284e+02
1.360000e-06	6.935882e-06	5.218401e-09	4.900191e+01	3.431574e+02
1.370000e-06	7.013338e-06	5.249776e-09	4.954913e+01	3.451688e+02
1.380000e-06	7.088145e-06	5.279649e-09	5.007764e+01	3.470789e+02
1.390000e-06	7.160264e-06	5.308837e-09	5.058716e+01	3.489019e+02
1.400000e-06	7.229807e-06	5.338440e-09	5.107848e+01	3.506481e+02
1.410000e-06	7.296830e-06	5.366168e-09	5.155200e+01	3.523229e+02
1.420000e-06	7.361238e-06	5.391174e-09	5.200704e+01	3.539272e+02
1.430000e-06	7.423089e-06	5.413323e-09	5.244402e+01	3.554573e+02
1.440000e-06	7.482428e-06	5.434657e-09	5.286325e+01	3.569066e+02
1.450000e-06	7.539110e-06	5.453886e-09	5.326370e+01	3.582669e+02
1.460000e-06	7.593053e-06	5.471177e-09	5.364481e+01	3.595304e+02
1.470000e-06	7.643980e-06	5.487401e-09	5.400461e+01	3.606911e+02
1.480000e-06	7.691792e-06	5.502563e-09	5.434240e+01	3.617462e+02
1.490000e-06	7.736865e-06	5.520098e-09	5.466084e+01	3.626968e+02
1.500000e-06	7.779222e-06	5.537128e-09	5.496009e+01	3.635482e+02
1.510000e-06	7.818725e-06	5.550229e-09	5.523918e+01	3.643088e+02
1.520000e-06	7.855502e-06	5.560389e-09	5.549901e+01	3.649893e+02
1.530000e-06	7.889507e-06	5.568690e-09	5.573925e+01	3.656014e+02
1.540000e-06	7.920640e-06	5.578458e-09	5.595921e+01	3.661557e+02
1.550000e-06	7.949088e-06	5.589805e-09	5.616019e+01	3.666606e+02
1.560000e-06	7.974683e-06	5.599533e-09	5.634102e+01	3.671211e+02
1.570000e-06	7.997314e-06	5.606009e-09	5.650091e+01	3.675382e+02
1.580000e-06	8.017227e-06	5.610072e-09	5.664159e+01	3.679090e+02
1.590000e-06	8.034312e-06	5.614604e-09	5.676230e+01	3.682272e+02
1.600000e-06	8.048288e-06	5.619293e-09	5.686104e+01	3.684846e+02
1.610000e-06	8.059088e-06	5.624833e-09	5.693734e+01	3.686720e+02
1.620000e-06	8.066834e-06	5.629852e-09	5.699207e+01	3.687813e+02
1.630000e-06	8.071774e-06	5.632283e-09	5.702697e+01	3.688067e+02
1.640000e-06	8.073831e-06	5.632258e-09	5.704150e+01	3.687457e+02
1.650000e-06	8.072964e-06	5.629092e-09	5.703537e+01	3.686001e+02
1.660000e-06	8.069523e-06	5.622633e-09	5.701106e+01	3.683752e+02
1.670000e-06	8.063422e-06	5.617629e-09	5.696796e+01	3.680801e+02
1.680000e-06	8.054565e-06	5.614224e-09	5.690539e+01	3.677261e+02
1.690000e-06	8.042992e-06	5.609978e-09	5.682363e+01	3.673255e+02
1.700000e-06	8.028525e-06	5.605777e-09	5.672141e+01	3.668901e+02
1.710000e-06	8.011414e-06	5.601960e-09	5.660052e+01	3.664298e+02
1.720000e-06	7.992033e-06	5.589770e-09	5.646360e+01	3.659514e+02
1.730000e-06	7.970123e-06	5.544852e-09	5.630881e+01	3.654582e+02
1.740000e-06	7.944991e-06	5.501925e-09	5.613125e+01	3.649494e+02
1.750000e-06	7.916176e-06	5.515467e-09	5.592767e+01	3.644203e+02
1.760000e-06	7.883961e-06	5.525632e-09	5.570007e+01	3.638637e+02
1.770000e-06	7.849156e-06	5.515287e-09	5.545417e+01	3.632699e+02
1.780000e-06	7.812092e-06	5.531313e-09	5.519232e+01	3.626287e+02
1.790000e-06	7.772763e-06	5.567145e-09	5.491446e+01	3.619300e+02
1.800000e-06	7.731302e-06	5.496237e-09	5.462154e+01	3.611646e+02
1.810000e-06	7.687357e-06	5.484812e-09	5.431107e+01	3.603256e+02
1.820000e-06	7.640739e-06	5.510189e-09	5.398171e+01	3.594077e+02
1.830000e-06	7.591443e-06	5.455857e-09	5.363343e+01	3.584081e+02
1.840000e-06	7.539106e-06	5.485390e-09	5.326368e+01	3.573257e+02
1.850000e-06	7.483809e-06	5.427778e-09	5.287301e+01	3.561607e+02
1.860000e-06	7.425728e-06	5.409529e-09	5.246266e+01	3.549144e+02
1.870000e-06	7.364978e-06	5.400223e-09	5.203346e+01	3.535883e+02
1.880000e-06	7.301521e-06	5.352928e-09	5.158514e+01	3.521837e+02
1.890000e-06	7.235261e-06	5.380684e-09	5.111701e+01	3.507021e+02
1.900000e-06	7.166227e-06	5.318886e-09	5.062929e+01	3.491442e+02
1.910000e-06	7.094319e-06	5.305730e-09	5.012126e+01	3.475107e+02
1.920000e-06	7.019703e-06	5.276382e-09	4.959410e+01	3.458023e+02
1.930000e-06	6.942342e-06	5.244702e-09	4.904754e+01	3.440197e+02
1.940000e-06	6.862235e-06	5.232735e-09	4.848159e+01	3.421640e+02
1.950000e-06	6.779637e-06	5.176160e-09	4.789804e+01	3.402366e+02
1.960000e-06	6.694521e-06	5.182327e-09	4.729669e+01	3.382390e+02
1.970000e-06	6.606845e-06	5.127936e-09	4.667726e+01	3.361726e+02
1.980000e-06	6.516790e-06	5.092382e-09	4.604103e+01	3.340383e+02
1.990000e-06	6.424538e-06	5.061534e-09	4.538927e+01	3.318365e+02
2.000000e-06	6.329971e-06	5.021599e-09	4.472115e+01	3.295662e+02
2.010000e-06	6.233098e-06	4.992666e-09	4.403675e+01	3.272254e+02
2.020000e-06	6.134063e-06	4.947208e-09	4.333707e+01	3.248107e+02
2.030000e-06	6.032813e-06	4.920265e-09	4.262174e+01	3.223180e+02
2.040000e-06	5.929351e-06	4.873500e-09	4.189078e+01	3.197424e+02
2.050000e-06	5.823815e-06	4.840597e-09	4.114517e+01	3.170792e+02
2.060000e-06	5.716376e-06	4.791977e-09	4.038611e+01	3.143244e+02
2.070000e-06	5.607023e-06	4.748311e-09	3.961354e+01	3.114751e+02
2.080000e-06	5.495618e-06	4.699419e-09	3.882646e+01	3.085301e+02
2.090000e-06	5.382117e-06	4.652769e-09	3.802458e+01	3.054895e+02
2.100000e-06	5.266554e-06	4.612262e-09	3.720813e+01	3.023555e+02
2.110000e-06	5.148882e-06	4.570603e-09	3.637678e+01	2.991306e+02
2.120000e-06	5.029191e-06	4.525653e-09	3.553116e+01	2.958182e+02
2.130000e-06	4.907656e-06	4.465142e-09	3.467252e+01	2.924209e+02
2.140000e-06	4.784404e-06	4.409616e-09	3.380175e+01	2.889398e+02
2.150000e-06	4.659457e-06	4.353103e-09	3.291899e+01	2.853743e+02
2.160000e-06	4.532790e-06	4.302660e-09	3.202410e+01	2.817212e+02
2.170000e-06	4.404415e-06	4.245195e-09	3.111713e+01	2.779748e+02
2.180000e-06	4.274386e-06	4.188297e-09	3.019847e+01	2.741273e+02
2.190000e-06	4.142888e-06	4.125286e-09	2.926944e+01	2.701697e+02
2.200000e-06	4.009853e-06	4.061498e-09	2.832956e+01	2.660921e+02
2.210000e-06	3.875300e-06	3.999837e-09	2.737894e+01	2.618857e+02
2.220000e-06	3.739258e-06	3.940035e-09	2.641781e+01	2.575429e+02
2.230000e-06	3.601797e-06	3.873523e-09	2.544665e+01	2.530587e+02
2.240000e-06	3.463012e-06	3.798728e-09	2.446613e+01	2.484306e+02
2.250000e-06	3.322892e-06	3.723595e-09	2.347619e+01	2.436589e+02
2.260000e-06	3.181444e-06	3.648956e-09	2.247686e+01	2.387457e+02
2.270000e-06	3.038721e-06	3.573397e-09	2.146852e+01	2.336943e+02
2.280000e-06	2.894809e-06	3.493283e-09	2.045179e+01	2.285077e+02
2.290000e-06	2.749801e-06	3.413358e-09	1.942731e+01	2.231873e+02
2.300000e-06	2.603887e-06	3.330055e-09	1.839642e+01	2.177315e+02
2.310000e-06	2.457111e-06	3.248779e-09	1.735945e+01	2.121356e+02
2.320000e-06	2.309558e-06	3.166137e-09	1.631699e+01	2.063904e+02
2.330000e-06	2.161283e-06	3.075956e-09	1.526943e+01	2.004837e+02
2.340000e-06	2.012196e-06	2.977185e-09	1.421614e+01	1.944002e+02
2.350000e-06	1.862295e-06	2.875782e-09	1.315708e+01	1.881235e+02
2.360000e-06	1.711737e-06	2.776601e-09	1.209340e+01	1.816372e+02
2.370000e-06	1.560708e-06	2.676213e-09	1.102638e+01	1.749273e+02
2.380000e-06	1.409211e-06	2.573579e-09	9.956056e+00	1.679825e+02
2.390000e-06	1.257245e-06	2.464443e-09	8.882417e+00	1.607958e+02
2.400000e-06	1.104908e-06	2.348105e-09	7.806161e+00	1.533638e+02
2.410000e-06	9.522193e-07	2.230840e-09	6.727416e+00	1.456863e+02
2.420000e-06	7.991887e-07	2.114094e-09	5.646257e+00	1.377646e+02
2.430000e-06	6.458985e-07	1.993681e-09	4.563263e+00	1.295989e+02
2.440000e-06	4.923657e-07	1.863044e-09	3.478557e+00	1.211860e+02
2.450000e-06	3.386289e-07	1.727329e-09	2.392408e+00	1.125170e+02
2.460000e-06	1.847812e-07	1.592419e-09	1.305476e+00	1.035752e+02
2.470000e-06	3.081360e-08	1.455101e-09	2.176976e-01	9.433553e+01
2.480000e-06	-1.232096e-07	1.311865e-09	-8.704740e-01	8.476458e+01
2.490000e-06	-2.772001e-07	1.161475e-09	-1.958415e+00	7.482264e+01
2.500000e-06	-4.310804e-07	1.002977e-09	-3.045577e+00	6.446691e+01
2.510000e-06	-5.847877e-07	8.361073e-10	-4.131517e+00	5.365591e+01
2.520000e-06	-7.383535e-07	6.627942e-10	-5.216457e+00	4.235473e+01
2.530000e-06	-8.917164e-07	4.828695e-10	-6.299964e+00	3.054059e+01
2.540000e-06	-1.044738e-06	2.949672e-10	-7.381057e+00	1.820795e+01
2.550000e-06	-1.197332e-06	9.860858e-11	-8.459131e+00	5.372692e+00
2.560000e-06	-1.349436e-06	-1.055385e-10	-9.533746e+00	-7.925205e+00
2.570000e-06	-1.501072e-06	-3.150934e-10	-1.060505e+01	-2.162103e+01
2.580000e-06	-1.652239e-06	-5.300103e-10	-1.167304e+01	-3.562678e+01
2.590000e-06	-1.802807e-06	-7.502643e-10	-1.273681e+01	-4.983477e+01
2.600000e-06	-1.952718e-06	-9.721985e-10	-1.379592e+01	-6.412306e+01
2.610000e-06	-2.101921e-06	-1.192740e-09	-1.485004e+01	-7.836224e+01
2.620000e-06	-2.250283e-06	-1.410182e-09	-1.589822e+01	-9.242299e+01
2.630000e-06	-2.397708e-06	-1.622898e-09	-1.693977e+01	-1.061835e+02
2.640000e-06	-2.544244e-06	-1.830077e-09	-1.797505e+01	-1.195364e+02
2.650000e-06	-2.689935e-06	-2.030349e-09	-1.900435e+01	-1.323939e+02
2.660000e-06	-2.834571e-06	-2.219746e-09	-2.002620e+01	-1.446914e+02
2.670000e-06	-2.978086e-06	-2.396256e-09	-2.104014e+01	-1.563892e+02
2.680000e-06	-3.120543e-06	-2.561324e-09	-2.204659e+01	-1.674714e+02
2.690000e-06	-3.261772e-06	-2.718913e-09	-2.304437e+01	-1.779434e+02
2.700000e-06	-3.401634e-06	-2.870176e-09	-2.403250e+01	-1.878280e+02
2.710000e-06	-3.540129e-06	-3.015171e-09	-2.501096e+01	-1.971603e+02
2.720000e-06	-3.677236e-06	-3.153374e-09	-2.597962e+01	-2.059821e+02
2.730000e-06	-3.812996e-06	-3.283031e-09	-2.693876e+01	-2.143376e+02
2.740000e-06	-3.947514e-06	-3.404524e-09	-2.788913e+01	-2.222684e+02
2.750000e-06	-4.080633e-06	-3.519570e-09	-2.882961e+01	-2.298113e+02
2.760000e-06	-4.212197e-06	-3.629127e-09	-2.975911e+01	-2.369963e+02
2.770000e-06	-4.342354e-06	-3.733466e-09	-3.067867e+01	-2.438465e+02
2.780000e-06	-4.471059e-06	-3.833287e-09	-3.158797e+01	-2.503791e+02
2.790000e-06	-4.598246e-06	-3.928244e-09	-3.248655e+01	-2.566071e+02
2.800000e-06	-4.723841e-06	-4.017471e-09	-3.337387e+01	-2.625414e+02
2.810000e-06	-4.847691e-06	-4.101331e-09	-3.424887e+01	-2.681930e+02
2.820000e-06	-4.969811e-06	-4.181789e-09	-3.511164e+01	-2.735746e+02
2.830000e-06	-5.090189e-06	-4.258108e-09	-3.596211e+01	-2.787017e+02
2.840000e-06	-5.208657e-06	-4.331634e-09	-3.679909e+01	-2.835925e+02
2.850000e-06	-5.324887e-06	-4.403681e-09	-3.762025e+01	-2.882674e+02
2.860000e-06	-5.438957e-06	-4.474102e-09	-3.842616e+01	-2.927478e+02
2.870000e-06	-5.550924e-06	-4.543503e-09	-3.921720e+01	-2.970538e+02
2.880000e-06	-5.660684e-06	-4.609148e-09	-3.999265e+01	-3.012030e+02
2.890000e-06	-5.768494e-06	-4.670861e-09	-4.075433e+01	-3.052085e+02
2.900000e-06	-5.874414e-06	-4.730010e-09	-4.150265e+01	-3.090781e+02
2.910000e-06	-5.978251e-06	-4.787481e-09	-4.223626e+01	-3.128139e+02
2.920000e-06	-6.079778e-06	-4.843251e-09	-4.295354e+01	-3.164128e+02
2.930000e-06	-6.179010e-06	-4.895938e-09	-4.365462e+01	-3.198678e+02
2.940000e-06	-6.276132e-06	-4.946566e-09	-4.434078e+01	-3.231698e+02
