# Temperatura_=_31.79
# Concentracion g/m^3_=_5000.0
# C_Vs_to_Am_M_A/Vsm_=_65563218390.804596
# pendiente_HvsI_1/m_=_3716.3
# ordenada_HvsI_A/m_=_1297.0
# frecuencia_Hz_=_302517.9026344439

Tiempo_(s)	Campo_(V.s)	Magnetizacion_(V.s)	Campo_(kA/m)	Magnetizacion_(A/m)
0.000000e+00	-8.048776e-06	-5.555089e-09	-5.686194e+01	-3.630365e+02
1.000000e-08	-8.044685e-06	-5.554519e-09	-5.683304e+01	-3.628486e+02
2.000000e-08	-8.038048e-06	-5.551638e-09	-5.678615e+01	-3.625943e+02
3.000000e-08	-8.028681e-06	-5.548034e-09	-5.671997e+01	-3.622800e+02
4.000000e-08	-8.016411e-06	-5.543733e-09	-5.663329e+01	-3.619148e+02
5.000000e-08	-8.001074e-06	-5.538415e-09	-5.652494e+01	-3.615090e+02
6.000000e-08	-7.982976e-06	-5.534020e-09	-5.639709e+01	-3.610733e+02
7.000000e-08	-7.962702e-06	-5.531482e-09	-5.625386e+01	-3.606175e+02
8.000000e-08	-7.939882e-06	-5.552709e-09	-5.609264e+01	-3.601497e+02
9.000000e-08	-7.913823e-06	-5.562893e-09	-5.590854e+01	-3.596747e+02
1.000000e-07	-7.884515e-06	-5.531597e-09	-5.570149e+01	-3.591941e+02
1.100000e-07	-7.852326e-06	-5.499084e-09	-5.547409e+01	-3.587060e+02
1.200000e-07	-7.817422e-06	-5.482754e-09	-5.522750e+01	-3.582050e+02
1.300000e-07	-7.779927e-06	-5.464820e-09	-5.496261e+01	-3.576828e+02
1.400000e-07	-7.740176e-06	-5.432899e-09	-5.468179e+01	-3.571294e+02
1.500000e-07	-7.698248e-06	-5.438232e-09	-5.438557e+01	-3.565339e+02
1.600000e-07	-7.653688e-06	-5.437551e-09	-5.407078e+01	-3.558851e+02
1.700000e-07	-7.606335e-06	-5.378810e-09	-5.373624e+01	-3.551730e+02
1.800000e-07	-7.556060e-06	-5.381729e-09	-5.338107e+01	-3.543894e+02
1.900000e-07	-7.502754e-06	-5.392652e-09	-5.300448e+01	-3.535278e+02
2.000000e-07	-7.446643e-06	-5.375359e-09	-5.260807e+01	-3.525846e+02
2.100000e-07	-7.387816e-06	-5.363788e-09	-5.219248e+01	-3.515579e+02
2.200000e-07	-7.326359e-06	-5.345426e-09	-5.175830e+01	-3.504483e+02
2.300000e-07	-7.262232e-06	-5.326158e-09	-5.130527e+01	-3.492577e+02
2.400000e-07	-7.195309e-06	-5.273381e-09	-5.083248e+01	-3.479891e+02
2.500000e-07	-7.125723e-06	-5.260811e-09	-5.034088e+01	-3.466460e+02
2.600000e-07	-7.053375e-06	-5.252289e-09	-4.982976e+01	-3.452320e+02
2.700000e-07	-6.978160e-06	-5.210876e-09	-4.929839e+01	-3.437503e+02
2.800000e-07	-6.900034e-06	-5.176629e-09	-4.874646e+01	-3.422035e+02
2.900000e-07	-6.819061e-06	-5.165886e-09	-4.817441e+01	-3.405934e+02
3.000000e-07	-6.735697e-06	-5.156428e-09	-4.758547e+01	-3.389208e+02
3.100000e-07	-6.650135e-06	-5.119305e-09	-4.698101e+01	-3.371857e+02
3.200000e-07	-6.562234e-06	-5.100944e-09	-4.636001e+01	-3.353874e+02
3.300000e-07	-6.471980e-06	-5.080797e-09	-4.572240e+01	-3.335241e+02
3.400000e-07	-6.379430e-06	-5.045858e-09	-4.506856e+01	-3.315937e+02
3.500000e-07	-6.284549e-06	-5.011896e-09	-4.439826e+01	-3.295934e+02
3.600000e-07	-6.187332e-06	-4.985468e-09	-4.371146e+01	-3.275203e+02
3.700000e-07	-6.087872e-06	-4.957035e-09	-4.300880e+01	-3.253711e+02
3.800000e-07	-5.986244e-06	-4.909491e-09	-4.229083e+01	-3.231424e+02
3.900000e-07	-5.882464e-06	-4.874222e-09	-4.155766e+01	-3.208311e+02
4.000000e-07	-5.776542e-06	-4.847274e-09	-4.080936e+01	-3.184344e+02
4.100000e-07	-5.668617e-06	-4.812474e-09	-4.004690e+01	-3.159499e+02
4.200000e-07	-5.558817e-06	-4.766014e-09	-3.927120e+01	-3.133755e+02
4.300000e-07	-5.447009e-06	-4.724189e-09	-3.848131e+01	-3.107099e+02
4.400000e-07	-5.332980e-06	-4.682847e-09	-3.767574e+01	-3.079522e+02
4.500000e-07	-5.216804e-06	-4.634655e-09	-3.685499e+01	-3.051019e+02
4.600000e-07	-5.098746e-06	-4.592128e-09	-3.602095e+01	-3.021584e+02
4.700000e-07	-4.978906e-06	-4.554518e-09	-3.517432e+01	-2.991211e+02
4.800000e-07	-4.857217e-06	-4.508783e-09	-3.431463e+01	-2.959890e+02
4.900000e-07	-4.733681e-06	-4.451650e-09	-3.344189e+01	-2.927601e+02
5.000000e-07	-4.608479e-06	-4.398251e-09	-3.255738e+01	-2.894317e+02
5.100000e-07	-4.481667e-06	-4.347203e-09	-3.166149e+01	-2.860000e+02
5.200000e-07	-4.353241e-06	-4.292436e-09	-3.075421e+01	-2.824605e+02
5.300000e-07	-4.223188e-06	-4.232243e-09	-2.983542e+01	-2.788077e+02
5.400000e-07	-4.091487e-06	-4.169900e-09	-2.890500e+01	-2.750360e+02
5.500000e-07	-3.958278e-06	-4.108847e-09	-2.796393e+01	-2.711397e+02
5.600000e-07	-3.823602e-06	-4.050688e-09	-2.701249e+01	-2.671138e+02
5.700000e-07	-3.687438e-06	-3.992837e-09	-2.605053e+01	-2.629539e+02
5.800000e-07	-3.549809e-06	-3.931291e-09	-2.507822e+01	-2.586570e+02
5.900000e-07	-3.410694e-06	-3.864069e-09	-2.409542e+01	-2.542211e+02
6.000000e-07	-3.270055e-06	-3.792281e-09	-2.310186e+01	-2.496452e+02
6.100000e-07	-3.128042e-06	-3.718887e-09	-2.209858e+01	-2.449286e+02
6.200000e-07	-2.984828e-06	-3.643955e-09	-2.108682e+01	-2.400708e+02
6.300000e-07	-2.840427e-06	-3.566095e-09	-2.006668e+01	-2.350703e+02
6.400000e-07	-2.695021e-06	-3.482933e-09	-1.903943e+01	-2.299241e+02
6.500000e-07	-2.548721e-06	-3.397072e-09	-1.800587e+01	-2.246274e+02
6.600000e-07	-2.401592e-06	-3.311234e-09	-1.696645e+01	-2.191726e+02
6.700000e-07	-2.253790e-06	-3.230288e-09	-1.592228e+01	-2.135501e+02
6.800000e-07	-2.105314e-06	-3.148390e-09	-1.487335e+01	-2.077481e+02
6.900000e-07	-1.956122e-06	-3.057312e-09	-1.381936e+01	-2.017533e+02
7.000000e-07	-1.806327e-06	-2.960066e-09	-1.276110e+01	-1.955523e+02
7.100000e-07	-1.656000e-06	-2.860811e-09	-1.169909e+01	-1.891320e+02
7.200000e-07	-1.505027e-06	-2.762443e-09	-1.063252e+01	-1.824812e+02
7.300000e-07	-1.353457e-06	-2.657679e-09	-9.561723e+00	-1.755909e+02
7.400000e-07	-1.201402e-06	-2.543960e-09	-8.487509e+00	-1.684553e+02
7.500000e-07	-1.048971e-06	-2.426377e-09	-7.410633e+00	-1.610711e+02
7.600000e-07	-8.962400e-07	-2.310716e-09	-6.331639e+00	-1.534371e+02
7.700000e-07	-7.431399e-07	-2.192984e-09	-5.250038e+00	-1.455531e+02
7.800000e-07	-5.897227e-07	-2.070710e-09	-4.166195e+00	-1.374182e+02
7.900000e-07	-4.360640e-07	-1.946313e-09	-3.080648e+00	-1.290286e+02
8.000000e-07	-2.822401e-07	-1.816276e-09	-1.993933e+00	-1.203766e+02
8.100000e-07	-1.282515e-07	-1.678547e-09	-9.060541e-01	-1.114486e+02
8.200000e-07	2.589402e-08	-1.535196e-09	1.829327e-01	-1.022244e+02
8.300000e-07	1.800576e-07	-1.386686e-09	1.272047e+00	-9.267760e+01
8.400000e-07	3.341117e-07	-1.230456e-09	2.360389e+00	-8.277680e+01
8.500000e-07	4.880651e-07	-1.068685e-09	3.448018e+00	-7.248756e+01
8.600000e-07	6.419122e-07	-9.039241e-10	4.534897e+00	-6.177590e+01
8.700000e-07	7.955670e-07	-7.377670e-10	5.620418e+00	-5.061214e+01
8.800000e-07	9.489719e-07	-5.654678e-10	6.704173e+00	-3.897526e+01
8.900000e-07	1.102024e-06	-3.844584e-10	7.785439e+00	-2.685712e+01
9.000000e-07	1.254664e-06	-1.944341e-10	8.863787e+00	-1.426614e+01
9.100000e-07	1.406850e-06	3.774547e-12	9.938933e+00	-1.230003e+00
9.200000e-07	1.558536e-06	2.072067e-10	1.101054e+01	1.220302e+01
9.300000e-07	1.709591e-06	4.146605e-10	1.207769e+01	2.596435e+01
9.400000e-07	1.859924e-06	6.239870e-10	1.313974e+01	3.996706e+01
9.500000e-07	2.009559e-06	8.385760e-10	1.419687e+01	5.410945e+01
9.600000e-07	2.158534e-06	1.055806e-09	1.524933e+01	6.827986e+01
9.700000e-07	2.306747e-06	1.269664e-09	1.629641e+01	8.236250e+01
9.800000e-07	2.454124e-06	1.479772e-09	1.733758e+01	9.624351e+01
9.900000e-07	2.600640e-06	1.684385e-09	1.837266e+01	1.098170e+02
1.000000e-06	2.746235e-06	1.882774e-09	1.940124e+01	1.229902e+02
1.010000e-06	2.890805e-06	2.074630e-09	2.042258e+01	1.356875e+02
1.020000e-06	3.034257e-06	2.259631e-09	2.143602e+01	1.478532e+02
1.030000e-06	3.176475e-06	2.435515e-09	2.244074e+01	1.594522e+02
1.040000e-06	3.317337e-06	2.600052e-09	2.343589e+01	1.704692e+02
1.050000e-06	3.456898e-06	2.755384e-09	2.442184e+01	1.809067e+02
1.060000e-06	3.595184e-06	2.906044e-09	2.539879e+01	1.907816e+02
1.070000e-06	3.732070e-06	3.051958e-09	2.636584e+01	2.001210e+02
1.080000e-06	3.867454e-06	3.186687e-09	2.732229e+01	2.089585e+02
1.090000e-06	4.001422e-06	3.310730e-09	2.826872e+01	2.173300e+02
1.100000e-06	4.134030e-06	3.429840e-09	2.920556e+01	2.252704e+02
1.110000e-06	4.265237e-06	3.547387e-09	3.013249e+01	2.328114e+02
1.120000e-06	4.394962e-06	3.661650e-09	3.104895e+01	2.399803e+02
1.130000e-06	4.523051e-06	3.768600e-09	3.195386e+01	2.467994e+02
1.140000e-06	4.649535e-06	3.866636e-09	3.284743e+01	2.532869e+02
1.150000e-06	4.774532e-06	3.957584e-09	3.373049e+01	2.594580e+02
1.160000e-06	4.897924e-06	4.042538e-09	3.460221e+01	2.653262e+02
1.170000e-06	5.019605e-06	4.124321e-09	3.546185e+01	2.709054e+02
1.180000e-06	5.139407e-06	4.204632e-09	3.630821e+01	2.762102e+02
1.190000e-06	5.257254e-06	4.280957e-09	3.714076e+01	2.812572e+02
1.200000e-06	5.373175e-06	4.352692e-09	3.795970e+01	2.860649e+02
1.210000e-06	5.487002e-06	4.422225e-09	3.876385e+01	2.906527e+02
1.220000e-06	5.598674e-06	4.491874e-09	3.955278e+01	2.950406e+02
1.230000e-06	5.708327e-06	4.558818e-09	4.032744e+01	2.992471e+02
1.240000e-06	5.816007e-06	4.620782e-09	4.108817e+01	3.032882e+02
1.250000e-06	5.921574e-06	4.678293e-09	4.183396e+01	3.071761e+02
1.260000e-06	6.024929e-06	4.733481e-09	4.256413e+01	3.109185e+02
1.270000e-06	6.126070e-06	4.786645e-09	4.327866e+01	3.145181e+02
1.280000e-06	6.224999e-06	4.836948e-09	4.397756e+01	3.179735e+02
1.290000e-06	6.321525e-06	4.884527e-09	4.465948e+01	3.212797e+02
1.300000e-06	6.415698e-06	4.928816e-09	4.532479e+01	3.244296e+02
1.310000e-06	6.507733e-06	4.970892e-09	4.597498e+01	3.274161e+02
1.320000e-06	6.597446e-06	5.011777e-09	4.660877e+01	3.302334e+02
1.330000e-06	6.684686e-06	5.052178e-09	4.722509e+01	3.328785e+02
1.340000e-06	6.769559e-06	5.090900e-09	4.782470e+01	3.353523e+02
1.350000e-06	6.852139e-06	5.124937e-09	4.840810e+01	3.376604e+02
1.360000e-06	6.932272e-06	5.155981e-09	4.897421e+01	3.398120e+02
1.370000e-06	7.009901e-06	5.184941e-09	4.952263e+01	3.418203e+02
1.380000e-06	7.084882e-06	5.211764e-09	5.005234e+01	3.437001e+02
1.390000e-06	7.157099e-06	5.238567e-09	5.056253e+01	3.454672e+02
1.400000e-06	7.226743e-06	5.266341e-09	5.105455e+01	3.471362e+02
1.410000e-06	7.293899e-06	5.293310e-09	5.152898e+01	3.487193e+02
1.420000e-06	7.358467e-06	5.317986e-09	5.198514e+01	3.502254e+02
1.430000e-06	7.420453e-06	5.339259e-09	5.242305e+01	3.516592e+02
1.440000e-06	7.479946e-06	5.358596e-09	5.284335e+01	3.530216e+02
1.450000e-06	7.536814e-06	5.376617e-09	5.324510e+01	3.543100e+02
1.460000e-06	7.590934e-06	5.392957e-09	5.362744e+01	3.555196e+02
1.470000e-06	7.642112e-06	5.408540e-09	5.398899e+01	3.566445e+02
1.480000e-06	7.690194e-06	5.423687e-09	5.432867e+01	3.576793e+02
1.490000e-06	7.735432e-06	5.439355e-09	5.464827e+01	3.586199e+02
1.500000e-06	7.777930e-06	5.454649e-09	5.494850e+01	3.594650e+02
1.510000e-06	7.817569e-06	5.468273e-09	5.522854e+01	3.602163e+02
1.520000e-06	7.854443e-06	5.479519e-09	5.548904e+01	3.608784e+02
1.530000e-06	7.888583e-06	5.489802e-09	5.573023e+01	3.614585e+02
1.540000e-06	7.919913e-06	5.499441e-09	5.595157e+01	3.619653e+02
1.550000e-06	7.948478e-06	5.507298e-09	5.615337e+01	3.624081e+02
1.560000e-06	7.974170e-06	5.512870e-09	5.633487e+01	3.627954e+02
1.570000e-06	7.996914e-06	5.517246e-09	5.649555e+01	3.631338e+02
1.580000e-06	8.016906e-06	5.522961e-09	5.663679e+01	3.634275e+02
1.590000e-06	8.034094e-06	5.529524e-09	5.675822e+01	3.636774e+02
1.600000e-06	8.048258e-06	5.535033e-09	5.685828e+01	3.638819e+02
1.610000e-06	8.059239e-06	5.539286e-09	5.693586e+01	3.640366e+02
1.620000e-06	8.067062e-06	5.542638e-09	5.699112e+01	3.641360e+02
1.630000e-06	8.072037e-06	5.544750e-09	5.702627e+01	3.641741e+02
1.640000e-06	8.074193e-06	5.544104e-09	5.704150e+01	3.641456e+02
1.650000e-06	8.073483e-06	5.539131e-09	5.703649e+01	3.640474e+02
1.660000e-06	8.070123e-06	5.532379e-09	5.701275e+01	3.638790e+02
1.670000e-06	8.064079e-06	5.528066e-09	5.697005e+01	3.636427e+02
1.680000e-06	8.055326e-06	5.524573e-09	5.690821e+01	3.633445e+02
1.690000e-06	8.043848e-06	5.520536e-09	5.682712e+01	3.629925e+02
1.700000e-06	8.029525e-06	5.518547e-09	5.672594e+01	3.625968e+02
1.710000e-06	8.012577e-06	5.516182e-09	5.660620e+01	3.621682e+02
1.720000e-06	7.993340e-06	5.502958e-09	5.647030e+01	3.617169e+02
1.730000e-06	7.971611e-06	5.450162e-09	5.631680e+01	3.612515e+02
1.740000e-06	7.946664e-06	5.434665e-09	5.614055e+01	3.607779e+02
1.750000e-06	7.917956e-06	5.454062e-09	5.593774e+01	3.602987e+02
1.760000e-06	7.885820e-06	5.452594e-09	5.571071e+01	3.598128e+02
1.770000e-06	7.851118e-06	5.447666e-09	5.546555e+01	3.593158e+02
1.780000e-06	7.814041e-06	5.472290e-09	5.520361e+01	3.588003e+02
1.790000e-06	7.774706e-06	5.471133e-09	5.492573e+01	3.582566e+02
1.800000e-06	7.733340e-06	5.446441e-09	5.463349e+01	3.576739e+02
1.810000e-06	7.689490e-06	5.477786e-09	5.432371e+01	3.570410e+02
1.820000e-06	7.643007e-06	5.446964e-09	5.399532e+01	3.563477e+02
1.830000e-06	7.593815e-06	5.433828e-09	5.364779e+01	3.555848e+02
1.840000e-06	7.541536e-06	5.416692e-09	5.327846e+01	3.547457e+02
1.850000e-06	7.486320e-06	5.377505e-09	5.288837e+01	3.538257e+02
1.860000e-06	7.428345e-06	5.389008e-09	5.247880e+01	3.528226e+02
1.870000e-06	7.367761e-06	5.344483e-09	5.205079e+01	3.517362e+02
1.880000e-06	7.304476e-06	5.362539e-09	5.160370e+01	3.505681e+02
1.890000e-06	7.238308e-06	5.360259e-09	5.113625e+01	3.493211e+02
1.900000e-06	7.169371e-06	5.305717e-09	5.064924e+01	3.479986e+02
1.910000e-06	7.097553e-06	5.304077e-09	5.014186e+01	3.466041e+02
1.920000e-06	7.023019e-06	5.280436e-09	4.961531e+01	3.451411e+02
1.930000e-06	6.945735e-06	5.271054e-09	4.906932e+01	3.436123e+02
1.940000e-06	6.865680e-06	5.229776e-09	4.850376e+01	3.420198e+02
1.950000e-06	6.783165e-06	5.206551e-09	4.792082e+01	3.403647e+02
1.960000e-06	6.698098e-06	5.180620e-09	4.731985e+01	3.386472e+02
1.970000e-06	6.610443e-06	5.133116e-09	4.670059e+01	3.368667e+02
1.980000e-06	6.520442e-06	5.116289e-09	4.606477e+01	3.350218e+02
1.990000e-06	6.428300e-06	5.087834e-09	4.541381e+01	3.331105e+02
2.000000e-06	6.333844e-06	5.061855e-09	4.474651e+01	3.311302e+02
2.010000e-06	6.237051e-06	5.018684e-09	4.406270e+01	3.290779e+02
2.020000e-06	6.138073e-06	4.998085e-09	4.336346e+01	3.269504e+02
2.030000e-06	6.036897e-06	4.965569e-09	4.264868e+01	3.247444e+02
2.040000e-06	5.933518e-06	4.923082e-09	4.191834e+01	3.224567e+02
2.050000e-06	5.828056e-06	4.882726e-09	4.117329e+01	3.200843e+02
2.060000e-06	5.720698e-06	4.844696e-09	4.041484e+01	3.176247e+02
2.070000e-06	5.611422e-06	4.808903e-09	3.964284e+01	3.150758e+02
2.080000e-06	5.500079e-06	4.766993e-09	3.885624e+01	3.124361e+02
2.090000e-06	5.386624e-06	4.740530e-09	3.805472e+01	3.097044e+02
2.100000e-06	5.271107e-06	4.701778e-09	3.723863e+01	3.068803e+02
2.110000e-06	5.153531e-06	4.653017e-09	3.640799e+01	3.039631e+02
2.120000e-06	5.033924e-06	4.594728e-09	3.556301e+01	3.009524e+02
2.130000e-06	4.912470e-06	4.544466e-09	3.470497e+01	2.978471e+02
2.140000e-06	4.789247e-06	4.495218e-09	3.383445e+01	2.946457e+02
2.150000e-06	4.664254e-06	4.450875e-09	3.295141e+01	2.913458e+02
2.160000e-06	4.537564e-06	4.406064e-09	3.205639e+01	2.879437e+02
2.170000e-06	4.409224e-06	4.357368e-09	3.114971e+01	2.844352e+02
2.180000e-06	4.279327e-06	4.303218e-09	3.023203e+01	2.808150e+02
2.190000e-06	4.147906e-06	4.244448e-09	2.930358e+01	2.770775e+02
2.200000e-06	4.014931e-06	4.185958e-09	2.836416e+01	2.732170e+02
2.210000e-06	3.880413e-06	4.123668e-09	2.741383e+01	2.692283e+02
2.220000e-06	3.744326e-06	4.060646e-09	2.645242e+01	2.651067e+02
2.230000e-06	3.606868e-06	3.990833e-09	2.548133e+01	2.608488e+02
2.240000e-06	3.468123e-06	3.920556e-09	2.450114e+01	2.564525e+02
2.250000e-06	3.327995e-06	3.850045e-09	2.351119e+01	2.519162e+02
2.260000e-06	3.186583e-06	3.781736e-09	2.251216e+01	2.472396e+02
2.270000e-06	3.043858e-06	3.711506e-09	2.150385e+01	2.424219e+02
2.280000e-06	2.899877e-06	3.640335e-09	2.048667e+01	2.374620e+02
2.290000e-06	2.754865e-06	3.568610e-09	1.946221e+01	2.323575e+02
2.300000e-06	2.608976e-06	3.493479e-09	1.843156e+01	2.271041e+02
2.310000e-06	2.462300e-06	3.412408e-09	1.739534e+01	2.216950e+02
2.320000e-06	2.314792e-06	3.323287e-09	1.635324e+01	2.161212e+02
2.330000e-06	2.166435e-06	3.226529e-09	1.530514e+01	2.103715e+02
2.340000e-06	2.017385e-06	3.127906e-09	1.425216e+01	2.044328e+02
2.350000e-06	1.867673e-06	3.033024e-09	1.319449e+01	1.982917e+02
2.360000e-06	1.717260e-06	2.942104e-09	1.213187e+01	1.919350e+02
2.370000e-06	1.566222e-06	2.848641e-09	1.106484e+01	1.853507e+02
2.380000e-06	1.414676e-06	2.748077e-09	9.994218e+00	1.785292e+02
2.390000e-06	1.262750e-06	2.640239e-09	8.920910e+00	1.714638e+02
2.400000e-06	1.110448e-06	2.526186e-09	7.844946e+00	1.641505e+02
2.410000e-06	9.577221e-07	2.409668e-09	6.765990e+00	1.565876e+02
2.420000e-06	8.046250e-07	2.289850e-09	5.684409e+00	1.487747e+02
2.430000e-06	6.512159e-07	2.167310e-09	4.600625e+00	1.407113e+02
2.440000e-06	4.975852e-07	2.039537e-09	3.515275e+00	1.323947e+02
2.450000e-06	3.438092e-07	1.909396e-09	2.428898e+00	1.238185e+02
2.460000e-06	1.899189e-07	1.778336e-09	1.341714e+00	1.149707e+02
2.470000e-06	3.597264e-08	1.641474e-09	2.541348e-01	1.058332e+02
2.480000e-06	-1.179894e-07	1.497962e-09	-8.335564e-01	9.638130e+01
2.490000e-06	-2.719109e-07	1.347421e-09	-1.920961e+00	8.658475e+01
2.500000e-06	-4.257536e-07	1.189486e-09	-3.007808e+00	7.640970e+01
2.510000e-06	-5.795520e-07	1.025631e-09	-4.094343e+00	6.582168e+01
2.520000e-06	-7.332292e-07	8.572627e-10	-5.180021e+00	5.478935e+01
2.530000e-06	-8.866400e-07	6.810525e-10	-6.263818e+00	4.328878e+01
2.540000e-06	-1.039717e-06	4.967637e-10	-7.345257e+00	3.130772e+01
2.550000e-06	-1.192379e-06	3.060405e-10	-8.423761e+00	1.884954e+01
2.560000e-06	-1.344596e-06	1.103481e-10	-9.499127e+00	5.936233e+00
2.570000e-06	-1.496340e-06	-9.028283e-11	-1.057115e+01	-7.389871e+00
2.580000e-06	-1.647580e-06	-2.988639e-10	-1.163961e+01	-2.106586e+01
2.590000e-06	-1.798185e-06	-5.148991e-10	-1.270358e+01	-3.500977e+01
2.600000e-06	-1.948070e-06	-7.349883e-10	-1.376247e+01	-4.912365e+01
2.610000e-06	-2.097257e-06	-9.557901e-10	-1.481643e+01	-6.329816e+01
2.620000e-06	-2.245617e-06	-1.175918e-09	-1.586454e+01	-7.741803e+01
2.630000e-06	-2.393040e-06	-1.392564e-09	-1.690604e+01	-9.136826e+01
2.640000e-06	-2.539570e-06	-1.604206e-09	-1.794122e+01	-1.050401e+02
2.650000e-06	-2.685216e-06	-1.809935e-09	-1.897016e+01	-1.183365e+02
2.660000e-06	-2.829849e-06	-2.006042e-09	-1.999194e+01	-1.311767e+02
2.670000e-06	-2.973386e-06	-2.190313e-09	-2.100599e+01	-1.434992e+02
2.680000e-06	-3.115818e-06	-2.365519e-09	-2.201223e+01	-1.552628e+02
2.690000e-06	-3.257070e-06	-2.534025e-09	-2.301012e+01	-1.664469e+02
2.700000e-06	-3.397000e-06	-2.696586e-09	-2.399868e+01	-1.770492e+02
2.710000e-06	-3.535588e-06	-2.853197e-09	-2.497776e+01	-1.870827e+02
2.720000e-06	-3.672842e-06	-3.001963e-09	-2.594742e+01	-1.965722e+02
2.730000e-06	-3.808724e-06	-3.140986e-09	-2.690737e+01	-2.055499e+02
2.740000e-06	-3.943322e-06	-3.271093e-09	-2.785826e+01	-2.140512e+02
2.750000e-06	-4.076480e-06	-3.394748e-09	-2.879898e+01	-2.221117e+02
2.760000e-06	-4.208061e-06	-3.511410e-09	-2.972856e+01	-2.297642e+02
2.770000e-06	-4.338253e-06	-3.621327e-09	-3.064832e+01	-2.370373e+02
2.780000e-06	-4.467010e-06	-3.725675e-09	-3.155795e+01	-2.439547e+02
2.790000e-06	-4.594243e-06	-3.826655e-09	-3.245681e+01	-2.505356e+02
2.800000e-06	-4.719890e-06	-3.924245e-09	-3.334446e+01	-2.567960e+02
2.810000e-06	-4.843812e-06	-4.016620e-09	-3.421993e+01	-2.627497e+02
2.820000e-06	-4.966001e-06	-4.103267e-09	-3.508315e+01	-2.684104e+02
2.830000e-06	-5.086387e-06	-4.183610e-09	-3.593364e+01	-2.737923e+02
2.840000e-06	-5.204896e-06	-4.259256e-09	-3.677087e+01	-2.789115e+02
2.850000e-06	-5.321306e-06	-4.332059e-09	-3.759327e+01	-2.837860e+02
2.860000e-06	-5.435462e-06	-4.402903e-09	-3.839974e+01	-2.884349e+02
2.870000e-06	-5.547429e-06	-4.472409e-09	-3.919075e+01	-2.928783e+02
2.880000e-06	-5.657313e-06	-4.538959e-09	-3.996705e+01	-2.971352e+02
2.890000e-06	-5.765303e-06	-4.603604e-09	-4.072996e+01	-3.012224e+02
2.900000e-06	-5.871318e-06	-4.667107e-09	-4.147892e+01	-3.051535e+02
2.910000e-06	-5.975129e-06	-4.727941e-09	-4.221231e+01	-3.089373e+02
2.920000e-06	-6.076634e-06	-4.785121e-09	-4.292941e+01	-3.125781e+02
2.930000e-06	-6.175915e-06	-4.838003e-09	-4.363080e+01	-3.160754e+02
2.940000e-06	-6.273063e-06	-4.888278e-09	-4.431712e+01	-3.194252e+02
