# Temperatura_=_35.75
# Concentracion g/m^3_=_5000.0
# C_Vs_to_Am_M_A/Vsm_=_65563218390.804596
# pendiente_HvsI_1/m_=_3716.3
# ordenada_HvsI_A/m_=_1297.0
# frecuencia_Hz_=_302512.8177249783

Tiempo_(s)	Campo_(V.s)	Magnetizacion_(V.s)	Campo_(kA/m)	Magnetizacion_(A/m)
0.000000e+00	-8.012256e-06	-5.292868e-09	-5.686861e+01	-3.465030e+02
1.000000e-08	-8.008195e-06	-5.292966e-09	-5.683978e+01	-3.462824e+02
2.000000e-08	-8.001566e-06	-5.286685e-09	-5.679274e+01	-3.459931e+02
3.000000e-08	-7.992276e-06	-5.280815e-09	-5.672680e+01	-3.456465e+02
4.000000e-08	-7.980107e-06	-5.275629e-09	-5.664042e+01	-3.452559e+02
5.000000e-08	-7.964858e-06	-5.270053e-09	-5.653219e+01	-3.448352e+02
6.000000e-08	-7.946871e-06	-5.263667e-09	-5.640452e+01	-3.443970e+02
7.000000e-08	-7.926660e-06	-5.254421e-09	-5.626107e+01	-3.439514e+02
8.000000e-08	-7.903900e-06	-5.266637e-09	-5.609953e+01	-3.435049e+02
9.000000e-08	-7.878046e-06	-5.310780e-09	-5.591603e+01	-3.430597e+02
1.000000e-07	-7.848974e-06	-5.287133e-09	-5.570968e+01	-3.426133e+02
1.100000e-07	-7.816974e-06	-5.236130e-09	-5.548256e+01	-3.421594e+02
1.200000e-07	-7.782226e-06	-5.219329e-09	-5.523592e+01	-3.416885e+02
1.300000e-07	-7.744913e-06	-5.203014e-09	-5.497108e+01	-3.411889e+02
1.400000e-07	-7.705396e-06	-5.161055e-09	-5.469060e+01	-3.406481e+02
1.500000e-07	-7.663697e-06	-5.153513e-09	-5.439464e+01	-3.400538e+02
1.600000e-07	-7.619420e-06	-5.218918e-09	-5.408037e+01	-3.393956e+02
1.700000e-07	-7.572424e-06	-5.137033e-09	-5.374681e+01	-3.386650e+02
1.800000e-07	-7.522569e-06	-5.123101e-09	-5.339295e+01	-3.378563e+02
1.900000e-07	-7.469631e-06	-5.158383e-09	-5.301722e+01	-3.369667e+02
2.000000e-07	-7.413862e-06	-5.089940e-09	-5.262138e+01	-3.359959e+02
2.100000e-07	-7.355370e-06	-5.087510e-09	-5.220623e+01	-3.349456e+02
2.200000e-07	-7.294173e-06	-5.068311e-09	-5.177187e+01	-3.338189e+02
2.300000e-07	-7.230385e-06	-5.065164e-09	-5.131912e+01	-3.326199e+02
2.400000e-07	-7.163845e-06	-5.038766e-09	-5.084684e+01	-3.313525e+02
2.500000e-07	-7.094573e-06	-5.010073e-09	-5.035517e+01	-3.300204e+02
2.600000e-07	-7.022585e-06	-5.008329e-09	-4.984422e+01	-3.286265e+02
2.700000e-07	-6.947770e-06	-4.966383e-09	-4.931320e+01	-3.271728e+02
2.800000e-07	-6.870151e-06	-4.934953e-09	-4.876229e+01	-3.256602e+02
2.900000e-07	-6.789725e-06	-4.912354e-09	-4.819145e+01	-3.240889e+02
3.000000e-07	-6.706768e-06	-4.914484e-09	-4.760265e+01	-3.224583e+02
3.100000e-07	-6.621595e-06	-4.888985e-09	-4.699811e+01	-3.207672e+02
3.200000e-07	-6.534160e-06	-4.840324e-09	-4.637752e+01	-3.190142e+02
3.300000e-07	-6.444361e-06	-4.827258e-09	-4.574016e+01	-3.171971e+02
3.400000e-07	-6.352235e-06	-4.794587e-09	-4.508627e+01	-3.153139e+02
3.500000e-07	-6.257834e-06	-4.760272e-09	-4.441625e+01	-3.133621e+02
3.600000e-07	-6.161104e-06	-4.729599e-09	-4.372968e+01	-3.113391e+02
3.700000e-07	-6.062089e-06	-4.707990e-09	-4.302690e+01	-3.092422e+02
3.800000e-07	-5.960959e-06	-4.671031e-09	-4.230911e+01	-3.070687e+02
3.900000e-07	-5.857668e-06	-4.626624e-09	-4.157598e+01	-3.048159e+02
4.000000e-07	-5.752271e-06	-4.598895e-09	-4.082791e+01	-3.024816e+02
4.100000e-07	-5.644915e-06	-4.561779e-09	-4.006592e+01	-3.000638e+02
4.200000e-07	-5.535609e-06	-4.524288e-09	-3.929010e+01	-2.975613e+02
4.300000e-07	-5.424300e-06	-4.482778e-09	-3.850007e+01	-2.949734e+02
4.400000e-07	-5.310879e-06	-4.447523e-09	-3.769504e+01	-2.923000e+02
4.500000e-07	-5.195330e-06	-4.404956e-09	-3.687491e+01	-2.895414e+02
4.600000e-07	-5.077868e-06	-4.359386e-09	-3.604120e+01	-2.866981e+02
4.700000e-07	-4.958614e-06	-4.316626e-09	-3.519476e+01	-2.837702e+02
4.800000e-07	-4.837536e-06	-4.270540e-09	-3.433539e+01	-2.807571e+02
4.900000e-07	-4.714640e-06	-4.222304e-09	-3.346311e+01	-2.776573e+02
5.000000e-07	-4.590025e-06	-4.172328e-09	-3.257863e+01	-2.744679e+02
5.100000e-07	-4.463836e-06	-4.124492e-09	-3.168298e+01	-2.711848e+02
5.200000e-07	-4.335995e-06	-4.069933e-09	-3.077560e+01	-2.678024e+02
5.300000e-07	-4.206540e-06	-4.012851e-09	-2.985677e+01	-2.643144e+02
5.400000e-07	-4.075493e-06	-3.953289e-09	-2.892663e+01	-2.607141e+02
5.500000e-07	-3.942911e-06	-3.895211e-09	-2.798561e+01	-2.569947e+02
5.600000e-07	-3.808900e-06	-3.840378e-09	-2.703444e+01	-2.531506e+02
5.700000e-07	-3.673449e-06	-3.784628e-09	-2.607305e+01	-2.491772e+02
5.800000e-07	-3.536549e-06	-3.725340e-09	-2.510137e+01	-2.450716e+02
5.900000e-07	-3.398230e-06	-3.659145e-09	-2.411963e+01	-2.408327e+02
6.000000e-07	-3.258464e-06	-3.591124e-09	-2.312761e+01	-2.364606e+02
6.100000e-07	-3.117240e-06	-3.521528e-09	-2.212524e+01	-2.319563e+02
6.200000e-07	-2.974736e-06	-3.450769e-09	-2.111379e+01	-2.273207e+02
6.300000e-07	-2.831094e-06	-3.377808e-09	-2.009426e+01	-2.225539e+02
6.400000e-07	-2.686421e-06	-3.301713e-09	-1.906742e+01	-2.176540e+02
6.500000e-07	-2.540779e-06	-3.222524e-09	-1.803369e+01	-2.126166e+02
6.600000e-07	-2.394306e-06	-3.139765e-09	-1.699407e+01	-2.074342e+02
6.700000e-07	-2.247108e-06	-3.058367e-09	-1.594931e+01	-2.020964e+02
6.800000e-07	-2.099167e-06	-2.977982e-09	-1.489926e+01	-1.965901e+02
6.900000e-07	-1.950541e-06	-2.893146e-09	-1.384436e+01	-1.909007e+02
7.000000e-07	-1.801319e-06	-2.801098e-09	-1.278523e+01	-1.850128e+02
7.100000e-07	-1.651518e-06	-2.705653e-09	-1.172198e+01	-1.789121e+02
7.200000e-07	-1.501142e-06	-2.609497e-09	-1.065466e+01	-1.725862e+02
7.300000e-07	-1.350252e-06	-2.510471e-09	-9.583685e+00	-1.660256e+02
7.400000e-07	-1.198903e-06	-2.405197e-09	-8.509459e+00	-1.592243e+02
7.500000e-07	-1.047115e-06	-2.296909e-09	-7.432113e+00	-1.521797e+02
7.600000e-07	-8.950076e-07	-2.188801e-09	-6.352498e+00	-1.448913e+02
7.700000e-07	-7.426503e-07	-2.073918e-09	-5.271111e+00	-1.373597e+02
7.800000e-07	-5.899932e-07	-1.953898e-09	-4.187596e+00	-1.295845e+02
7.900000e-07	-4.370527e-07	-1.831763e-09	-3.102070e+00	-1.215619e+02
8.000000e-07	-2.839328e-07	-1.706185e-09	-2.015271e+00	-1.132832e+02
8.100000e-07	-1.306762e-07	-1.573428e-09	-9.275005e-01	-1.047331e+02
8.200000e-07	2.269377e-08	-1.436205e-09	1.610736e-01	-9.588871e+01
8.300000e-07	1.760865e-07	-1.296415e-09	1.249809e+00	-8.672056e+01
8.400000e-07	3.294882e-07	-1.149255e-09	2.338609e+00	-7.719368e+01
8.500000e-07	4.828020e-07	-9.951579e-10	3.426785e+00	-6.727062e+01
8.600000e-07	6.358933e-07	-8.350151e-10	4.513381e+00	-5.691516e+01
8.700000e-07	7.887142e-07	-6.702899e-10	5.598059e+00	-4.609681e+01
8.800000e-07	9.412702e-07	-4.987236e-10	6.680856e+00	-3.479550e+01
8.900000e-07	1.093546e-06	-3.206487e-10	7.761663e+00	-2.300611e+01
9.000000e-07	1.245461e-06	-1.363098e-10	8.839911e+00	-1.074204e+01
9.100000e-07	1.396952e-06	5.279103e-11	9.915150e+00	1.962300e+00
9.200000e-07	1.547998e-06	2.466424e-10	1.098723e+01	1.505071e+01
9.300000e-07	1.698507e-06	4.462098e-10	1.205550e+01	2.844621e+01
9.400000e-07	1.848299e-06	6.511166e-10	1.311868e+01	4.205387e+01
9.500000e-07	1.997353e-06	8.608330e-10	1.417662e+01	5.576517e+01
9.600000e-07	2.145732e-06	1.069693e-09	1.522977e+01	6.946367e+01
9.700000e-07	2.293319e-06	1.276873e-09	1.627730e+01	8.303136e+01
9.800000e-07	2.440058e-06	1.482239e-09	1.731881e+01	9.635513e+01
9.900000e-07	2.585866e-06	1.681128e-09	1.835370e+01	1.093327e+02
1.000000e-06	2.730650e-06	1.869613e-09	1.938134e+01	1.218776e+02
1.010000e-06	2.874473e-06	2.046979e-09	2.040215e+01	1.339227e+02
1.020000e-06	3.017238e-06	2.216871e-09	2.141546e+01	1.454217e+02
1.030000e-06	3.158802e-06	2.380774e-09	2.242023e+01	1.563495e+02
1.040000e-06	3.299014e-06	2.539465e-09	2.341542e+01	1.667002e+02
1.050000e-06	3.437874e-06	2.689711e-09	2.440101e+01	1.764844e+02
1.060000e-06	3.575450e-06	2.832836e-09	2.537748e+01	1.857252e+02
1.070000e-06	3.711682e-06	2.968938e-09	2.634442e+01	1.944539e+02
1.080000e-06	3.846534e-06	3.096206e-09	2.730155e+01	2.027057e+02
1.090000e-06	3.980010e-06	3.213906e-09	2.824892e+01	2.105166e+02
1.100000e-06	4.112048e-06	3.323724e-09	2.918609e+01	2.179199e+02
1.110000e-06	4.242635e-06	3.431163e-09	3.011296e+01	2.249454e+02
1.120000e-06	4.371723e-06	3.536043e-09	3.102919e+01	2.316180e+02
1.130000e-06	4.499244e-06	3.634603e-09	3.193430e+01	2.379584e+02
1.140000e-06	4.625216e-06	3.724223e-09	3.282840e+01	2.439844e+02
1.150000e-06	4.749650e-06	3.808470e-09	3.371160e+01	2.497115e+02
1.160000e-06	4.872501e-06	3.888270e-09	3.458356e+01	2.551554e+02
1.170000e-06	4.993654e-06	3.965206e-09	3.544347e+01	2.603324e+02
1.180000e-06	5.112995e-06	4.039787e-09	3.629051e+01	2.652604e+02
1.190000e-06	5.230419e-06	4.112245e-09	3.712396e+01	2.699588e+02
1.200000e-06	5.345850e-06	4.181370e-09	3.794325e+01	2.744479e+02
1.210000e-06	5.459204e-06	4.247346e-09	3.874781e+01	2.787480e+02
1.220000e-06	5.570461e-06	4.311540e-09	3.953748e+01	2.828777e+02
1.230000e-06	5.679738e-06	4.372356e-09	4.031309e+01	2.868528e+02
1.240000e-06	5.787046e-06	4.429917e-09	4.107473e+01	2.906845e+02
1.250000e-06	5.892230e-06	4.484973e-09	4.182130e+01	2.943792e+02
1.260000e-06	5.995230e-06	4.538862e-09	4.255236e+01	2.979381e+02
1.270000e-06	6.096052e-06	4.591097e-09	4.326796e+01	3.013576e+02
1.280000e-06	6.194595e-06	4.639730e-09	4.396739e+01	3.046306e+02
1.290000e-06	6.290752e-06	4.685526e-09	4.464989e+01	3.077482e+02
1.300000e-06	6.384594e-06	4.728372e-09	4.531595e+01	3.107016e+02
1.310000e-06	6.476165e-06	4.766714e-09	4.596589e+01	3.134838e+02
1.320000e-06	6.565432e-06	4.802771e-09	4.659949e+01	3.160914e+02
1.330000e-06	6.652369e-06	4.840052e-09	4.721654e+01	3.185256e+02
1.340000e-06	6.737027e-06	4.877502e-09	4.781741e+01	3.207924e+02
1.350000e-06	6.819331e-06	4.911612e-09	4.840158e+01	3.229028e+02
1.360000e-06	6.899109e-06	4.942316e-09	4.896782e+01	3.248713e+02
1.370000e-06	6.976379e-06	4.971838e-09	4.951626e+01	3.267145e+02
1.380000e-06	7.051029e-06	4.999019e-09	5.004611e+01	3.284496e+02
1.390000e-06	7.122931e-06	5.022906e-09	5.055645e+01	3.300923e+02
1.400000e-06	7.192299e-06	5.043910e-09	5.104880e+01	3.316551e+02
1.410000e-06	7.259147e-06	5.065089e-09	5.152326e+01	3.331465e+02
1.420000e-06	7.323377e-06	5.088838e-09	5.197915e+01	3.345706e+02
1.430000e-06	7.385096e-06	5.111810e-09	5.241721e+01	3.359267e+02
1.440000e-06	7.444321e-06	5.131136e-09	5.283757e+01	3.372106e+02
1.450000e-06	7.500936e-06	5.147815e-09	5.323941e+01	3.384161e+02
1.460000e-06	7.554840e-06	5.164396e-09	5.362201e+01	3.395360e+02
1.470000e-06	7.605741e-06	5.180793e-09	5.398329e+01	3.405641e+02
1.480000e-06	7.653526e-06	5.196903e-09	5.432245e+01	3.414969e+02
1.490000e-06	7.698579e-06	5.211422e-09	5.464222e+01	3.423339e+02
1.500000e-06	7.740976e-06	5.223200e-09	5.494314e+01	3.430787e+02
1.510000e-06	7.780531e-06	5.232032e-09	5.522390e+01	3.437381e+02
1.520000e-06	7.817309e-06	5.239003e-09	5.548493e+01	3.443222e+02
1.530000e-06	7.851328e-06	5.247166e-09	5.572639e+01	3.448421e+02
1.540000e-06	7.882539e-06	5.256699e-09	5.594791e+01	3.453092e+02
1.550000e-06	7.911053e-06	5.267261e-09	5.615030e+01	3.457333e+02
1.560000e-06	7.936716e-06	5.277325e-09	5.633245e+01	3.461212e+02
1.570000e-06	7.959428e-06	5.285778e-09	5.649365e+01	3.464762e+02
1.580000e-06	7.979405e-06	5.293337e-09	5.663544e+01	3.467972e+02
1.590000e-06	7.996552e-06	5.297416e-09	5.675715e+01	3.470793e+02
1.600000e-06	8.010656e-06	5.297404e-09	5.685725e+01	3.473149e+02
1.610000e-06	8.021619e-06	5.297901e-09	5.693507e+01	3.474943e+02
1.620000e-06	8.029462e-06	5.301175e-09	5.699073e+01	3.476078e+02
1.630000e-06	8.034464e-06	5.306487e-09	5.702624e+01	3.476471e+02
1.640000e-06	8.036615e-06	5.310368e-09	5.704150e+01	3.476069e+02
1.650000e-06	8.035916e-06	5.311697e-09	5.703654e+01	3.474855e+02
1.660000e-06	8.032657e-06	5.304651e-09	5.701341e+01	3.472857e+02
1.670000e-06	8.026686e-06	5.299899e-09	5.697103e+01	3.470146e+02
1.680000e-06	8.017997e-06	5.296102e-09	5.690935e+01	3.466826e+02
1.690000e-06	8.006673e-06	5.290239e-09	5.682898e+01	3.463028e+02
1.700000e-06	7.992460e-06	5.286454e-09	5.672810e+01	3.458889e+02
1.710000e-06	7.975589e-06	5.284968e-09	5.660836e+01	3.454541e+02
1.720000e-06	7.956471e-06	5.283947e-09	5.647266e+01	3.450094e+02
1.730000e-06	7.934860e-06	5.226150e-09	5.631928e+01	3.445623e+02
1.740000e-06	7.910082e-06	5.178279e-09	5.614341e+01	3.441163e+02
1.750000e-06	7.881661e-06	5.216579e-09	5.594169e+01	3.436703e+02
1.760000e-06	7.849785e-06	5.230136e-09	5.571544e+01	3.432190e+02
1.770000e-06	7.815280e-06	5.211638e-09	5.547053e+01	3.427537e+02
1.780000e-06	7.778503e-06	5.247973e-09	5.520950e+01	3.422632e+02
1.790000e-06	7.739490e-06	5.274572e-09	5.493260e+01	3.417350e+02
1.800000e-06	7.698404e-06	5.162996e-09	5.464098e+01	3.411567e+02
1.810000e-06	7.654870e-06	5.195064e-09	5.433199e+01	3.405173e+02
1.820000e-06	7.608687e-06	5.203797e-09	5.400419e+01	3.398077e+02
1.830000e-06	7.559773e-06	5.150930e-09	5.365702e+01	3.390213e+02
1.840000e-06	7.507823e-06	5.210421e-09	5.328829e+01	3.381545e+02
1.850000e-06	7.452945e-06	5.123312e-09	5.289878e+01	3.372064e+02
1.860000e-06	7.395295e-06	5.141049e-09	5.248960e+01	3.361781e+02
1.870000e-06	7.335024e-06	5.097694e-09	5.206182e+01	3.350725e+02
1.880000e-06	7.272069e-06	5.050654e-09	5.161498e+01	3.338933e+02
1.890000e-06	7.206256e-06	5.099383e-09	5.114786e+01	3.326446e+02
1.900000e-06	7.137652e-06	5.019963e-09	5.066093e+01	3.313303e+02
1.910000e-06	7.066230e-06	5.044337e-09	5.015400e+01	3.299534e+02
1.920000e-06	6.992164e-06	5.011241e-09	4.962830e+01	3.285161e+02
1.930000e-06	6.915371e-06	4.996198e-09	4.908324e+01	3.270199e+02
1.940000e-06	6.835743e-06	4.972460e-09	4.851807e+01	3.254650e+02
1.950000e-06	6.753650e-06	4.911698e-09	4.793539e+01	3.238510e+02
1.960000e-06	6.669154e-06	4.937860e-09	4.733567e+01	3.221770e+02
1.970000e-06	6.582131e-06	4.871809e-09	4.671801e+01	3.204414e+02
1.980000e-06	6.492674e-06	4.863910e-09	4.608307e+01	3.186424e+02
1.990000e-06	6.400985e-06	4.833677e-09	4.543229e+01	3.167779e+02
2.000000e-06	6.306988e-06	4.803900e-09	4.476512e+01	3.148455e+02
2.010000e-06	6.210649e-06	4.765560e-09	4.408134e+01	3.128427e+02
2.020000e-06	6.112137e-06	4.724888e-09	4.338213e+01	3.107668e+02
2.030000e-06	6.011495e-06	4.715098e-09	4.266780e+01	3.086151e+02
2.040000e-06	5.908666e-06	4.670638e-09	4.193795e+01	3.063848e+02
2.050000e-06	5.803710e-06	4.649138e-09	4.119300e+01	3.040735e+02
2.060000e-06	5.696817e-06	4.598628e-09	4.043431e+01	3.016793e+02
2.070000e-06	5.587984e-06	4.563301e-09	3.966184e+01	2.992007e+02
2.080000e-06	5.477157e-06	4.512189e-09	3.887523e+01	2.966368e+02
2.090000e-06	5.364296e-06	4.478236e-09	3.807417e+01	2.939874e+02
2.100000e-06	5.249379e-06	4.445431e-09	3.725853e+01	2.912527e+02
2.110000e-06	5.132441e-06	4.406816e-09	3.642854e+01	2.884332e+02
2.120000e-06	5.013477e-06	4.361713e-09	3.558416e+01	2.855290e+02
2.130000e-06	4.892605e-06	4.307878e-09	3.472625e+01	2.825399e+02
2.140000e-06	4.770010e-06	4.260051e-09	3.385611e+01	2.794647e+02
2.150000e-06	4.645698e-06	4.208491e-09	3.297378e+01	2.763009e+02
2.160000e-06	4.519688e-06	4.167076e-09	3.207940e+01	2.730446e+02
2.170000e-06	4.391993e-06	4.117743e-09	3.117306e+01	2.696908e+02
2.180000e-06	4.262679e-06	4.071781e-09	3.025523e+01	2.662332e+02
2.190000e-06	4.131897e-06	4.014319e-09	2.932697e+01	2.626653e+02
2.200000e-06	3.999572e-06	3.959110e-09	2.838777e+01	2.589802e+02
2.210000e-06	3.865764e-06	3.897412e-09	2.743804e+01	2.551718e+02
2.220000e-06	3.730478e-06	3.837840e-09	2.647782e+01	2.512353e+02
2.230000e-06	3.593710e-06	3.774043e-09	2.550709e+01	2.471672e+02
2.240000e-06	3.455538e-06	3.707970e-09	2.452638e+01	2.429660e+02
2.250000e-06	3.316005e-06	3.643041e-09	2.353601e+01	2.386315e+02
2.260000e-06	3.175204e-06	3.577124e-09	2.253665e+01	2.341644e+02
2.270000e-06	3.033180e-06	3.508500e-09	2.152861e+01	2.295658e+02
2.280000e-06	2.890011e-06	3.433429e-09	2.051244e+01	2.248362e+02
2.290000e-06	2.745677e-06	3.359875e-09	1.948800e+01	2.199742e+02
2.300000e-06	2.600388e-06	3.285998e-09	1.845678e+01	2.149763e+02
2.310000e-06	2.454343e-06	3.214523e-09	1.742020e+01	2.098359e+02
2.320000e-06	2.307539e-06	3.136814e-09	1.637823e+01	2.045433e+02
2.330000e-06	2.159892e-06	3.050969e-09	1.533027e+01	1.990862e+02
2.340000e-06	2.011441e-06	2.957451e-09	1.427661e+01	1.934502e+02
2.350000e-06	1.862277e-06	2.862469e-09	1.321789e+01	1.876202e+02
2.360000e-06	1.712562e-06	2.770771e-09	1.215526e+01	1.815812e+02
2.370000e-06	1.562428e-06	2.680003e-09	1.108965e+01	1.753203e+02
2.380000e-06	1.411767e-06	2.585942e-09	1.002030e+01	1.688271e+02
2.390000e-06	1.260591e-06	2.484864e-09	8.947301e+00	1.620946e+02
2.400000e-06	1.108980e-06	2.374757e-09	7.871212e+00	1.551192e+02
2.410000e-06	9.569973e-07	2.262688e-09	6.792482e+00	1.479000e+02
2.420000e-06	8.046711e-07	2.151066e-09	5.711316e+00	1.404375e+02
2.430000e-06	6.520370e-07	2.035759e-09	4.627964e+00	1.327316e+02
2.440000e-06	4.991725e-07	1.913786e-09	3.542978e+00	1.247799e+02
2.450000e-06	3.461590e-07	1.788574e-09	2.456934e+00	1.165753e+02
2.460000e-06	1.929877e-07	1.662265e-09	1.369769e+00	1.081042e+02
2.470000e-06	3.969663e-08	1.529690e-09	2.817549e-01	9.934624e+01
2.480000e-06	-1.136284e-07	1.390533e-09	-8.065009e-01	9.027356e+01
2.490000e-06	-2.669379e-07	1.245858e-09	-1.894646e+00	8.085253e+01
2.500000e-06	-4.202079e-07	1.095247e-09	-2.982511e+00	7.104608e+01
2.510000e-06	-5.733652e-07	9.383500e-10	-4.069575e+00	6.081719e+01
2.520000e-06	-7.263152e-07	7.759867e-10	-5.155169e+00	5.013326e+01
2.530000e-06	-8.790220e-07	6.074254e-10	-6.239037e+00	3.897078e+01
2.540000e-06	-1.031413e-06	4.295194e-10	-7.320662e+00	2.731992e+01
2.550000e-06	-1.183362e-06	2.425003e-10	-8.399152e+00	1.518849e+01
2.560000e-06	-1.334842e-06	4.965123e-11	-9.474310e+00	2.604739e+00
2.570000e-06	-1.485883e-06	-1.483194e-10	-1.054636e+01	-1.038134e+01
2.580000e-06	-1.636483e-06	-3.511588e-10	-1.161527e+01	-2.369849e+01
2.590000e-06	-1.786437e-06	-5.595267e-10	-1.267960e+01	-3.725653e+01
2.600000e-06	-1.935623e-06	-7.727004e-10	-1.373848e+01	-5.095028e+01
2.610000e-06	-2.084106e-06	-9.875702e-10	-1.479236e+01	-6.466495e+01
2.620000e-06	-2.231838e-06	-1.201995e-09	-1.584092e+01	-7.828231e+01
2.630000e-06	-2.378724e-06	-1.412630e-09	-1.688348e+01	-9.168721e+01
2.640000e-06	-2.524696e-06	-1.617707e-09	-1.791954e+01	-1.047737e+02
2.650000e-06	-2.669757e-06	-1.813141e-09	-1.894914e+01	-1.174504e+02
2.660000e-06	-2.813768e-06	-1.996330e-09	-1.997129e+01	-1.296443e+02
2.670000e-06	-2.956679e-06	-2.168535e-09	-2.098563e+01	-1.413032e+02
2.680000e-06	-3.098422e-06	-2.331475e-09	-2.199168e+01	-1.523960e+02
2.690000e-06	-3.238893e-06	-2.488599e-09	-2.298870e+01	-1.629116e+02
2.700000e-06	-3.378165e-06	-2.640738e-09	-2.397721e+01	-1.728563e+02
2.710000e-06	-3.516163e-06	-2.787483e-09	-2.495668e+01	-1.822499e+02
2.720000e-06	-3.652797e-06	-2.927439e-09	-2.592647e+01	-1.911217e+02
2.730000e-06	-3.788079e-06	-3.060026e-09	-2.688666e+01	-1.995065e+02
2.740000e-06	-3.922000e-06	-3.184528e-09	-2.783719e+01	-2.074402e+02
2.750000e-06	-4.054533e-06	-3.300177e-09	-2.877787e+01	-2.149572e+02
2.760000e-06	-4.185655e-06	-3.406800e-09	-2.970853e+01	-2.220884e+02
2.770000e-06	-4.315361e-06	-3.506562e-09	-3.062915e+01	-2.288599e+02
2.780000e-06	-4.443603e-06	-3.602717e-09	-3.153937e+01	-2.352937e+02
2.790000e-06	-4.570298e-06	-3.694808e-09	-3.243862e+01	-2.414083e+02
2.800000e-06	-4.695394e-06	-3.782440e-09	-3.332651e+01	-2.472197e+02
2.810000e-06	-4.818805e-06	-3.866681e-09	-3.420244e+01	-2.527433e+02
2.820000e-06	-4.940500e-06	-3.948185e-09	-3.506620e+01	-2.579952e+02
2.830000e-06	-5.060403e-06	-4.025194e-09	-3.591724e+01	-2.629929e+02
2.840000e-06	-5.178360e-06	-4.098092e-09	-3.675446e+01	-2.677552e+02
2.850000e-06	-5.294191e-06	-4.167380e-09	-3.757659e+01	-2.723024e+02
2.860000e-06	-5.407776e-06	-4.233699e-09	-3.838279e+01	-2.766549e+02
2.870000e-06	-5.519206e-06	-4.298122e-09	-3.917368e+01	-2.808320e+02
2.880000e-06	-5.628617e-06	-4.360035e-09	-3.995025e+01	-2.848503e+02
2.890000e-06	-5.736129e-06	-4.420600e-09	-4.071334e+01	-2.887225e+02
2.900000e-06	-5.841719e-06	-4.479673e-09	-4.146278e+01	-2.924565e+02
2.910000e-06	-5.945131e-06	-4.536220e-09	-4.219677e+01	-2.960548e+02
2.920000e-06	-6.046255e-06	-4.590847e-09	-4.291452e+01	-2.995151e+02
2.930000e-06	-6.145210e-06	-4.641359e-09	-4.361687e+01	-3.028312e+02
2.940000e-06	-6.242024e-06	-4.688184e-09	-4.430403e+01	-3.059946e+02
