# Temperatura_=_41.77
# Concentracion g/m^3_=_5000.0
# C_Vs_to_Am_M_A/Vsm_=_65563218390.804596
# pendiente_HvsI_1/m_=_3716.3
# ordenada_HvsI_A/m_=_1297.0
# frecuencia_Hz_=_302509.04768012976

Tiempo_(s)	Campo_(V.s)	Magnetizacion_(V.s)	Campo_(kA/m)	Magnetizacion_(A/m)
0.000000e+00	-8.043133e-06	-5.460927e-09	-5.686954e+01	-3.574650e+02
1.000000e-08	-8.038892e-06	-5.458802e-09	-5.683955e+01	-3.572049e+02
2.000000e-08	-8.032109e-06	-5.454321e-09	-5.679159e+01	-3.568729e+02
3.000000e-08	-8.022572e-06	-5.450888e-09	-5.672416e+01	-3.564840e+02
4.000000e-08	-8.010111e-06	-5.446374e-09	-5.663605e+01	-3.560550e+02
5.000000e-08	-7.994611e-06	-5.438725e-09	-5.652645e+01	-3.556022e+02
6.000000e-08	-7.976389e-06	-5.429963e-09	-5.639762e+01	-3.551398e+02
7.000000e-08	-7.955952e-06	-5.421935e-09	-5.625312e+01	-3.546776e+02
8.000000e-08	-7.932911e-06	-5.439006e-09	-5.609021e+01	-3.542205e+02
9.000000e-08	-7.906656e-06	-5.466136e-09	-5.590457e+01	-3.537671e+02
1.000000e-07	-7.877200e-06	-5.444866e-09	-5.569629e+01	-3.533107e+02
1.100000e-07	-7.844848e-06	-5.408465e-09	-5.546755e+01	-3.528398e+02
1.200000e-07	-7.809761e-06	-5.387535e-09	-5.521947e+01	-3.523394e+02
1.300000e-07	-7.772157e-06	-5.363092e-09	-5.495358e+01	-3.517931e+02
1.400000e-07	-7.732420e-06	-5.319258e-09	-5.467262e+01	-3.511844e+02
1.500000e-07	-7.690398e-06	-5.311772e-09	-5.437549e+01	-3.504993e+02
1.600000e-07	-7.645671e-06	-5.354375e-09	-5.405925e+01	-3.497267e+02
1.700000e-07	-7.598254e-06	-5.303917e-09	-5.372399e+01	-3.488597e+02
1.800000e-07	-7.547963e-06	-5.295490e-09	-5.336840e+01	-3.478961e+02
1.900000e-07	-7.494623e-06	-5.309620e-09	-5.299126e+01	-3.468374e+02
2.000000e-07	-7.438447e-06	-5.248237e-09	-5.259406e+01	-3.456886e+02
2.100000e-07	-7.379582e-06	-5.225347e-09	-5.217785e+01	-3.444567e+02
2.200000e-07	-7.318079e-06	-5.191345e-09	-5.174299e+01	-3.431494e+02
2.300000e-07	-7.253905e-06	-5.175808e-09	-5.128924e+01	-3.417744e+02
2.400000e-07	-7.186941e-06	-5.163422e-09	-5.081577e+01	-3.403375e+02
2.500000e-07	-7.117233e-06	-5.156224e-09	-5.032290e+01	-3.388427e+02
2.600000e-07	-7.044689e-06	-5.145233e-09	-4.980997e+01	-3.372917e+02
2.700000e-07	-6.969293e-06	-5.097338e-09	-4.927688e+01	-3.356836e+02
2.800000e-07	-6.891138e-06	-5.063901e-09	-4.872428e+01	-3.340159e+02
2.900000e-07	-6.810266e-06	-5.045140e-09	-4.815247e+01	-3.322850e+02
3.000000e-07	-6.726981e-06	-5.036872e-09	-4.756359e+01	-3.304867e+02
3.100000e-07	-6.641440e-06	-5.006504e-09	-4.695877e+01	-3.286171e+02
3.200000e-07	-6.553536e-06	-4.965475e-09	-4.633723e+01	-3.266732e+02
3.300000e-07	-6.463208e-06	-4.938929e-09	-4.569857e+01	-3.246531e+02
3.400000e-07	-6.370568e-06	-4.903840e-09	-4.504355e+01	-3.225560e+02
3.500000e-07	-6.275654e-06	-4.869907e-09	-4.437245e+01	-3.203822e+02
3.600000e-07	-6.178375e-06	-4.837511e-09	-4.368463e+01	-3.181326e+02
3.700000e-07	-6.078843e-06	-4.806193e-09	-4.298089e+01	-3.158083e+02
3.800000e-07	-5.977162e-06	-4.765452e-09	-4.226194e+01	-3.134101e+02
3.900000e-07	-5.873327e-06	-4.728421e-09	-4.152777e+01	-3.109382e+02
4.000000e-07	-5.767421e-06	-4.694121e-09	-4.077896e+01	-3.083919e+02
4.100000e-07	-5.659494e-06	-4.651155e-09	-4.001585e+01	-3.057694e+02
4.200000e-07	-5.549604e-06	-4.610264e-09	-3.923887e+01	-3.030682e+02
4.300000e-07	-5.437689e-06	-4.566558e-09	-3.844756e+01	-3.002850e+02
4.400000e-07	-5.323581e-06	-4.526492e-09	-3.764075e+01	-2.974163e+02
4.500000e-07	-5.207390e-06	-4.487130e-09	-3.681921e+01	-2.944585e+02
4.600000e-07	-5.089326e-06	-4.444685e-09	-3.598444e+01	-2.914081e+02
4.700000e-07	-4.969486e-06	-4.392649e-09	-3.513710e+01	-2.882619e+02
4.800000e-07	-4.847824e-06	-4.334191e-09	-3.427688e+01	-2.850174e+02
4.900000e-07	-4.724326e-06	-4.278264e-09	-3.340368e+01	-2.816720e+02
5.000000e-07	-4.599137e-06	-4.226632e-09	-3.251852e+01	-2.782234e+02
5.100000e-07	-4.472301e-06	-4.176978e-09	-3.162171e+01	-2.746693e+02
5.200000e-07	-4.343776e-06	-4.123195e-09	-3.071297e+01	-2.710072e+02
5.300000e-07	-4.213635e-06	-4.063841e-09	-2.979280e+01	-2.672344e+02
5.400000e-07	-4.081923e-06	-4.000272e-09	-2.886152e+01	-2.633478e+02
5.500000e-07	-3.948697e-06	-3.938389e-09	-2.791954e+01	-2.593445e+02
5.600000e-07	-3.814050e-06	-3.879099e-09	-2.696751e+01	-2.552214e+02
5.700000e-07	-3.677956e-06	-3.814951e-09	-2.600525e+01	-2.509758e+02
5.800000e-07	-3.540388e-06	-3.746334e-09	-2.503256e+01	-2.466055e+02
5.900000e-07	-3.401395e-06	-3.677081e-09	-2.404980e+01	-2.421088e+02
6.000000e-07	-3.260875e-06	-3.606827e-09	-2.305624e+01	-2.374843e+02
6.100000e-07	-3.118875e-06	-3.533139e-09	-2.205222e+01	-2.327308e+02
6.200000e-07	-2.975651e-06	-3.458635e-09	-2.103955e+01	-2.278466e+02
6.300000e-07	-2.831310e-06	-3.384452e-09	-2.001897e+01	-2.228294e+02
6.400000e-07	-2.686030e-06	-3.305895e-09	-1.899177e+01	-2.176752e+02
6.500000e-07	-2.539847e-06	-3.224815e-09	-1.795817e+01	-2.123785e+02
6.600000e-07	-2.392777e-06	-3.141276e-09	-1.691830e+01	-2.069314e+02
6.700000e-07	-2.245022e-06	-3.055980e-09	-1.587359e+01	-2.013240e+02
6.800000e-07	-2.096562e-06	-2.968161e-09	-1.482389e+01	-1.955449e+02
6.900000e-07	-1.947345e-06	-2.874854e-09	-1.376884e+01	-1.895814e+02
7.000000e-07	-1.797519e-06	-2.779703e-09	-1.270949e+01	-1.834207e+02
7.100000e-07	-1.647204e-06	-2.683081e-09	-1.164667e+01	-1.770509e+02
7.200000e-07	-1.496320e-06	-2.586438e-09	-1.057984e+01	-1.704616e+02
7.300000e-07	-1.344832e-06	-2.484760e-09	-9.508727e+00	-1.636448e+02
7.400000e-07	-1.192794e-06	-2.373240e-09	-8.433735e+00	-1.565950e+02
7.500000e-07	-1.040334e-06	-2.259635e-09	-7.355754e+00	-1.493090e+02
7.600000e-07	-8.875871e-07	-2.148167e-09	-6.275747e+00	-1.417849e+02
7.700000e-07	-7.345862e-07	-2.033103e-09	-5.193943e+00	-1.340208e+02
7.800000e-07	-5.813446e-07	-1.911386e-09	-4.110438e+00	-1.260129e+02
7.900000e-07	-4.277963e-07	-1.786090e-09	-3.024764e+00	-1.177538e+02
8.000000e-07	-2.740651e-07	-1.655626e-09	-1.937796e+00	-1.092308e+02
8.100000e-07	-1.202877e-07	-1.518431e-09	-8.505024e-01	-1.004247e+02
8.200000e-07	3.361426e-08	-1.376819e-09	2.376720e-01	-9.130939e+01
8.300000e-07	1.875899e-07	-1.230219e-09	1.326367e+00	-8.185255e+01
8.400000e-07	3.414761e-07	-1.077215e-09	2.414431e+00	-7.201767e+01
8.500000e-07	4.952414e-07	-9.181872e-10	3.501639e+00	-6.176691e+01
8.600000e-07	6.488714e-07	-7.535676e-10	4.587891e+00	-5.106508e+01
8.700000e-07	8.023279e-07	-5.849907e-10	5.672916e+00	-3.988424e+01
8.800000e-07	9.555318e-07	-4.091134e-10	6.756155e+00	-2.820842e+01
8.900000e-07	1.108407e-06	-2.266766e-10	7.837067e+00	-1.603803e+01
9.000000e-07	1.260992e-06	-3.902621e-11	8.915935e+00	-3.393410e+00
9.100000e-07	1.413164e-06	1.551443e-10	9.991873e+00	9.683057e+00
9.200000e-07	1.564790e-06	3.558265e-10	1.106396e+01	2.312646e+01
9.300000e-07	1.715826e-06	5.636419e-10	1.213187e+01	3.685081e+01
9.400000e-07	1.866121e-06	7.758349e-10	1.319454e+01	5.075236e+01
9.500000e-07	2.015644e-06	9.916581e-10	1.425175e+01	6.471458e+01
9.600000e-07	2.164438e-06	1.204823e-09	1.530381e+01	7.861438e+01
9.700000e-07	2.312480e-06	1.412613e-09	1.635055e+01	9.232895e+01
9.800000e-07	2.459696e-06	1.616169e-09	1.739145e+01	1.057427e+02
9.900000e-07	2.605978e-06	1.811851e-09	1.842575e+01	1.187535e+02
1.000000e-06	2.751314e-06	1.998044e-09	1.945336e+01	1.312779e+02
1.010000e-06	2.895686e-06	2.174326e-09	2.047415e+01	1.432541e+02
1.020000e-06	3.038914e-06	2.343208e-09	2.148686e+01	1.546440e+02
1.030000e-06	3.180851e-06	2.505583e-09	2.249043e+01	1.654320e+02
1.040000e-06	3.321519e-06	2.659347e-09	2.348503e+01	1.756234e+02
1.050000e-06	3.460918e-06	2.806289e-09	2.447066e+01	1.852401e+02
1.060000e-06	3.599020e-06	2.947924e-09	2.544713e+01	1.943161e+02
1.070000e-06	3.735753e-06	3.084653e-09	2.641390e+01	2.028924e+02
1.080000e-06	3.871010e-06	3.211830e-09	2.737025e+01	2.110124e+02
1.090000e-06	4.004800e-06	3.328320e-09	2.831622e+01	2.187172e+02
1.100000e-06	4.137199e-06	3.437594e-09	2.925236e+01	2.260435e+02
1.110000e-06	4.268177e-06	3.543018e-09	3.017845e+01	2.330212e+02
1.120000e-06	4.397672e-06	3.644548e-09	3.109405e+01	2.396732e+02
1.130000e-06	4.525624e-06	3.740815e-09	3.199874e+01	2.460163e+02
1.140000e-06	4.651930e-06	3.831925e-09	3.289180e+01	2.520631e+02
1.150000e-06	4.776698e-06	3.918624e-09	3.377398e+01	2.578233e+02
1.160000e-06	4.899877e-06	4.001253e-09	3.464492e+01	2.633068e+02
1.170000e-06	5.021323e-06	4.079363e-09	3.550362e+01	2.685249e+02
1.180000e-06	5.140924e-06	4.154404e-09	3.634926e+01	2.734915e+02
1.190000e-06	5.258598e-06	4.225830e-09	3.718128e+01	2.782238e+02
1.200000e-06	5.374358e-06	4.293510e-09	3.799977e+01	2.827412e+02
1.210000e-06	5.488052e-06	4.358691e-09	3.880366e+01	2.870647e+02
1.220000e-06	5.599610e-06	4.423454e-09	3.959243e+01	2.912147e+02
1.230000e-06	5.709155e-06	4.486133e-09	4.036698e+01	2.952094e+02
1.240000e-06	5.816722e-06	4.544581e-09	4.112754e+01	2.990631e+02
1.250000e-06	5.922136e-06	4.599595e-09	4.187288e+01	3.027850e+02
1.260000e-06	6.025333e-06	4.653770e-09	4.260254e+01	3.063786e+02
1.270000e-06	6.126332e-06	4.705637e-09	4.331666e+01	3.098419e+02
1.280000e-06	6.225027e-06	4.755189e-09	4.401449e+01	3.131689e+02
1.290000e-06	6.321355e-06	4.801835e-09	4.469558e+01	3.163506e+02
1.300000e-06	6.415407e-06	4.844330e-09	4.536058e+01	3.193776e+02
1.310000e-06	6.507215e-06	4.883921e-09	4.600972e+01	3.222418e+02
1.320000e-06	6.596702e-06	4.922560e-09	4.664245e+01	3.249385e+02
1.330000e-06	6.683827e-06	4.961355e-09	4.725847e+01	3.274676e+02
1.340000e-06	6.768638e-06	4.998647e-09	4.785813e+01	3.298342e+02
1.350000e-06	6.851042e-06	5.033401e-09	4.844077e+01	3.320484e+02
1.360000e-06	6.930918e-06	5.066321e-09	4.900554e+01	3.341240e+02
1.370000e-06	7.008251e-06	5.096840e-09	4.955233e+01	3.360777e+02
1.380000e-06	7.082935e-06	5.124892e-09	5.008039e+01	3.379261e+02
1.390000e-06	7.154952e-06	5.152038e-09	5.058959e+01	3.396848e+02
1.400000e-06	7.224501e-06	5.177755e-09	5.108134e+01	3.413656e+02
1.410000e-06	7.291543e-06	5.201911e-09	5.155536e+01	3.429761e+02
1.420000e-06	7.355909e-06	5.225482e-09	5.201047e+01	3.445188e+02
1.430000e-06	7.417735e-06	5.247748e-09	5.244762e+01	3.459914e+02
1.440000e-06	7.477007e-06	5.268831e-09	5.286670e+01	3.473877e+02
1.450000e-06	7.533581e-06	5.287813e-09	5.326671e+01	3.486995e+02
1.460000e-06	7.587389e-06	5.304767e-09	5.364717e+01	3.499178e+02
1.470000e-06	7.638200e-06	5.321936e-09	5.400643e+01	3.510352e+02
1.480000e-06	7.685960e-06	5.340170e-09	5.434412e+01	3.520473e+02
1.490000e-06	7.730955e-06	5.357250e-09	5.466226e+01	3.529539e+02
1.500000e-06	7.773183e-06	5.370372e-09	5.496084e+01	3.537591e+02
1.510000e-06	7.812598e-06	5.380663e-09	5.523952e+01	3.544713e+02
1.520000e-06	7.849357e-06	5.390504e-09	5.549943e+01	3.551022e+02
1.530000e-06	7.883387e-06	5.400195e-09	5.574004e+01	3.556648e+02
1.540000e-06	7.914575e-06	5.409526e-09	5.596056e+01	3.561720e+02
1.550000e-06	7.942997e-06	5.419863e-09	5.616152e+01	3.566346e+02
1.560000e-06	7.968533e-06	5.430121e-09	5.634207e+01	3.570599e+02
1.570000e-06	7.991111e-06	5.437187e-09	5.650171e+01	3.574506e+02
1.580000e-06	8.010977e-06	5.442860e-09	5.664218e+01	3.578043e+02
1.590000e-06	8.028033e-06	5.448793e-09	5.676277e+01	3.581145e+02
1.600000e-06	8.042035e-06	5.452909e-09	5.686177e+01	3.583711e+02
1.610000e-06	8.052857e-06	5.455144e-09	5.693829e+01	3.585626e+02
1.620000e-06	8.060560e-06	5.457007e-09	5.699276e+01	3.586776e+02
1.630000e-06	8.065443e-06	5.458617e-09	5.702728e+01	3.587071e+02
1.640000e-06	8.067454e-06	5.460398e-09	5.704150e+01	3.586459e+02
1.650000e-06	8.066618e-06	5.460425e-09	5.703559e+01	3.584938e+02
1.660000e-06	8.063225e-06	5.456165e-09	5.701160e+01	3.582559e+02
1.670000e-06	8.057120e-06	5.452697e-09	5.696843e+01	3.579425e+02
1.680000e-06	8.048238e-06	5.450136e-09	5.690563e+01	3.575677e+02
1.690000e-06	8.036658e-06	5.446825e-09	5.682375e+01	3.571479e+02
1.700000e-06	8.022220e-06	5.443587e-09	5.672167e+01	3.566999e+02
1.710000e-06	8.005111e-06	5.438946e-09	5.660070e+01	3.562385e+02
1.720000e-06	7.985740e-06	5.427318e-09	5.646374e+01	3.557750e+02
1.730000e-06	7.963894e-06	5.370096e-09	5.630927e+01	3.553158e+02
1.740000e-06	7.938826e-06	5.335495e-09	5.613203e+01	3.548612e+02
1.750000e-06	7.910030e-06	5.359037e-09	5.592842e+01	3.544062e+02
1.760000e-06	7.877772e-06	5.364097e-09	5.570034e+01	3.539404e+02
1.770000e-06	7.842954e-06	5.356772e-09	5.545416e+01	3.534496e+02
1.780000e-06	7.805865e-06	5.396404e-09	5.519192e+01	3.529175e+02
1.790000e-06	7.766546e-06	5.426762e-09	5.491390e+01	3.523277e+02
1.800000e-06	7.725170e-06	5.355113e-09	5.462136e+01	3.516652e+02
1.810000e-06	7.681298e-06	5.361926e-09	5.431115e+01	3.509180e+02
1.820000e-06	7.634775e-06	5.348728e-09	5.398221e+01	3.500779e+02
1.830000e-06	7.585499e-06	5.302632e-09	5.363380e+01	3.491414e+02
1.840000e-06	7.533128e-06	5.333147e-09	5.326351e+01	3.481090e+02
1.850000e-06	7.477856e-06	5.292357e-09	5.287270e+01	3.469848e+02
1.860000e-06	7.419856e-06	5.311709e-09	5.246261e+01	3.457753e+02
1.870000e-06	7.359191e-06	5.280666e-09	5.203368e+01	3.444882e+02
1.880000e-06	7.295736e-06	5.242383e-09	5.158502e+01	3.431314e+02
1.890000e-06	7.229441e-06	5.246651e-09	5.111627e+01	3.417111e+02
1.900000e-06	7.160421e-06	5.175098e-09	5.062826e+01	3.402321e+02
1.910000e-06	7.088524e-06	5.183760e-09	5.011991e+01	3.386966e+02
1.920000e-06	7.013877e-06	5.158196e-09	4.959211e+01	3.371045e+02
1.930000e-06	6.936492e-06	5.146219e-09	4.904495e+01	3.354537e+02
1.940000e-06	6.856384e-06	5.119231e-09	4.847854e+01	3.337407e+02
1.950000e-06	6.773805e-06	5.062918e-09	4.789466e+01	3.319616e+02
1.960000e-06	6.688739e-06	5.060558e-09	4.729320e+01	3.301122e+02
1.970000e-06	6.601141e-06	5.007350e-09	4.667383e+01	3.281893e+02
1.980000e-06	6.511143e-06	4.993607e-09	4.603749e+01	3.261906e+02
1.990000e-06	6.418993e-06	4.966389e-09	4.538594e+01	3.241150e+02
2.000000e-06	6.324518e-06	4.932725e-09	4.471795e+01	3.219625e+02
2.010000e-06	6.227684e-06	4.889056e-09	4.403328e+01	3.197339e+02
2.020000e-06	6.128695e-06	4.844048e-09	4.333337e+01	3.174304e+02
2.030000e-06	6.027486e-06	4.816324e-09	4.261776e+01	3.150527e+02
2.040000e-06	5.924058e-06	4.778096e-09	4.188647e+01	3.126014e+02
2.050000e-06	5.818594e-06	4.754386e-09	4.114078e+01	3.100760e+02
2.060000e-06	5.711276e-06	4.708024e-09	4.038197e+01	3.074750e+02
2.070000e-06	5.601993e-06	4.668004e-09	3.960928e+01	3.047961e+02
2.080000e-06	5.490603e-06	4.617117e-09	3.882170e+01	3.020362e+02
2.090000e-06	5.377114e-06	4.574995e-09	3.801926e+01	2.991918e+02
2.100000e-06	5.261596e-06	4.532878e-09	3.720248e+01	2.962593e+02
2.110000e-06	5.144015e-06	4.490562e-09	3.637112e+01	2.932351e+02
2.120000e-06	5.024420e-06	4.441271e-09	3.552551e+01	2.901161e+02
2.130000e-06	4.903014e-06	4.386795e-09	3.466710e+01	2.868994e+02
2.140000e-06	4.779887e-06	4.340872e-09	3.379653e+01	2.835825e+02
2.150000e-06	4.654999e-06	4.293370e-09	3.291349e+01	2.801631e+02
2.160000e-06	4.528386e-06	4.244430e-09	3.201827e+01	2.766389e+02
2.170000e-06	4.400081e-06	4.185747e-09	3.111108e+01	2.730075e+02
2.180000e-06	4.270173e-06	4.131113e-09	3.019256e+01	2.692661e+02
2.190000e-06	4.138863e-06	4.072493e-09	2.926412e+01	2.654118e+02
2.200000e-06	4.005938e-06	4.012875e-09	2.832427e+01	2.614416e+02
2.210000e-06	3.871419e-06	3.948820e-09	2.737314e+01	2.573525e+02
2.220000e-06	3.735463e-06	3.885563e-09	2.641185e+01	2.531417e+02
2.230000e-06	3.598069e-06	3.817577e-09	2.544040e+01	2.488067e+02
2.240000e-06	3.459281e-06	3.750342e-09	2.445909e+01	2.443458e+02
2.250000e-06	3.319162e-06	3.685232e-09	2.346837e+01	2.397574e+02
2.260000e-06	3.177748e-06	3.616225e-09	2.246849e+01	2.350404e+02
2.270000e-06	3.035048e-06	3.539304e-09	2.145952e+01	2.301932e+02
2.280000e-06	2.891197e-06	3.459081e-09	2.044241e+01	2.252138e+02
2.290000e-06	2.746259e-06	3.381544e-09	1.941762e+01	2.200988e+02
2.300000e-06	2.600440e-06	3.301603e-09	1.838659e+01	2.148430e+02
2.310000e-06	2.453902e-06	3.222750e-09	1.735048e+01	2.094392e+02
2.320000e-06	2.306524e-06	3.140874e-09	1.630844e+01	2.038782e+02
2.330000e-06	2.158259e-06	3.052355e-09	1.526012e+01	1.981489e+02
2.340000e-06	2.009199e-06	2.956347e-09	1.420618e+01	1.922389e+02
2.350000e-06	1.859424e-06	2.860595e-09	1.314719e+01	1.861353e+02
2.360000e-06	1.709039e-06	2.766535e-09	1.208388e+01	1.798259e+02
2.370000e-06	1.558113e-06	2.669419e-09	1.101674e+01	1.732997e+02
2.380000e-06	1.406746e-06	2.568277e-09	9.946493e+00	1.665481e+02
2.390000e-06	1.255017e-06	2.461052e-09	8.873689e+00	1.595648e+02
2.400000e-06	1.102884e-06	2.347715e-09	7.798018e+00	1.523460e+02
2.410000e-06	9.503289e-07	2.233777e-09	6.719367e+00	1.448896e+02
2.420000e-06	7.974231e-07	2.119854e-09	5.638236e+00	1.371938e+02
2.430000e-06	6.442607e-07	2.000417e-09	4.555291e+00	1.292556e+02
2.440000e-06	4.908750e-07	1.872462e-09	3.470766e+00	1.210688e+02
2.450000e-06	3.373158e-07	1.741737e-09	2.385015e+00	1.126224e+02
2.460000e-06	1.836011e-07	1.611332e-09	1.298164e+00	1.038990e+02
2.470000e-06	2.973578e-08	1.476583e-09	2.102489e-01	9.487458e+01
2.480000e-06	-1.241873e-07	1.333276e-09	-8.780751e-01	8.551839e+01
2.490000e-06	-2.780415e-07	1.182765e-09	-1.965912e+00	7.579488e+01
2.500000e-06	-4.317955e-07	1.027039e-09	-3.053040e+00	6.566623e+01
2.510000e-06	-5.854631e-07	8.666206e-10	-4.139558e+00	5.509602e+01
2.520000e-06	-7.390029e-07	7.006626e-10	-5.225172e+00	4.405377e+01
2.530000e-06	-8.923409e-07	5.255465e-10	-6.309359e+00	3.251961e+01
2.540000e-06	-1.045329e-06	3.404280e-10	-7.391073e+00	2.048887e+01
2.550000e-06	-1.197876e-06	1.458999e-10	-8.469664e+00	7.975898e+00
2.560000e-06	-1.349947e-06	-5.358158e-11	-9.544896e+00	-4.983344e+00
2.570000e-06	-1.501523e-06	-2.563427e-10	-1.061662e+01	-1.833032e+01
2.580000e-06	-1.652612e-06	-4.652624e-10	-1.168491e+01	-3.198480e+01
2.590000e-06	-1.803087e-06	-6.817826e-10	-1.274885e+01	-4.584767e+01
2.600000e-06	-1.952827e-06	-9.019720e-10	-1.380760e+01	-5.980546e+01
2.610000e-06	-2.101877e-06	-1.120084e-09	-1.486147e+01	-7.373628e+01
2.620000e-06	-2.250183e-06	-1.333114e-09	-1.591007e+01	-8.751652e+01
2.630000e-06	-2.397543e-06	-1.540755e-09	-1.695200e+01	-1.010279e+02
2.640000e-06	-2.543936e-06	-1.743504e-09	-1.798708e+01	-1.141637e+02
2.650000e-06	-2.689438e-06	-1.939363e-09	-1.901586e+01	-1.268349e+02
2.660000e-06	-2.833954e-06	-2.124572e-09	-2.003767e+01	-1.389732e+02
2.670000e-06	-2.977423e-06	-2.297184e-09	-2.105208e+01	-1.505336e+02
2.680000e-06	-3.119730e-06	-2.460959e-09	-2.205827e+01	-1.614944e+02
2.690000e-06	-3.260786e-06	-2.620098e-09	-2.305561e+01	-1.718552e+02
2.700000e-06	-3.400579e-06	-2.773009e-09	-2.404403e+01	-1.816336e+02
2.710000e-06	-3.538992e-06	-2.918321e-09	-2.502269e+01	-1.908606e+02
2.720000e-06	-3.676076e-06	-3.054405e-09	-2.599196e+01	-1.995758e+02
2.730000e-06	-3.811819e-06	-3.179988e-09	-2.695174e+01	-2.078223e+02
2.740000e-06	-3.946141e-06	-3.298369e-09	-2.790146e+01	-2.156422e+02
2.750000e-06	-4.079076e-06	-3.410818e-09	-2.884140e+01	-2.230739e+02
2.760000e-06	-4.210517e-06	-3.516747e-09	-2.977076e+01	-2.301490e+02
2.770000e-06	-4.340522e-06	-3.617355e-09	-3.068997e+01	-2.368926e+02
2.780000e-06	-4.469138e-06	-3.714838e-09	-3.159935e+01	-2.433231e+02
2.790000e-06	-4.596212e-06	-3.811062e-09	-3.249784e+01	-2.494539e+02
2.800000e-06	-4.721681e-06	-3.904342e-09	-3.338498e+01	-2.552955e+02
2.810000e-06	-4.845437e-06	-3.991148e-09	-3.426000e+01	-2.608576e+02
2.820000e-06	-4.967468e-06	-4.070785e-09	-3.512283e+01	-2.661507e+02
2.830000e-06	-5.087776e-06	-4.143019e-09	-3.597347e+01	-2.711881e+02
2.840000e-06	-5.206152e-06	-4.211657e-09	-3.681047e+01	-2.759859e+02
2.850000e-06	-5.322389e-06	-4.280069e-09	-3.763233e+01	-2.805632e+02
2.860000e-06	-5.436389e-06	-4.349241e-09	-3.843837e+01	-2.849404e+02
2.870000e-06	-5.548191e-06	-4.418294e-09	-3.922887e+01	-2.891385e+02
2.880000e-06	-5.657898e-06	-4.483533e-09	-4.000456e+01	-2.931764e+02
2.890000e-06	-5.765660e-06	-4.545910e-09	-4.076650e+01	-2.970698e+02
2.900000e-06	-5.871484e-06	-4.606689e-09	-4.151474e+01	-3.008292e+02
2.910000e-06	-5.975187e-06	-4.663808e-09	-4.224798e+01	-3.044599e+02
2.920000e-06	-6.076678e-06	-4.716962e-09	-4.296558e+01	-3.079615e+02
2.930000e-06	-6.175922e-06	-4.766852e-09	-4.366729e+01	-3.113287e+02
2.940000e-06	-6.272940e-06	-4.814029e-09	-4.435326e+01	-3.145534e+02
