# Temperatura_=_33.0
# Concentracion g/m^3_=_10000.0
# C_Vs_to_Am_M_A/Vsm_=_65563218390.804596
# pendiente_HvsI_1/m_=_3716.3
# ordenada_HvsI_A/m_=_1297.0
# frecuencia_Hz_=_302613.3890117352

Tiempo_(s)	Campo_(V.s)	Magnetizacion_(V.s)	Campo_(kA/m)	Magnetizacion_(A/m)
0.000000e+00	-7.882196e-06	-8.175127e-09	-5.684087e+01	-5.361245e+02
1.000000e-08	-7.879850e-06	-8.174166e-09	-5.682395e+01	-5.358807e+02
2.000000e-08	-7.874835e-06	-8.170146e-09	-5.678779e+01	-5.355425e+02
3.000000e-08	-7.867364e-06	-8.164184e-09	-5.673391e+01	-5.351222e+02
4.000000e-08	-7.857172e-06	-8.158243e-09	-5.666042e+01	-5.346339e+02
5.000000e-08	-7.844034e-06	-8.150184e-09	-5.656568e+01	-5.340921e+02
6.000000e-08	-7.827938e-06	-8.140373e-09	-5.644960e+01	-5.335094e+02
7.000000e-08	-7.809285e-06	-8.131037e-09	-5.631509e+01	-5.328948e+02
8.000000e-08	-7.788454e-06	-8.126283e-09	-5.616487e+01	-5.322531e+02
9.000000e-08	-7.765036e-06	-8.145339e-09	-5.599600e+01	-5.315838e+02
1.000000e-07	-7.738440e-06	-8.161109e-09	-5.580420e+01	-5.308815e+02
1.100000e-07	-7.708680e-06	-8.121643e-09	-5.558960e+01	-5.301366e+02
1.200000e-07	-7.676117e-06	-8.079170e-09	-5.535478e+01	-5.293371e+02
1.300000e-07	-7.640891e-06	-8.052392e-09	-5.510075e+01	-5.284694e+02
1.400000e-07	-7.603249e-06	-8.015763e-09	-5.482930e+01	-5.275206e+02
1.500000e-07	-7.563513e-06	-7.987090e-09	-5.454275e+01	-5.264799e+02
1.600000e-07	-7.521578e-06	-8.016039e-09	-5.424035e+01	-5.253393e+02
1.700000e-07	-7.477016e-06	-8.015914e-09	-5.391900e+01	-5.240948e+02
1.800000e-07	-7.429741e-06	-7.943473e-09	-5.357809e+01	-5.227456e+02
1.900000e-07	-7.379658e-06	-7.946234e-09	-5.321692e+01	-5.212945e+02
2.000000e-07	-7.326521e-06	-7.917118e-09	-5.283373e+01	-5.197464e+02
2.100000e-07	-7.270567e-06	-7.864683e-09	-5.243023e+01	-5.181073e+02
2.200000e-07	-7.211983e-06	-7.870042e-09	-5.200777e+01	-5.163833e+02
2.300000e-07	-7.150825e-06	-7.844581e-09	-5.156674e+01	-5.145794e+02
2.400000e-07	-7.087084e-06	-7.822619e-09	-5.110709e+01	-5.126989e+02
2.500000e-07	-7.020556e-06	-7.789090e-09	-5.062733e+01	-5.107431e+02
2.600000e-07	-6.951417e-06	-7.754472e-09	-5.012875e+01	-5.087110e+02
2.700000e-07	-6.879691e-06	-7.723312e-09	-4.961151e+01	-5.066000e+02
2.800000e-07	-6.805161e-06	-7.675939e-09	-4.907405e+01	-5.044064e+02
2.900000e-07	-6.727847e-06	-7.641538e-09	-4.851652e+01	-5.021260e+02
3.000000e-07	-6.647759e-06	-7.617213e-09	-4.793898e+01	-4.997547e+02
3.100000e-07	-6.565153e-06	-7.595092e-09	-4.734328e+01	-4.972891e+02
3.200000e-07	-6.480353e-06	-7.543017e-09	-4.673177e+01	-4.947267e+02
3.300000e-07	-6.393358e-06	-7.492818e-09	-4.610441e+01	-4.920657e+02
3.400000e-07	-6.304004e-06	-7.459648e-09	-4.546006e+01	-4.893050e+02
3.500000e-07	-6.212306e-06	-7.405827e-09	-4.479879e+01	-4.864436e+02
3.600000e-07	-6.118449e-06	-7.365653e-09	-4.412197e+01	-4.834802e+02
3.700000e-07	-6.022382e-06	-7.333363e-09	-4.342920e+01	-4.804127e+02
3.800000e-07	-5.924032e-06	-7.287384e-09	-4.271997e+01	-4.772384e+02
3.900000e-07	-5.823545e-06	-7.226500e-09	-4.199532e+01	-4.739534e+02
4.000000e-07	-5.721027e-06	-7.169222e-09	-4.125604e+01	-4.705531e+02
4.100000e-07	-5.616484e-06	-7.118102e-09	-4.050215e+01	-4.670326e+02
4.200000e-07	-5.509960e-06	-7.060041e-09	-3.973397e+01	-4.633872e+02
4.300000e-07	-5.401462e-06	-7.006209e-09	-3.895156e+01	-4.596126e+02
4.400000e-07	-5.291104e-06	-6.950512e-09	-3.815573e+01	-4.557057e+02
4.500000e-07	-5.178831e-06	-6.890709e-09	-3.734610e+01	-4.516641e+02
4.600000e-07	-5.064443e-06	-6.817970e-09	-3.652122e+01	-4.474868e+02
4.700000e-07	-4.948037e-06	-6.744169e-09	-3.568178e+01	-4.431728e+02
4.800000e-07	-4.829844e-06	-6.681322e-09	-3.482945e+01	-4.387214e+02
4.900000e-07	-4.709870e-06	-6.619531e-09	-3.396428e+01	-4.341307e+02
5.000000e-07	-4.588128e-06	-6.551410e-09	-3.308636e+01	-4.293978e+02
5.100000e-07	-4.464753e-06	-6.476686e-09	-3.219667e+01	-4.245173e+02
5.200000e-07	-4.339780e-06	-6.398238e-09	-3.129545e+01	-4.194820e+02
5.300000e-07	-4.213263e-06	-6.314117e-09	-3.038310e+01	-4.142824e+02
5.400000e-07	-4.085246e-06	-6.224012e-09	-2.945993e+01	-4.089079e+02
5.500000e-07	-3.955697e-06	-6.133320e-09	-2.852572e+01	-4.033470e+02
5.600000e-07	-3.824563e-06	-6.048561e-09	-2.758007e+01	-3.975887e+02
5.700000e-07	-3.691931e-06	-5.963901e-09	-2.662362e+01	-3.916238e+02
5.800000e-07	-3.558024e-06	-5.872198e-09	-2.565798e+01	-3.854450e+02
5.900000e-07	-3.422912e-06	-5.775129e-09	-2.468364e+01	-3.790482e+02
6.000000e-07	-3.286464e-06	-5.675932e-09	-2.369967e+01	-3.724318e+02
6.100000e-07	-3.148651e-06	-5.569944e-09	-2.270586e+01	-3.655964e+02
6.200000e-07	-3.009539e-06	-5.458386e-09	-2.170269e+01	-3.585438e+02
6.300000e-07	-2.869092e-06	-5.348316e-09	-2.068988e+01	-3.512752e+02
6.400000e-07	-2.727391e-06	-5.235908e-09	-1.966803e+01	-3.437896e+02
6.500000e-07	-2.584599e-06	-5.117563e-09	-1.863832e+01	-3.360827e+02
6.600000e-07	-2.440800e-06	-4.994292e-09	-1.760134e+01	-3.281454e+02
6.700000e-07	-2.296110e-06	-4.866312e-09	-1.655793e+01	-3.199633e+02
6.800000e-07	-2.150587e-06	-4.733526e-09	-1.550852e+01	-3.115172e+02
6.900000e-07	-2.004324e-06	-4.598446e-09	-1.445378e+01	-3.027840e+02
7.000000e-07	-1.857486e-06	-4.464706e-09	-1.339489e+01	-2.937387e+02
7.100000e-07	-1.710135e-06	-4.325123e-09	-1.233230e+01	-2.843561e+02
7.200000e-07	-1.562262e-06	-4.173223e-09	-1.126594e+01	-2.746137e+02
7.300000e-07	-1.413903e-06	-4.014337e-09	-1.019608e+01	-2.644931e+02
7.400000e-07	-1.265124e-06	-3.853434e-09	-9.123187e+00	-2.539818e+02
7.500000e-07	-1.115915e-06	-3.689047e-09	-8.047197e+00	-2.430731e+02
7.600000e-07	-9.663460e-07	-3.519634e-09	-6.968610e+00	-2.317656e+02
7.700000e-07	-8.164884e-07	-3.344324e-09	-5.887942e+00	-2.200608e+02
7.800000e-07	-6.664111e-07	-3.160906e-09	-4.805690e+00	-2.079604e+02
7.900000e-07	-5.161554e-07	-2.970937e-09	-3.722151e+00	-1.954624e+02
8.000000e-07	-3.656659e-07	-2.774547e-09	-2.636926e+00	-1.825574e+02
8.100000e-07	-2.149642e-07	-2.570620e-09	-1.550171e+00	-1.692258e+02
8.200000e-07	-6.414968e-08	-2.357880e-09	-4.626025e-01	-1.554354e+02
8.300000e-07	8.669980e-08	-2.136952e-09	6.252182e-01	-1.411415e+02
8.400000e-07	2.375675e-07	-1.908856e-09	1.713170e+00	-1.262885e+02
8.500000e-07	3.883722e-07	-1.672394e-09	2.800668e+00	-1.108141e+02
8.600000e-07	5.390015e-07	-1.428415e-09	3.886901e+00	-9.465490e+01
8.700000e-07	6.894261e-07	-1.175815e-09	4.971658e+00	-7.775434e+01
8.800000e-07	8.396538e-07	-9.105111e-10	6.054995e+00	-6.007068e+01
8.900000e-07	9.896077e-07	-6.295806e-10	7.136357e+00	-4.158541e+01
9.000000e-07	1.139284e-06	-3.375392e-10	8.215721e+00	-2.231034e+01
9.100000e-07	1.288692e-06	-3.705548e-11	9.293144e+00	-2.292921e+00
9.200000e-07	1.437650e-06	2.767179e-10	1.036733e+01	1.838127e+01
9.300000e-07	1.586031e-06	6.032060e-10	1.143735e+01	3.958920e+01
9.400000e-07	1.733820e-06	9.367457e-10	1.250309e+01	6.117439e+01
9.500000e-07	1.881062e-06	1.271896e-09	1.356490e+01	8.295412e+01
9.600000e-07	2.027769e-06	1.605555e-09	1.462285e+01	1.047291e+02
9.700000e-07	2.173748e-06	1.937818e-09	1.567555e+01	1.262950e+02
9.800000e-07	2.318849e-06	2.262176e-09	1.672192e+01	1.474541e+02
9.900000e-07	2.463062e-06	2.572470e-09	1.776188e+01	1.680274e+02
1.000000e-06	2.606282e-06	2.871244e-09	1.879468e+01	1.878637e+02
1.010000e-06	2.748441e-06	3.156331e-09	1.981983e+01	2.068470e+02
1.020000e-06	2.889538e-06	3.428936e-09	2.083732e+01	2.249009e+02
1.030000e-06	3.029442e-06	3.688461e-09	2.184622e+01	2.419885e+02
1.040000e-06	3.168126e-06	3.934420e-09	2.284630e+01	2.581100e+02
1.050000e-06	3.305584e-06	4.164838e-09	2.383755e+01	2.732968e+02
1.060000e-06	3.441673e-06	4.380363e-09	2.481894e+01	2.876037e+02
1.070000e-06	3.576420e-06	4.585364e-09	2.579063e+01	3.011001e+02
1.080000e-06	3.709969e-06	4.781937e-09	2.675370e+01	3.138614e+02
1.090000e-06	3.842206e-06	4.968091e-09	2.770730e+01	3.259603e+02
1.100000e-06	3.973046e-06	5.141576e-09	2.865082e+01	3.374610e+02
1.110000e-06	4.102474e-06	5.308410e-09	2.958417e+01	3.484150e+02
1.120000e-06	4.230410e-06	5.469728e-09	3.050675e+01	3.588594e+02
1.130000e-06	4.356891e-06	5.623628e-09	3.141885e+01	3.688179e+02
1.140000e-06	4.481922e-06	5.769168e-09	3.232048e+01	3.783033e+02
1.150000e-06	4.605483e-06	5.905319e-09	3.321151e+01	3.873211e+02
1.160000e-06	4.727426e-06	6.033039e-09	3.409089e+01	3.958750e+02
1.170000e-06	4.847594e-06	6.152995e-09	3.495745e+01	4.039699e+02
1.180000e-06	4.966000e-06	6.267852e-09	3.581131e+01	4.116168e+02
1.190000e-06	5.082609e-06	6.379375e-09	3.665221e+01	4.188337e+02
1.200000e-06	5.197234e-06	6.484118e-09	3.747881e+01	4.256470e+02
1.210000e-06	5.309786e-06	6.580137e-09	3.829046e+01	4.320900e+02
1.220000e-06	5.420388e-06	6.671778e-09	3.908804e+01	4.382012e+02
1.230000e-06	5.529185e-06	6.763754e-09	3.987260e+01	4.440204e+02
1.240000e-06	5.636050e-06	6.851889e-09	4.064324e+01	4.495857e+02
1.250000e-06	5.740707e-06	6.934613e-09	4.139796e+01	4.549299e+02
1.260000e-06	5.843213e-06	7.013780e-09	4.213716e+01	4.600783e+02
1.270000e-06	5.943661e-06	7.089224e-09	4.286151e+01	4.650469e+02
1.280000e-06	6.041835e-06	7.159139e-09	4.356948e+01	4.698425e+02
1.290000e-06	6.137690e-06	7.225349e-09	4.426072e+01	4.744636e+02
1.300000e-06	6.231441e-06	7.290755e-09	4.493678e+01	4.789025e+02
1.310000e-06	6.323096e-06	7.354780e-09	4.559773e+01	4.831484e+02
1.320000e-06	6.412367e-06	7.416168e-09	4.624150e+01	4.871900e+02
1.330000e-06	6.499268e-06	7.473704e-09	4.686816e+01	4.910185e+02
1.340000e-06	6.583960e-06	7.527824e-09	4.747890e+01	4.946298e+02
1.350000e-06	6.666352e-06	7.580359e-09	4.807306e+01	4.980256e+02
1.360000e-06	6.746294e-06	7.628307e-09	4.864955e+01	5.012138e+02
1.370000e-06	6.823758e-06	7.671376e-09	4.920816e+01	5.042072e+02
1.380000e-06	6.898629e-06	7.712808e-09	4.974808e+01	5.070223e+02
1.390000e-06	6.970824e-06	7.754528e-09	5.026870e+01	5.096769e+02
1.400000e-06	7.040562e-06	7.796354e-09	5.077160e+01	5.121878e+02
1.410000e-06	7.107879e-06	7.836496e-09	5.125704e+01	5.145689e+02
1.420000e-06	7.172621e-06	7.872613e-09	5.172391e+01	5.168298e+02
1.430000e-06	7.234866e-06	7.902789e-09	5.217279e+01	5.189747e+02
1.440000e-06	7.294684e-06	7.929496e-09	5.260415e+01	5.210032e+02
1.450000e-06	7.351908e-06	7.956532e-09	5.301681e+01	5.229111e+02
1.460000e-06	7.406497e-06	7.984306e-09	5.341047e+01	5.246918e+02
1.470000e-06	7.458217e-06	8.009869e-09	5.378344e+01	5.263387e+02
1.480000e-06	7.506818e-06	8.033210e-09	5.413391e+01	5.278467e+02
1.490000e-06	7.552605e-06	8.054416e-09	5.446409e+01	5.292140e+02
1.500000e-06	7.595780e-06	8.072875e-09	5.477545e+01	5.304431e+02
1.510000e-06	7.636203e-06	8.091206e-09	5.506694e+01	5.315408e+02
1.520000e-06	7.673944e-06	8.110068e-09	5.533911e+01	5.325178e+02
1.530000e-06	7.709090e-06	8.126472e-09	5.559255e+01	5.333876e+02
1.540000e-06	7.741445e-06	8.138342e-09	5.582587e+01	5.341644e+02
1.550000e-06	7.771041e-06	8.146748e-09	5.603930e+01	5.348615e+02
1.560000e-06	7.797916e-06	8.155936e-09	5.623310e+01	5.354895e+02
1.570000e-06	7.821879e-06	8.165895e-09	5.640591e+01	5.360548e+02
1.580000e-06	7.843053e-06	8.175464e-09	5.655860e+01	5.365593e+02
1.590000e-06	7.861543e-06	8.184219e-09	5.669194e+01	5.369997e+02
1.600000e-06	7.877111e-06	8.191573e-09	5.680421e+01	5.373692e+02
1.610000e-06	7.889589e-06	8.197024e-09	5.689419e+01	5.376583e+02
1.620000e-06	7.898976e-06	8.199072e-09	5.696188e+01	5.378567e+02
1.630000e-06	7.905441e-06	8.200258e-09	5.700850e+01	5.379555e+02
1.640000e-06	7.909132e-06	8.200630e-09	5.703512e+01	5.379485e+02
1.650000e-06	7.910017e-06	8.199635e-09	5.704150e+01	5.378340e+02
1.660000e-06	7.908167e-06	8.196918e-09	5.702816e+01	5.376148e+02
1.670000e-06	7.903750e-06	8.192355e-09	5.699631e+01	5.372987e+02
1.680000e-06	7.896671e-06	8.190808e-09	5.694526e+01	5.368971e+02
1.690000e-06	7.886956e-06	8.186716e-09	5.687520e+01	5.364239e+02
1.700000e-06	7.874534e-06	8.179452e-09	5.678562e+01	5.358937e+02
1.710000e-06	7.859308e-06	8.172124e-09	5.667582e+01	5.353197e+02
1.720000e-06	7.841650e-06	8.163988e-09	5.654848e+01	5.347119e+02
1.730000e-06	7.821755e-06	8.139078e-09	5.640501e+01	5.340764e+02
1.740000e-06	7.799170e-06	8.074021e-09	5.624215e+01	5.334138e+02
1.750000e-06	7.773328e-06	8.054710e-09	5.605580e+01	5.327199e+02
1.760000e-06	7.743977e-06	8.083179e-09	5.584414e+01	5.319863e+02
1.770000e-06	7.711444e-06	8.085551e-09	5.560953e+01	5.312011e+02
1.780000e-06	7.676497e-06	8.094319e-09	5.535751e+01	5.303512e+02
1.790000e-06	7.639280e-06	8.115088e-09	5.508913e+01	5.294234e+02
1.800000e-06	7.599881e-06	8.082989e-09	5.480502e+01	5.284060e+02
1.810000e-06	7.558459e-06	8.023394e-09	5.450631e+01	5.272904e+02
1.820000e-06	7.514502e-06	8.039282e-09	5.418933e+01	5.260715e+02
1.830000e-06	7.467872e-06	8.013064e-09	5.385306e+01	5.247478e+02
1.840000e-06	7.418573e-06	8.011009e-09	5.349755e+01	5.233213e+02
1.850000e-06	7.366282e-06	8.010208e-09	5.312047e+01	5.217964e+02
1.860000e-06	7.311113e-06	7.924341e-09	5.272263e+01	5.201790e+02
1.870000e-06	7.253289e-06	7.920491e-09	5.230563e+01	5.184751e+02
1.880000e-06	7.192940e-06	7.861682e-09	5.187044e+01	5.166903e+02
1.890000e-06	7.129883e-06	7.841630e-09	5.141572e+01	5.148283e+02
1.900000e-06	7.064007e-06	7.852036e-09	5.094067e+01	5.128909e+02
1.910000e-06	6.995402e-06	7.792321e-09	5.044594e+01	5.108775e+02
1.920000e-06	6.923973e-06	7.789079e-09	4.993084e+01	5.087860e+02
1.930000e-06	6.849900e-06	7.730277e-09	4.939668e+01	5.066130e+02
1.940000e-06	6.773147e-06	7.701066e-09	4.884319e+01	5.043541e+02
1.950000e-06	6.693726e-06	7.654495e-09	4.827046e+01	5.020054e+02
1.960000e-06	6.611840e-06	7.609563e-09	4.767995e+01	4.995632e+02
1.970000e-06	6.527482e-06	7.601991e-09	4.707163e+01	4.970246e+02
1.980000e-06	6.440647e-06	7.536225e-09	4.644543e+01	4.943879e+02
1.990000e-06	6.351432e-06	7.525317e-09	4.580208e+01	4.916517e+02
2.000000e-06	6.260122e-06	7.472181e-09	4.514361e+01	4.888151e+02
2.010000e-06	6.166627e-06	7.411210e-09	4.446940e+01	4.858768e+02
2.020000e-06	6.070813e-06	7.354581e-09	4.377845e+01	4.828351e+02
2.030000e-06	5.972849e-06	7.305973e-09	4.307200e+01	4.796873e+02
2.040000e-06	5.872852e-06	7.275291e-09	4.235089e+01	4.764299e+02
2.050000e-06	5.770799e-06	7.224194e-09	4.161496e+01	4.730583e+02
2.060000e-06	5.666641e-06	7.181106e-09	4.086384e+01	4.695679e+02
2.070000e-06	5.560529e-06	7.109506e-09	4.009864e+01	4.659536e+02
2.080000e-06	5.452589e-06	7.041892e-09	3.932025e+01	4.622111e+02
2.090000e-06	5.342744e-06	6.974138e-09	3.852812e+01	4.583370e+02
2.100000e-06	5.230857e-06	6.930327e-09	3.772128e+01	4.543288e+02
2.110000e-06	5.116973e-06	6.881939e-09	3.690002e+01	4.501849e+02
2.120000e-06	5.001116e-06	6.818527e-09	3.606455e+01	4.459047e+02
2.130000e-06	4.883247e-06	6.744045e-09	3.521456e+01	4.414872e+02
2.140000e-06	4.763492e-06	6.668026e-09	3.435097e+01	4.369311e+02
2.150000e-06	4.641996e-06	6.595749e-09	3.347482e+01	4.322336e+02
2.160000e-06	4.518870e-06	6.517963e-09	3.258693e+01	4.273901e+02
2.170000e-06	4.394070e-06	6.446615e-09	3.168696e+01	4.223938e+02
2.180000e-06	4.267635e-06	6.369648e-09	3.077519e+01	4.172358e+02
2.190000e-06	4.139617e-06	6.293839e-09	2.985201e+01	4.119055e+02
2.200000e-06	4.010110e-06	6.206619e-09	2.891810e+01	4.063917e+02
2.210000e-06	3.879241e-06	6.118461e-09	2.797437e+01	4.006833e+02
2.220000e-06	3.746980e-06	6.027446e-09	2.702059e+01	3.947703e+02
2.230000e-06	3.613227e-06	5.933713e-09	2.605606e+01	3.886450e+02
2.240000e-06	3.478082e-06	5.834855e-09	2.508149e+01	3.823024e+02
2.250000e-06	3.341681e-06	5.738753e-09	2.409786e+01	3.757404e+02
2.260000e-06	3.204037e-06	5.640901e-09	2.310527e+01	3.689591e+02
2.270000e-06	3.065185e-06	5.531941e-09	2.210397e+01	3.619602e+02
2.280000e-06	2.925067e-06	5.415930e-09	2.109353e+01	3.547450e+02
2.290000e-06	2.783727e-06	5.300858e-09	2.007429e+01	3.473134e+02
2.300000e-06	2.641316e-06	5.189710e-09	1.904732e+01	3.396620e+02
2.310000e-06	2.497954e-06	5.075293e-09	1.801350e+01	3.317829e+02
2.320000e-06	2.353699e-06	4.959360e-09	1.697323e+01	3.236631e+02
2.330000e-06	2.208625e-06	4.832077e-09	1.592706e+01	3.152845e+02
2.340000e-06	2.062816e-06	4.692856e-09	1.487558e+01	3.066250e+02
2.350000e-06	1.916336e-06	4.547967e-09	1.381927e+01	2.976596e+02
2.360000e-06	1.769257e-06	4.405363e-09	1.275865e+01	2.883630e+02
2.370000e-06	1.621686e-06	4.261319e-09	1.169447e+01	2.787120e+02
2.380000e-06	1.473660e-06	4.110895e-09	1.062701e+01	2.686868e+02
2.390000e-06	1.325109e-06	3.955593e-09	9.555761e+00	2.582735e+02
2.400000e-06	1.176024e-06	3.792722e-09	8.480661e+00	2.474640e+02
2.410000e-06	1.026453e-06	3.620468e-09	7.402062e+00	2.362556e+02
2.420000e-06	8.764729e-07	3.442042e-09	6.320509e+00	2.246494e+02
2.430000e-06	7.262180e-07	3.260426e-09	5.236975e+00	2.126474e+02
2.440000e-06	5.757408e-07	3.073230e-09	4.151839e+00	2.002488e+02
2.450000e-06	4.250926e-07	2.878997e-09	3.065470e+00	1.874465e+02
2.460000e-06	2.743123e-07	2.677199e-09	1.978148e+00	1.742235e+02
2.470000e-06	1.234232e-07	2.467794e-09	8.900419e-01	1.605510e+02
2.480000e-06	-2.750376e-08	2.247615e-09	-1.983378e-01	1.463873e+02
2.490000e-06	-1.784678e-07	2.016866e-09	-1.286985e+00	1.316793e+02
2.500000e-06	-3.294232e-07	1.778481e-09	-2.375569e+00	1.163657e+02
2.510000e-06	-4.802812e-07	1.532737e-09	-3.463452e+00	1.003829e+02
2.520000e-06	-6.310003e-07	1.279458e-09	-4.550332e+00	8.367181e+01
2.530000e-06	-7.815722e-07	1.015820e-09	-5.636151e+00	6.618620e+01
2.540000e-06	-9.319595e-07	7.394107e-10	-6.720639e+00	4.790100e+01
2.550000e-06	-1.082037e-06	4.497897e-10	-7.802891e+00	2.881989e+01
2.560000e-06	-1.231582e-06	1.485044e-10	-8.881306e+00	8.981029e+00
2.570000e-06	-1.380502e-06	-1.625566e-10	-9.955213e+00	-1.153959e+01
2.580000e-06	-1.528873e-06	-4.836124e-10	-1.102516e+01	-3.262805e+01
2.590000e-06	-1.676755e-06	-8.149724e-10	-1.209158e+01	-5.413569e+01
2.600000e-06	-1.824065e-06	-1.151150e-09	-1.315388e+01	-7.588552e+01
2.610000e-06	-1.970683e-06	-1.487923e-09	-1.421119e+01	-9.768137e+01
2.620000e-06	-2.116587e-06	-1.822659e-09	-1.526334e+01	-1.193190e+02
2.630000e-06	-2.261758e-06	-2.149084e-09	-1.631022e+01	-1.405981e+02
2.640000e-06	-2.406010e-06	-2.462040e-09	-1.735046e+01	-1.613337e+02
2.650000e-06	-2.549322e-06	-2.763703e-09	-1.838392e+01	-1.813671e+02
2.660000e-06	-2.691756e-06	-3.055838e-09	-1.941106e+01	-2.005729e+02
2.670000e-06	-2.833015e-06	-3.334799e-09	-2.042972e+01	-2.188647e+02
2.680000e-06	-2.972989e-06	-3.597847e-09	-2.143911e+01	-2.361957e+02
2.690000e-06	-3.111744e-06	-3.846391e-09	-2.243972e+01	-2.525574e+02
2.700000e-06	-3.249391e-06	-4.083217e-09	-2.343233e+01	-2.679740e+02
2.710000e-06	-3.385870e-06	-4.308195e-09	-2.441652e+01	-2.824952e+02
2.720000e-06	-3.521054e-06	-4.521684e-09	-2.539137e+01	-2.961879e+02
2.730000e-06	-3.654926e-06	-4.723182e-09	-2.635676e+01	-3.091264e+02
2.740000e-06	-3.787408e-06	-4.911665e-09	-2.731213e+01	-3.213850e+02
2.750000e-06	-3.918547e-06	-5.089259e-09	-2.825781e+01	-3.330303e+02
2.760000e-06	-4.048424e-06	-5.258160e-09	-2.919440e+01	-3.441174e+02
2.770000e-06	-4.176941e-06	-5.419715e-09	-3.012117e+01	-3.546870e+02
2.780000e-06	-4.304011e-06	-5.573183e-09	-3.103751e+01	-3.647660e+02
2.790000e-06	-4.429578e-06	-5.717263e-09	-3.194302e+01	-3.743694e+02
2.800000e-06	-4.553547e-06	-5.853681e-09	-3.283699e+01	-3.835043e+02
2.810000e-06	-4.675973e-06	-5.985571e-09	-3.371984e+01	-3.921743e+02
2.820000e-06	-4.796725e-06	-6.111145e-09	-3.459062e+01	-4.003838e+02
2.830000e-06	-4.915652e-06	-6.229498e-09	-3.544823e+01	-4.081418e+02
2.840000e-06	-5.032669e-06	-6.343139e-09	-3.629208e+01	-4.154645e+02
2.850000e-06	-5.147609e-06	-6.449851e-09	-3.712095e+01	-4.223763e+02
2.860000e-06	-5.260427e-06	-6.550256e-09	-3.793451e+01	-4.289090e+02
2.870000e-06	-5.371111e-06	-6.644289e-09	-3.873269e+01	-4.350999e+02
2.880000e-06	-5.479815e-06	-6.734926e-09	-3.951659e+01	-4.409889e+02
2.890000e-06	-5.586722e-06	-6.821943e-09	-4.028753e+01	-4.466148e+02
2.900000e-06	-5.691800e-06	-6.904390e-09	-4.104527e+01	-4.520121e+02
2.910000e-06	-5.794763e-06	-6.984589e-09	-4.178777e+01	-4.572081e+02
2.920000e-06	-5.895406e-06	-7.060992e-09	-4.251354e+01	-4.622212e+02
2.930000e-06	-5.993886e-06	-7.134908e-09	-4.322370e+01	-4.670604e+02
2.940000e-06	-6.090299e-06	-7.206037e-09	-4.391897e+01	-4.717261e+02
