# Temperatura_=_62.68
# Concentracion g/m^3_=_10000.0
# C_Vs_to_Am_M_A/Vsm_=_65563218390.804596
# pendiente_HvsI_1/m_=_3716.3
# ordenada_HvsI_A/m_=_1297.0
# frecuencia_Hz_=_302625.8792537859

Tiempo_(s)	Campo_(V.s)	Magnetizacion_(V.s)	Campo_(kA/m)	Magnetizacion_(A/m)
0.000000e+00	-7.955273e-06	-1.000246e-08	-5.681512e+01	-6.556232e+02
1.000000e-08	-7.950671e-06	-9.998809e-09	-5.678226e+01	-6.551886e+02
2.000000e-08	-7.943521e-06	-9.990744e-09	-5.673120e+01	-6.546393e+02
3.000000e-08	-7.933662e-06	-9.981135e-09	-5.666078e+01	-6.539897e+02
4.000000e-08	-7.920863e-06	-9.969196e-09	-5.656937e+01	-6.532543e+02
5.000000e-08	-7.905119e-06	-9.955176e-09	-5.645694e+01	-6.524457e+02
6.000000e-08	-7.886798e-06	-9.943289e-09	-5.632609e+01	-6.515733e+02
7.000000e-08	-7.866209e-06	-9.939692e-09	-5.617905e+01	-6.506429e+02
8.000000e-08	-7.842997e-06	-9.953583e-09	-5.601327e+01	-6.496558e+02
9.000000e-08	-7.816663e-06	-9.964023e-09	-5.582520e+01	-6.486092e+02
1.000000e-07	-7.787174e-06	-9.916523e-09	-5.561459e+01	-6.474970e+02
1.100000e-07	-7.754792e-06	-9.860393e-09	-5.538333e+01	-6.463107e+02
1.200000e-07	-7.719664e-06	-9.828064e-09	-5.513245e+01	-6.450401e+02
1.300000e-07	-7.682075e-06	-9.790310e-09	-5.486399e+01	-6.436749e+02
1.400000e-07	-7.642298e-06	-9.757793e-09	-5.457992e+01	-6.422052e+02
1.500000e-07	-7.600230e-06	-9.770454e-09	-5.427947e+01	-6.406226e+02
1.600000e-07	-7.555622e-06	-9.781352e-09	-5.396089e+01	-6.389199e+02
1.700000e-07	-7.508321e-06	-9.708208e-09	-5.362308e+01	-6.370916e+02
1.800000e-07	-7.458171e-06	-9.679721e-09	-5.326491e+01	-6.351336e+02
1.900000e-07	-7.405020e-06	-9.646443e-09	-5.288532e+01	-6.330431e+02
2.000000e-07	-7.349013e-06	-9.568619e-09	-5.248532e+01	-6.308180e+02
2.100000e-07	-7.290320e-06	-9.561209e-09	-5.206615e+01	-6.284569e+02
2.200000e-07	-7.228994e-06	-9.543624e-09	-5.162817e+01	-6.259590e+02
2.300000e-07	-7.165056e-06	-9.499366e-09	-5.117154e+01	-6.233241e+02
2.400000e-07	-7.098370e-06	-9.450729e-09	-5.069528e+01	-6.205525e+02
2.500000e-07	-7.028940e-06	-9.410695e-09	-5.019942e+01	-6.176456e+02
2.600000e-07	-6.956751e-06	-9.364192e-09	-4.968386e+01	-6.146058e+02
2.700000e-07	-6.881850e-06	-9.303642e-09	-4.914893e+01	-6.114363e+02
2.800000e-07	-6.804257e-06	-9.264968e-09	-4.859478e+01	-6.081413e+02
2.900000e-07	-6.723859e-06	-9.222638e-09	-4.802059e+01	-6.047250e+02
3.000000e-07	-6.640985e-06	-9.174151e-09	-4.742872e+01	-6.011916e+02
3.100000e-07	-6.555904e-06	-9.110443e-09	-4.682109e+01	-5.975445e+02
3.200000e-07	-6.468501e-06	-9.041509e-09	-4.619687e+01	-5.937852e+02
3.300000e-07	-6.378732e-06	-8.982928e-09	-4.555575e+01	-5.899132e+02
3.400000e-07	-6.286623e-06	-8.915462e-09	-4.489793e+01	-5.859257e+02
3.500000e-07	-6.192296e-06	-8.858435e-09	-4.422426e+01	-5.818174e+02
3.600000e-07	-6.095706e-06	-8.810074e-09	-4.353444e+01	-5.775808e+02
3.700000e-07	-5.996801e-06	-8.748193e-09	-4.282807e+01	-5.732074e+02
3.800000e-07	-5.895744e-06	-8.672471e-09	-4.210634e+01	-5.686883e+02
3.900000e-07	-5.792622e-06	-8.595733e-09	-4.136986e+01	-5.640153e+02
4.000000e-07	-5.687445e-06	-8.518634e-09	-4.061871e+01	-5.591819e+02
4.100000e-07	-5.580269e-06	-8.436640e-09	-3.985327e+01	-5.541842e+02
4.200000e-07	-5.471167e-06	-8.364767e-09	-3.907409e+01	-5.490207e+02
4.300000e-07	-5.360121e-06	-8.293461e-09	-3.828102e+01	-5.436929e+02
4.400000e-07	-5.246964e-06	-8.210381e-09	-3.747287e+01	-5.382041e+02
4.500000e-07	-5.131668e-06	-8.116164e-09	-3.664945e+01	-5.325585e+02
4.600000e-07	-5.014471e-06	-8.022277e-09	-3.581245e+01	-5.267599e+02
4.700000e-07	-4.895478e-06	-7.934155e-09	-3.496262e+01	-5.208103e+02
4.800000e-07	-4.774638e-06	-7.849234e-09	-3.409961e+01	-5.147087e+02
4.900000e-07	-4.652048e-06	-7.760043e-09	-3.322409e+01	-5.084505e+02
5.000000e-07	-4.527870e-06	-7.659018e-09	-3.233723e+01	-5.020268e+02
5.100000e-07	-4.402072e-06	-7.551641e-09	-3.143880e+01	-4.954254e+02
5.200000e-07	-4.274581e-06	-7.444348e-09	-3.052829e+01	-4.886312e+02
5.300000e-07	-4.145477e-06	-7.336422e-09	-2.960625e+01	-4.816284e+02
5.400000e-07	-4.014915e-06	-7.222067e-09	-2.867380e+01	-4.744014e+02
5.500000e-07	-3.882880e-06	-7.108613e-09	-2.773083e+01	-4.669372e+02
5.600000e-07	-3.749347e-06	-6.997909e-09	-2.677716e+01	-4.592265e+02
5.700000e-07	-3.614387e-06	-6.880370e-09	-2.581330e+01	-4.512645e+02
5.800000e-07	-3.477969e-06	-6.754613e-09	-2.483902e+01	-4.430509e+02
5.900000e-07	-3.340139e-06	-6.625811e-09	-2.385467e+01	-4.345892e+02
6.000000e-07	-3.200993e-06	-6.493140e-09	-2.286091e+01	-4.258850e+02
6.100000e-07	-3.060567e-06	-6.352471e-09	-2.185802e+01	-4.169441e+02
6.200000e-07	-2.918803e-06	-6.213578e-09	-2.084557e+01	-4.077701e+02
6.300000e-07	-2.775731e-06	-6.076746e-09	-1.982377e+01	-3.983620e+02
6.400000e-07	-2.631675e-06	-5.928882e-09	-1.879495e+01	-3.887131e+02
6.500000e-07	-2.486752e-06	-5.770403e-09	-1.775993e+01	-3.788094e+02
6.600000e-07	-2.340972e-06	-5.610733e-09	-1.671880e+01	-3.686304e+02
6.700000e-07	-2.194435e-06	-5.450613e-09	-1.567226e+01	-3.581504e+02
6.800000e-07	-2.047162e-06	-5.283755e-09	-1.462046e+01	-3.473403e+02
6.900000e-07	-1.899172e-06	-5.112977e-09	-1.356354e+01	-3.361707e+02
7.000000e-07	-1.750564e-06	-4.939353e-09	-1.250221e+01	-3.246151e+02
7.100000e-07	-1.601469e-06	-4.755895e-09	-1.143740e+01	-3.126521e+02
7.200000e-07	-1.451935e-06	-4.564470e-09	-1.036946e+01	-3.002674e+02
7.300000e-07	-1.301920e-06	-4.370733e-09	-9.298078e+00	-2.874544e+02
7.400000e-07	-1.151412e-06	-4.171952e-09	-8.223180e+00	-2.742127e+02
7.500000e-07	-1.000462e-06	-3.966903e-09	-7.145120e+00	-2.605458e+02
7.600000e-07	-8.491122e-07	-3.756003e-09	-6.064206e+00	-2.464572e+02
7.700000e-07	-6.974557e-07	-3.537199e-09	-4.981103e+00	-2.319451e+02
7.800000e-07	-5.455748e-07	-3.308860e-09	-3.896397e+00	-2.169981e+02
7.900000e-07	-3.935151e-07	-3.071507e-09	-2.810414e+00	-2.015902e+02
8.000000e-07	-2.413079e-07	-2.826163e-09	-1.723377e+00	-1.856785e+02
8.100000e-07	-8.894283e-08	-2.572286e-09	-6.352137e-01	-1.692021e+02
8.200000e-07	6.354220e-08	-2.308244e-09	4.538069e-01	-1.520842e+02
8.300000e-07	2.160212e-07	-2.035612e-09	1.542785e+00	-1.342369e+02
8.400000e-07	3.683896e-07	-1.752511e-09	2.630972e+00	-1.155686e+02
8.500000e-07	5.206338e-07	-1.454431e-09	3.718272e+00	-9.599354e+01
8.600000e-07	6.727122e-07	-1.142371e-09	4.804389e+00	-7.544261e+01
8.700000e-07	8.245652e-07	-8.164883e-10	5.888896e+00	-5.387442e+01
8.800000e-07	9.761593e-07	-4.750435e-10	6.971554e+00	-3.128509e+01
8.900000e-07	1.127440e-06	-1.195507e-10	8.051976e+00	-7.715826e+00
9.000000e-07	1.278355e-06	2.488764e-10	9.129784e+00	1.674271e+01
9.100000e-07	1.428764e-06	6.333110e-10	1.020398e+01	4.195016e+01
9.200000e-07	1.578612e-06	1.031023e-09	1.127416e+01	6.772052e+01
9.300000e-07	1.727923e-06	1.434670e-09	1.234052e+01	9.383025e+01
9.400000e-07	1.876618e-06	1.838893e-09	1.340247e+01	1.200300e+02
9.500000e-07	2.024630e-06	2.239483e-09	1.445955e+01	1.460590e+02
9.600000e-07	2.171940e-06	2.632292e-09	1.551160e+01	1.716600e+02
9.700000e-07	2.318466e-06	3.012779e-09	1.655807e+01	1.965951e+02
9.800000e-07	2.464170e-06	3.375883e-09	1.759866e+01	2.206585e+02
9.900000e-07	2.608970e-06	3.722985e-09	1.863279e+01	2.436877e+02
1.000000e-06	2.752697e-06	4.053785e-09	1.965927e+01	2.655697e+02
1.010000e-06	2.895335e-06	4.366068e-09	2.067796e+01	2.862437e+02
1.020000e-06	3.036816e-06	4.658905e-09	2.168839e+01	3.056991e+02
1.030000e-06	3.177098e-06	4.935287e-09	2.269026e+01	3.239693e+02
1.040000e-06	3.316152e-06	5.197479e-09	2.368336e+01	3.411229e+02
1.050000e-06	3.453888e-06	5.443815e-09	2.466704e+01	3.572530e+02
1.060000e-06	3.590266e-06	5.675934e-09	2.564104e+01	3.724650e+02
1.070000e-06	3.725255e-06	5.898097e-09	2.660510e+01	3.868658e+02
1.080000e-06	3.858933e-06	6.109263e-09	2.755981e+01	4.005544e+02
1.090000e-06	3.991284e-06	6.309575e-09	2.850503e+01	4.136147e+02
1.100000e-06	4.122179e-06	6.501594e-09	2.943986e+01	4.261116e+02
1.110000e-06	4.251588e-06	6.684387e-09	3.036408e+01	4.380898e+02
1.120000e-06	4.379490e-06	6.856815e-09	3.127753e+01	4.495755e+02
1.130000e-06	4.505880e-06	7.018531e-09	3.218018e+01	4.605803e+02
1.140000e-06	4.630774e-06	7.172819e-09	3.307215e+01	4.711061e+02
1.150000e-06	4.754152e-06	7.322000e-09	3.395330e+01	4.811508e+02
1.160000e-06	4.875830e-06	7.467273e-09	3.482230e+01	4.907133e+02
1.170000e-06	4.995670e-06	7.607145e-09	3.567817e+01	4.997978e+02
1.180000e-06	5.113698e-06	7.740324e-09	3.652111e+01	5.084164e+02
1.190000e-06	5.229852e-06	7.867682e-09	3.735066e+01	5.165898e+02
1.200000e-06	5.343962e-06	7.989096e-09	3.816561e+01	5.243466e+02
1.210000e-06	5.455958e-06	8.104221e-09	3.896547e+01	5.317211e+02
1.220000e-06	5.565995e-06	8.212657e-09	3.975133e+01	5.387504e+02
1.230000e-06	5.674134e-06	8.314002e-09	4.052364e+01	5.454713e+02
1.240000e-06	5.780244e-06	8.410819e-09	4.128146e+01	5.519167e+02
1.250000e-06	5.884199e-06	8.506091e-09	4.202389e+01	5.581139e+02
1.260000e-06	5.986024e-06	8.599093e-09	4.275110e+01	5.640830e+02
1.270000e-06	6.085693e-06	8.686116e-09	4.346292e+01	5.698369e+02
1.280000e-06	6.182997e-06	8.767391e-09	4.415785e+01	5.753816e+02
1.290000e-06	6.277952e-06	8.845867e-09	4.483600e+01	5.807187e+02
1.300000e-06	6.370722e-06	8.923695e-09	4.549855e+01	5.858469e+02
1.310000e-06	6.461220e-06	8.999733e-09	4.614487e+01	5.907644e+02
1.320000e-06	6.549297e-06	9.072088e-09	4.677390e+01	5.954709e+02
1.330000e-06	6.635043e-06	9.139769e-09	4.738628e+01	5.999685e+02
1.340000e-06	6.718534e-06	9.203484e-09	4.798256e+01	6.042628e+02
1.350000e-06	6.799630e-06	9.265551e-09	4.856173e+01	6.083618e+02
1.360000e-06	6.878242e-06	9.326702e-09	4.912317e+01	6.122755e+02
1.370000e-06	6.954283e-06	9.385202e-09	4.966623e+01	6.160142e+02
1.380000e-06	7.027615e-06	9.440674e-09	5.018996e+01	6.195869e+02
1.390000e-06	7.098396e-06	9.493144e-09	5.069546e+01	6.230000e+02
1.400000e-06	7.166778e-06	9.543728e-09	5.118384e+01	6.262563e+02
1.410000e-06	7.232561e-06	9.592061e-09	5.165364e+01	6.293546e+02
1.420000e-06	7.295670e-06	9.636000e-09	5.210436e+01	6.322903e+02
1.430000e-06	7.356368e-06	9.675621e-09	5.253785e+01	6.350561e+02
1.440000e-06	7.414565e-06	9.712835e-09	5.295349e+01	6.376441e+02
1.450000e-06	7.470064e-06	9.749497e-09	5.334985e+01	6.400472e+02
1.460000e-06	7.522820e-06	9.783437e-09	5.372662e+01	6.422611e+02
1.470000e-06	7.572505e-06	9.813667e-09	5.408146e+01	6.442852e+02
1.480000e-06	7.619189e-06	9.839438e-09	5.441487e+01	6.461239e+02
1.490000e-06	7.663236e-06	9.861178e-09	5.472945e+01	6.477866e+02
1.500000e-06	7.704517e-06	9.885267e-09	5.502427e+01	6.492865e+02
1.510000e-06	7.742985e-06	9.912222e-09	5.529900e+01	6.506397e+02
1.520000e-06	7.778879e-06	9.938298e-09	5.555535e+01	6.518631e+02
1.530000e-06	7.812052e-06	9.958959e-09	5.579226e+01	6.529729e+02
1.540000e-06	7.842371e-06	9.971713e-09	5.600880e+01	6.539818e+02
1.550000e-06	7.869903e-06	9.982019e-09	5.620543e+01	6.548987e+02
1.560000e-06	7.894501e-06	9.993605e-09	5.638110e+01	6.557268e+02
1.570000e-06	7.916254e-06	1.000651e-08	5.653645e+01	6.564641e+02
1.580000e-06	7.935345e-06	1.001854e-08	5.667280e+01	6.571043e+02
1.590000e-06	7.951497e-06	1.002750e-08	5.678816e+01	6.576373e+02
1.600000e-06	7.964561e-06	1.003278e-08	5.688146e+01	6.580518e+02
1.610000e-06	7.974526e-06	1.003608e-08	5.695262e+01	6.583368e+02
1.620000e-06	7.981509e-06	1.004066e-08	5.700250e+01	6.584835e+02
1.630000e-06	7.985688e-06	1.004382e-08	5.703235e+01	6.584869e+02
1.640000e-06	7.986970e-06	1.004250e-08	5.704150e+01	6.583466e+02
1.650000e-06	7.985476e-06	1.003920e-08	5.703083e+01	6.580673e+02
1.660000e-06	7.981370e-06	1.003289e-08	5.700150e+01	6.576579e+02
1.670000e-06	7.974627e-06	1.002993e-08	5.695335e+01	6.571307e+02
1.680000e-06	7.965232e-06	1.002343e-08	5.688625e+01	6.565002e+02
1.690000e-06	7.953069e-06	1.001255e-08	5.679938e+01	6.557808e+02
1.700000e-06	7.938102e-06	1.000189e-08	5.669249e+01	6.549858e+02
1.710000e-06	7.920605e-06	9.986937e-09	5.656753e+01	6.541252e+02
1.720000e-06	7.900870e-06	9.957084e-09	5.642659e+01	6.532058e+02
1.730000e-06	7.878562e-06	9.892920e-09	5.626727e+01	6.522297e+02
1.740000e-06	7.853007e-06	9.860667e-09	5.608476e+01	6.511951e+02
1.750000e-06	7.823884e-06	9.885367e-09	5.587677e+01	6.500965e+02
1.760000e-06	7.791487e-06	9.888776e-09	5.564540e+01	6.489256e+02
1.770000e-06	7.756554e-06	9.883950e-09	5.539591e+01	6.476727e+02
1.780000e-06	7.719277e-06	9.890095e-09	5.512968e+01	6.463275e+02
1.790000e-06	7.679763e-06	9.866327e-09	5.484748e+01	6.448798e+02
1.800000e-06	7.638230e-06	9.797132e-09	5.455086e+01	6.433209e+02
1.810000e-06	7.594182e-06	9.798836e-09	5.423628e+01	6.416432e+02
1.820000e-06	7.547388e-06	9.796121e-09	5.390208e+01	6.398410e+02
1.830000e-06	7.497919e-06	9.768787e-09	5.354879e+01	6.379099e+02
1.840000e-06	7.445513e-06	9.770938e-09	5.317451e+01	6.358468e+02
1.850000e-06	7.390264e-06	9.685823e-09	5.277993e+01	6.336495e+02
1.860000e-06	7.332317e-06	9.643537e-09	5.236608e+01	6.313164e+02
1.870000e-06	7.271704e-06	9.583954e-09	5.193320e+01	6.288467e+02
1.880000e-06	7.208410e-06	9.541909e-09	5.148116e+01	6.262398e+02
1.890000e-06	7.142332e-06	9.548291e-09	5.100924e+01	6.234963e+02
1.900000e-06	7.073442e-06	9.493281e-09	5.051724e+01	6.206170e+02
1.910000e-06	7.001724e-06	9.466349e-09	5.000505e+01	6.176043e+02
1.920000e-06	6.927323e-06	9.389483e-09	4.947369e+01	6.144611e+02
1.930000e-06	6.850174e-06	9.328235e-09	4.892271e+01	6.111913e+02
1.940000e-06	6.770340e-06	9.275379e-09	4.835255e+01	6.077994e+02
1.950000e-06	6.688101e-06	9.217011e-09	4.776521e+01	6.042897e+02
1.960000e-06	6.603320e-06	9.191577e-09	4.715972e+01	6.006655e+02
1.970000e-06	6.516035e-06	9.123149e-09	4.653635e+01	5.969290e+02
1.980000e-06	6.426451e-06	9.079302e-09	4.589655e+01	5.930802e+02
1.990000e-06	6.334692e-06	9.010501e-09	4.524123e+01	5.891166e+02
2.000000e-06	6.240672e-06	8.929386e-09	4.456976e+01	5.850335e+02
2.010000e-06	6.144304e-06	8.856981e-09	4.388151e+01	5.808239e+02
2.020000e-06	6.045763e-06	8.790708e-09	4.317775e+01	5.764794e+02
2.030000e-06	5.945007e-06	8.734674e-09	4.245817e+01	5.719911e+02
2.040000e-06	5.842138e-06	8.669865e-09	4.172350e+01	5.673505e+02
2.050000e-06	5.737287e-06	8.606144e-09	4.097467e+01	5.625507e+02
2.060000e-06	5.630576e-06	8.514244e-09	4.021256e+01	5.575871e+02
2.070000e-06	5.521932e-06	8.420871e-09	3.943665e+01	5.524579e+02
2.080000e-06	5.411197e-06	8.332803e-09	3.864579e+01	5.471639e+02
2.090000e-06	5.298447e-06	8.260783e-09	3.784056e+01	5.417081e+02
2.100000e-06	5.183724e-06	8.187780e-09	3.702122e+01	5.360945e+02
2.110000e-06	5.066945e-06	8.106845e-09	3.618721e+01	5.303273e+02
2.120000e-06	4.948166e-06	8.013963e-09	3.533891e+01	5.244088e+02
2.130000e-06	4.827587e-06	7.909714e-09	3.447776e+01	5.183389e+02
2.140000e-06	4.705278e-06	7.810974e-09	3.360425e+01	5.121136e+02
2.150000e-06	4.581228e-06	7.715722e-09	3.271831e+01	5.057251e+02
2.160000e-06	4.455443e-06	7.620989e-09	3.181997e+01	4.991617e+02
2.170000e-06	4.328069e-06	7.518428e-09	3.091029e+01	4.924090e+02
2.180000e-06	4.199108e-06	7.413584e-09	2.998927e+01	4.854510e+02
2.190000e-06	4.068655e-06	7.302549e-09	2.905760e+01	4.782721e+02
2.200000e-06	3.936747e-06	7.185129e-09	2.811554e+01	4.708585e+02
2.210000e-06	3.803278e-06	7.065792e-09	2.716233e+01	4.632000e+02
2.220000e-06	3.668346e-06	6.949211e-09	2.619867e+01	4.552908e+02
2.230000e-06	3.532136e-06	6.828914e-09	2.522588e+01	4.471297e+02
2.240000e-06	3.394614e-06	6.703906e-09	2.424372e+01	4.387195e+02
2.250000e-06	3.255750e-06	6.574424e-09	2.325198e+01	4.300656e+02
2.260000e-06	3.115547e-06	6.436054e-09	2.225067e+01	4.211738e+02
2.270000e-06	2.974059e-06	6.288927e-09	2.124020e+01	4.120484e+02
2.280000e-06	2.831462e-06	6.141298e-09	2.022179e+01	4.026897e+02
2.290000e-06	2.687853e-06	5.999923e-09	1.919616e+01	3.930921e+02
2.300000e-06	2.543379e-06	5.856606e-09	1.816435e+01	3.832433e+02
2.310000e-06	2.398020e-06	5.708929e-09	1.712622e+01	3.731242e+02
2.320000e-06	2.251773e-06	5.553369e-09	1.608176e+01	3.627098e+02
2.330000e-06	2.104791e-06	5.386347e-09	1.503204e+01	3.519717e+02
2.340000e-06	1.957094e-06	5.210124e-09	1.397721e+01	3.408804e+02
2.350000e-06	1.808695e-06	5.031235e-09	1.291737e+01	3.294083e+02
2.360000e-06	1.659655e-06	4.853045e-09	1.185296e+01	3.175329e+02
2.370000e-06	1.510054e-06	4.667922e-09	1.078454e+01	3.052382e+02
2.380000e-06	1.359961e-06	4.475841e-09	9.712598e+00	2.925159e+02
2.390000e-06	1.209415e-06	4.277259e-09	8.637423e+00	2.793647e+02
2.400000e-06	1.058503e-06	4.068951e-09	7.559636e+00	2.657874e+02
2.410000e-06	9.072787e-07	3.852269e-09	6.479621e+00	2.517878e+02
2.420000e-06	7.557555e-07	3.632124e-09	5.397469e+00	2.373658e+02
2.430000e-06	6.039799e-07	3.409215e-09	4.313515e+00	2.225124e+02
2.440000e-06	4.520448e-07	3.177784e-09	3.228423e+00	2.072051e+02
2.450000e-06	2.999983e-07	2.936041e-09	2.142534e+00	1.914047e+02
2.460000e-06	1.478175e-07	2.682693e-09	1.055686e+00	1.750541e+02
2.470000e-06	-4.484704e-09	2.416581e-09	-3.202895e-02	1.580796e+02
2.480000e-06	-1.568183e-07	2.139292e-09	-1.119968e+00	1.403951e+02
2.490000e-06	-3.091155e-07	1.852986e-09	-2.207647e+00	1.219091e+02
2.500000e-06	-4.613070e-07	1.558360e-09	-3.294572e+00	1.025337e+02
2.510000e-06	-6.133170e-07	1.251963e-09	-4.380199e+00	8.219528e+01
2.520000e-06	-7.651655e-07	9.326432e-10	-5.464674e+00	6.084562e+01
2.530000e-06	-9.168620e-07	5.967665e-10	-6.548063e+00	3.847206e+01
2.540000e-06	-1.068310e-06	2.429318e-10	-7.629676e+00	1.510568e+01
2.550000e-06	-1.219375e-06	-1.260879e-10	-8.708558e+00	-9.173649e+00
2.560000e-06	-1.369960e-06	-5.089798e-10	-9.784009e+00	-3.423602e+01
2.570000e-06	-1.520022e-06	-9.022244e-10	-1.085572e+01	-5.990465e+01
2.580000e-06	-1.669533e-06	-1.303221e-09	-1.192350e+01	-8.596316e+01
2.590000e-06	-1.818395e-06	-1.706782e-09	-1.298665e+01	-1.121667e+02
2.600000e-06	-1.966534e-06	-2.109804e-09	-1.404463e+01	-1.382554e+02
2.610000e-06	-2.113901e-06	-2.506758e-09	-1.509710e+01	-1.639703e+02
2.620000e-06	-2.260446e-06	-2.892195e-09	-1.614370e+01	-1.890678e+02
2.630000e-06	-2.406182e-06	-3.262309e-09	-1.718452e+01	-2.133345e+02
2.640000e-06	-2.551031e-06	-3.613972e-09	-1.821900e+01	-2.365978e+02
2.650000e-06	-2.694894e-06	-3.947931e-09	-1.924644e+01	-2.587337e+02
2.660000e-06	-2.837712e-06	-4.264620e-09	-2.026642e+01	-2.796703e+02
2.670000e-06	-2.979403e-06	-4.564613e-09	-2.127836e+01	-2.993866e+02
2.680000e-06	-3.119891e-06	-4.847689e-09	-2.228170e+01	-3.179072e+02
2.690000e-06	-3.259113e-06	-5.112713e-09	-2.327600e+01	-3.352941e+02
2.700000e-06	-3.397020e-06	-5.361446e-09	-2.426091e+01	-3.516361e+02
2.710000e-06	-3.533652e-06	-5.598241e-09	-2.523670e+01	-3.670369e+02
2.720000e-06	-3.669056e-06	-5.827307e-09	-2.620374e+01	-3.816040e+02
2.730000e-06	-3.803200e-06	-6.046703e-09	-2.716177e+01	-3.954388e+02
2.740000e-06	-3.935926e-06	-6.253867e-09	-2.810968e+01	-4.086288e+02
2.750000e-06	-4.067176e-06	-6.449557e-09	-2.904704e+01	-4.212432e+02
2.760000e-06	-4.197072e-06	-6.635045e-09	-2.997473e+01	-4.333309e+02
2.770000e-06	-4.325576e-06	-6.810640e-09	-3.089249e+01	-4.449220e+02
2.780000e-06	-4.452555e-06	-6.974925e-09	-3.179934e+01	-4.560306e+02
2.790000e-06	-4.577935e-06	-7.131532e-09	-3.269478e+01	-4.666604e+02
2.800000e-06	-4.701692e-06	-7.283730e-09	-3.357863e+01	-4.768095e+02
2.810000e-06	-4.823849e-06	-7.430370e-09	-3.445106e+01	-4.864764e+02
2.820000e-06	-4.944318e-06	-7.570812e-09	-3.531143e+01	-4.956638e+02
2.830000e-06	-5.062882e-06	-7.706164e-09	-3.615819e+01	-5.043820e+02
2.840000e-06	-5.179338e-06	-7.836303e-09	-3.698990e+01	-5.126499e+02
2.850000e-06	-5.293651e-06	-7.960340e-09	-3.780630e+01	-5.204944e+02
2.860000e-06	-5.405859e-06	-8.074917e-09	-3.860767e+01	-5.279489e+02
2.870000e-06	-5.515999e-06	-8.181952e-09	-3.939427e+01	-5.350503e+02
2.880000e-06	-5.624221e-06	-8.284090e-09	-4.016717e+01	-5.418355e+02
2.890000e-06	-5.730548e-06	-8.380926e-09	-4.092654e+01	-5.483386e+02
2.900000e-06	-5.834815e-06	-8.475146e-09	-4.167119e+01	-5.545882e+02
2.910000e-06	-5.936863e-06	-8.565348e-09	-4.240000e+01	-5.606061e+02
2.920000e-06	-6.036688e-06	-8.652497e-09	-4.311293e+01	-5.664066e+02
2.930000e-06	-6.134429e-06	-8.736839e-09	-4.381099e+01	-5.719970e+02
2.940000e-06	-6.230002e-06	-8.818961e-09	-4.449355e+01	-5.773799e+02
