# Temperatura_=_45.77
# Concentracion g/m^3_=_10000.0
# C_Vs_to_Am_M_A/Vsm_=_65563218390.804596
# pendiente_HvsI_1/m_=_3716.3
# ordenada_HvsI_A/m_=_1297.0
# frecuencia_Hz_=_302616.2226638858

Tiempo_(s)	Campo_(V.s)	Magnetizacion_(V.s)	Campo_(kA/m)	Magnetizacion_(A/m)
0.000000e+00	-7.849289e-06	-8.717758e-09	-5.683646e+01	-5.708349e+02
1.000000e-08	-7.847049e-06	-8.717852e-09	-5.682024e+01	-5.705851e+02
2.000000e-08	-7.842104e-06	-8.713741e-09	-5.678443e+01	-5.702255e+02
3.000000e-08	-7.834684e-06	-8.705508e-09	-5.673071e+01	-5.697714e+02
4.000000e-08	-7.824539e-06	-8.695073e-09	-5.665725e+01	-5.692410e+02
5.000000e-08	-7.811471e-06	-8.683607e-09	-5.656262e+01	-5.686534e+02
6.000000e-08	-7.795508e-06	-8.673360e-09	-5.644703e+01	-5.680262e+02
7.000000e-08	-7.776985e-06	-8.665079e-09	-5.631291e+01	-5.673734e+02
8.000000e-08	-7.756226e-06	-8.661685e-09	-5.616260e+01	-5.667034e+02
9.000000e-08	-7.732859e-06	-8.686055e-09	-5.599340e+01	-5.660188e+02
1.000000e-07	-7.706350e-06	-8.693255e-09	-5.580144e+01	-5.653152e+02
1.100000e-07	-7.676744e-06	-8.646618e-09	-5.558707e+01	-5.645828e+02
1.200000e-07	-7.644394e-06	-8.603260e-09	-5.535282e+01	-5.638071e+02
1.300000e-07	-7.609361e-06	-8.575333e-09	-5.509915e+01	-5.629711e+02
1.400000e-07	-7.571850e-06	-8.531101e-09	-5.482754e+01	-5.620567e+02
1.500000e-07	-7.532272e-06	-8.506914e-09	-5.454095e+01	-5.610470e+02
1.600000e-07	-7.490570e-06	-8.579102e-09	-5.423899e+01	-5.599279e+02
1.700000e-07	-7.446247e-06	-8.560106e-09	-5.391804e+01	-5.586887e+02
1.800000e-07	-7.399235e-06	-8.491378e-09	-5.357764e+01	-5.573230e+02
1.900000e-07	-7.349476e-06	-8.489691e-09	-5.321733e+01	-5.558284e+02
2.000000e-07	-7.296691e-06	-8.397143e-09	-5.283512e+01	-5.542060e+02
2.100000e-07	-7.241100e-06	-8.343010e-09	-5.243258e+01	-5.524596e+02
2.200000e-07	-7.182823e-06	-8.347928e-09	-5.201060e+01	-5.505944e+02
2.300000e-07	-7.121919e-06	-8.347793e-09	-5.156960e+01	-5.486162e+02
2.400000e-07	-7.058420e-06	-8.342543e-09	-5.110980e+01	-5.465305e+02
2.500000e-07	-6.992129e-06	-8.289894e-09	-5.062979e+01	-5.443417e+02
2.600000e-07	-6.923199e-06	-8.259465e-09	-5.013067e+01	-5.420531e+02
2.700000e-07	-6.851715e-06	-8.227621e-09	-4.961306e+01	-5.396670e+02
2.800000e-07	-6.777539e-06	-8.182095e-09	-4.907595e+01	-5.371843e+02
2.900000e-07	-6.700652e-06	-8.150218e-09	-4.851922e+01	-5.346054e+02
3.000000e-07	-6.620933e-06	-8.129162e-09	-4.794198e+01	-5.319304e+02
3.100000e-07	-6.538659e-06	-8.089320e-09	-4.734623e+01	-5.291590e+02
3.200000e-07	-6.454237e-06	-8.011828e-09	-4.673493e+01	-5.262909e+02
3.300000e-07	-6.367594e-06	-7.968257e-09	-4.610755e+01	-5.233253e+02
3.400000e-07	-6.278651e-06	-7.922404e-09	-4.546352e+01	-5.202610e+02
3.500000e-07	-6.187428e-06	-7.855809e-09	-4.480298e+01	-5.170961e+02
3.600000e-07	-6.094010e-06	-7.815032e-09	-4.412654e+01	-5.138275e+02
3.700000e-07	-5.998437e-06	-7.788668e-09	-4.343450e+01	-5.104509e+02
3.800000e-07	-5.900607e-06	-7.739536e-09	-4.272611e+01	-5.069611e+02
3.900000e-07	-5.800552e-06	-7.664759e-09	-4.200162e+01	-5.033519e+02
4.000000e-07	-5.698467e-06	-7.607922e-09	-4.126242e+01	-4.996167e+02
4.100000e-07	-5.594437e-06	-7.551734e-09	-4.050915e+01	-4.957493e+02
4.200000e-07	-5.488356e-06	-7.483542e-09	-3.974102e+01	-4.917443e+02
4.300000e-07	-5.380294e-06	-7.424541e-09	-3.895854e+01	-4.875976e+02
4.400000e-07	-5.270473e-06	-7.382558e-09	-3.816333e+01	-4.833068e+02
4.500000e-07	-5.158808e-06	-7.318850e-09	-3.735477e+01	-4.788708e+02
4.600000e-07	-5.045098e-06	-7.224304e-09	-3.653140e+01	-4.742901e+02
4.700000e-07	-4.929323e-06	-7.141175e-09	-3.569308e+01	-4.695654e+02
4.800000e-07	-4.811656e-06	-7.074686e-09	-3.484106e+01	-4.646973e+02
4.900000e-07	-4.692234e-06	-7.003883e-09	-3.397632e+01	-4.596851e+02
5.000000e-07	-4.571110e-06	-6.927986e-09	-3.309927e+01	-4.545261e+02
5.100000e-07	-4.448220e-06	-6.852952e-09	-3.220942e+01	-4.492152e+02
5.200000e-07	-4.323715e-06	-6.764277e-09	-3.130789e+01	-4.437443e+02
5.300000e-07	-4.197722e-06	-6.669270e-09	-3.039557e+01	-4.381032e+02
5.400000e-07	-4.070176e-06	-6.579483e-09	-2.947202e+01	-4.322799e+02
5.500000e-07	-3.941253e-06	-6.491367e-09	-2.853849e+01	-4.262618e+02
5.600000e-07	-3.810814e-06	-6.396230e-09	-2.759399e+01	-4.200371e+02
5.700000e-07	-3.678751e-06	-6.298346e-09	-2.663772e+01	-4.135958e+02
5.800000e-07	-3.545343e-06	-6.199471e-09	-2.567172e+01	-4.069305e+02
5.900000e-07	-3.410687e-06	-6.088821e-09	-2.469668e+01	-4.000375e+02
6.000000e-07	-3.274839e-06	-5.973226e-09	-2.371301e+01	-3.929157e+02
6.100000e-07	-3.137788e-06	-5.860407e-09	-2.272062e+01	-3.855666e+02
6.200000e-07	-2.999407e-06	-5.747316e-09	-2.171861e+01	-3.779927e+02
6.300000e-07	-2.859652e-06	-5.631336e-09	-2.070665e+01	-3.701957e+02
6.400000e-07	-2.718620e-06	-5.516590e-09	-1.968545e+01	-3.621748e+02
6.500000e-07	-2.576535e-06	-5.397921e-09	-1.865661e+01	-3.539252e+02
6.600000e-07	-2.433462e-06	-5.266018e-09	-1.762063e+01	-3.454366e+02
6.700000e-07	-2.289419e-06	-5.123350e-09	-1.657761e+01	-3.366932e+02
6.800000e-07	-2.144565e-06	-4.979585e-09	-1.552873e+01	-3.276741e+02
6.900000e-07	-1.998902e-06	-4.833933e-09	-1.447399e+01	-3.183545e+02
7.000000e-07	-1.852551e-06	-4.683875e-09	-1.341426e+01	-3.087076e+02
7.100000e-07	-1.705674e-06	-4.530984e-09	-1.235074e+01	-2.987077e+02
7.200000e-07	-1.558295e-06	-4.370997e-09	-1.128356e+01	-2.883320e+02
7.300000e-07	-1.410519e-06	-4.204903e-09	-1.021352e+01	-2.775627e+02
7.400000e-07	-1.262272e-06	-4.036956e-09	-9.140074e+00	-2.663885e+02
7.500000e-07	-1.113572e-06	-3.868041e-09	-8.063338e+00	-2.548043e+02
7.600000e-07	-9.646137e-07	-3.692113e-09	-6.984738e+00	-2.428097e+02
7.700000e-07	-8.153946e-07	-3.504645e-09	-5.904247e+00	-2.304067e+02
7.800000e-07	-6.659010e-07	-3.307273e-09	-4.821768e+00	-2.175956e+02
7.900000e-07	-5.162237e-07	-3.102689e-09	-3.737960e+00	-2.043713e+02
8.000000e-07	-3.663768e-07	-2.891641e-09	-2.652923e+00	-1.907185e+02
8.100000e-07	-2.163582e-07	-2.673161e-09	-1.566643e+00	-1.766092e+02
8.200000e-07	-6.620846e-08	-2.449455e-09	-4.794134e-01	-1.620005e+02
8.300000e-07	8.398675e-08	-2.217836e-09	6.081455e-01	-1.468350e+02
8.400000e-07	2.341603e-07	-1.977087e-09	1.695547e+00	-1.310437e+02
8.500000e-07	3.842870e-07	-1.727425e-09	2.782610e+00	-1.145508e+02
8.600000e-07	5.342831e-07	-1.467154e-09	3.868727e+00	-9.728183e+01
8.700000e-07	6.840960e-07	-1.194272e-09	4.953518e+00	-7.917187e+01
8.800000e-07	8.337366e-07	-9.060839e-10	6.037061e+00	-6.017568e+01
8.900000e-07	9.831626e-07	-6.044638e-10	7.119050e+00	-4.027686e+01
9.000000e-07	1.132347e-06	-2.908308e-10	8.199293e+00	-1.949576e+01
9.100000e-07	1.281242e-06	3.561176e-11	9.277436e+00	2.105191e+00
9.200000e-07	1.429743e-06	3.766641e-10	1.035272e+01	2.441939e+01
9.300000e-07	1.577705e-06	7.296404e-10	1.142412e+01	4.729781e+01
9.400000e-07	1.725084e-06	1.088482e-09	1.249128e+01	7.055455e+01
9.500000e-07	1.871903e-06	1.447085e-09	1.355439e+01	9.397601e+01
9.600000e-07	2.018098e-06	1.802772e-09	1.461299e+01	1.173327e+02
9.700000e-07	2.163473e-06	2.154798e-09	1.566564e+01	1.403929e+02
9.800000e-07	2.307942e-06	2.500203e-09	1.671174e+01	1.629364e+02
9.900000e-07	2.451579e-06	2.833514e-09	1.775181e+01	1.847679e+02
1.000000e-06	2.594171e-06	3.151973e-09	1.878431e+01	2.057270e+02
1.010000e-06	2.735715e-06	3.452183e-09	1.980923e+01	2.256967e+02
1.020000e-06	2.876262e-06	3.735175e-09	2.082693e+01	2.446062e+02
1.030000e-06	3.015564e-06	4.002264e-09	2.183560e+01	2.624309e+02
1.040000e-06	3.153605e-06	4.254386e-09	2.283516e+01	2.791880e+02
1.050000e-06	3.290383e-06	4.492614e-09	2.382556e+01	2.949289e+02
1.060000e-06	3.425877e-06	4.717372e-09	2.480667e+01	3.097294e+02
1.070000e-06	3.560108e-06	4.930863e-09	2.577863e+01	3.236794e+02
1.080000e-06	3.693125e-06	5.136497e-09	2.674180e+01	3.368714e+02
1.090000e-06	3.824832e-06	5.331006e-09	2.769549e+01	3.493923e+02
1.100000e-06	3.955126e-06	5.512871e-09	2.863895e+01	3.613155e+02
1.110000e-06	4.083986e-06	5.686445e-09	2.957202e+01	3.726972e+02
1.120000e-06	4.211399e-06	5.851421e-09	3.049461e+01	3.835749e+02
1.130000e-06	4.337422e-06	6.007816e-09	3.140714e+01	3.939690e+02
1.140000e-06	4.462008e-06	6.157665e-09	3.230926e+01	4.038865e+02
1.150000e-06	4.585033e-06	6.299225e-09	3.320009e+01	4.133261e+02
1.160000e-06	4.706382e-06	6.432284e-09	3.407877e+01	4.222843e+02
1.170000e-06	4.826068e-06	6.559043e-09	3.494541e+01	4.307606e+02
1.180000e-06	4.944080e-06	6.681027e-09	3.579993e+01	4.387617e+02
1.190000e-06	5.060197e-06	6.798235e-09	3.664073e+01	4.463042e+02
1.200000e-06	5.174289e-06	6.906614e-09	3.746687e+01	4.534156e+02
1.210000e-06	5.286433e-06	7.008781e-09	3.827890e+01	4.601322e+02
1.220000e-06	5.396668e-06	7.106411e-09	3.907711e+01	4.664974e+02
1.230000e-06	5.505031e-06	7.201018e-09	3.986176e+01	4.725569e+02
1.240000e-06	5.611410e-06	7.290115e-09	4.063205e+01	4.783548e+02
1.250000e-06	5.715672e-06	7.373990e-09	4.138700e+01	4.839295e+02
1.260000e-06	5.817851e-06	7.456529e-09	4.212688e+01	4.893108e+02
1.270000e-06	5.917974e-06	7.535805e-09	4.285187e+01	4.945177e+02
1.280000e-06	6.015880e-06	7.610883e-09	4.356081e+01	4.995584e+02
1.290000e-06	6.111457e-06	7.682961e-09	4.425287e+01	5.044311e+02
1.300000e-06	6.204828e-06	7.752331e-09	4.492897e+01	5.091269e+02
1.310000e-06	6.295985e-06	7.818047e-09	4.558903e+01	5.136324e+02
1.320000e-06	6.384818e-06	7.879759e-09	4.623227e+01	5.179337e+02
1.330000e-06	6.471389e-06	7.940252e-09	4.685913e+01	5.220194e+02
1.340000e-06	6.555780e-06	7.999149e-09	4.747020e+01	5.258830e+02
1.350000e-06	6.637883e-06	8.055416e-09	4.806470e+01	5.295244e+02
1.360000e-06	6.717512e-06	8.109011e-09	4.864130e+01	5.329502e+02
1.370000e-06	6.794629e-06	8.159240e-09	4.919970e+01	5.361730e+02
1.380000e-06	6.869186e-06	8.206351e-09	4.973957e+01	5.392091e+02
1.390000e-06	6.941192e-06	8.249663e-09	5.026096e+01	5.420762e+02
1.400000e-06	7.010756e-06	8.290420e-09	5.076467e+01	5.447911e+02
1.410000e-06	7.077830e-06	8.329623e-09	5.125035e+01	5.473675e+02
1.420000e-06	7.142321e-06	8.366684e-09	5.171733e+01	5.498140e+02
1.430000e-06	7.204379e-06	8.401156e-09	5.216668e+01	5.521339e+02
1.440000e-06	7.264038e-06	8.432839e-09	5.259867e+01	5.543253e+02
1.450000e-06	7.321077e-06	8.462464e-09	5.301169e+01	5.563823e+02
1.460000e-06	7.375384e-06	8.491795e-09	5.340493e+01	5.582972e+02
1.470000e-06	7.426782e-06	8.518612e-09	5.377710e+01	5.600625e+02
1.480000e-06	7.475178e-06	8.542608e-09	5.412754e+01	5.616730e+02
1.490000e-06	7.520868e-06	8.562809e-09	5.445837e+01	5.631278e+02
1.500000e-06	7.563953e-06	8.579261e-09	5.477035e+01	5.644311e+02
1.510000e-06	7.604272e-06	8.597376e-09	5.506230e+01	5.655924e+02
1.520000e-06	7.641896e-06	8.617616e-09	5.533474e+01	5.666258e+02
1.530000e-06	7.676893e-06	8.635903e-09	5.558815e+01	5.675480e+02
1.540000e-06	7.709117e-06	8.649332e-09	5.582148e+01	5.683768e+02
1.550000e-06	7.738667e-06	8.660594e-09	5.603545e+01	5.691282e+02
1.560000e-06	7.765536e-06	8.672347e-09	5.623001e+01	5.698148e+02
1.570000e-06	7.789428e-06	8.683210e-09	5.640301e+01	5.704437e+02
1.580000e-06	7.810523e-06	8.692244e-09	5.655576e+01	5.710159e+02
1.590000e-06	7.828942e-06	8.699657e-09	5.668913e+01	5.715267e+02
1.600000e-06	7.844428e-06	8.706341e-09	5.680126e+01	5.719660e+02
1.610000e-06	7.856917e-06	8.711714e-09	5.689170e+01	5.723208e+02
1.620000e-06	7.866354e-06	8.714010e-09	5.696003e+01	5.725770e+02
1.630000e-06	7.872853e-06	8.714905e-09	5.700709e+01	5.727218e+02
1.640000e-06	7.876620e-06	8.715204e-09	5.703436e+01	5.727462e+02
1.650000e-06	7.877606e-06	8.716604e-09	5.704150e+01	5.726467e+02
1.660000e-06	7.875842e-06	8.716112e-09	5.702873e+01	5.724256e+02
1.670000e-06	7.871472e-06	8.714199e-09	5.699709e+01	5.720918e+02
1.680000e-06	7.864439e-06	8.711782e-09	5.694616e+01	5.716592e+02
1.690000e-06	7.854779e-06	8.705027e-09	5.687621e+01	5.711456e+02
1.700000e-06	7.842376e-06	8.697602e-09	5.678641e+01	5.705700e+02
1.710000e-06	7.827214e-06	8.692811e-09	5.667661e+01	5.699508e+02
1.720000e-06	7.809668e-06	8.688557e-09	5.654957e+01	5.693028e+02
1.730000e-06	7.789907e-06	8.660995e-09	5.640648e+01	5.686362e+02
1.740000e-06	7.767510e-06	8.591816e-09	5.624430e+01	5.679549e+02
1.750000e-06	7.741801e-06	8.577203e-09	5.605815e+01	5.672562e+02
1.760000e-06	7.712544e-06	8.603882e-09	5.584629e+01	5.665318e+02
1.770000e-06	7.680164e-06	8.611094e-09	5.561183e+01	5.657680e+02
1.780000e-06	7.645402e-06	8.631392e-09	5.536012e+01	5.649482e+02
1.790000e-06	7.608363e-06	8.645935e-09	5.509193e+01	5.640546e+02
1.800000e-06	7.569128e-06	8.565407e-09	5.480782e+01	5.630697e+02
1.810000e-06	7.527815e-06	8.541507e-09	5.450867e+01	5.619786e+02
1.820000e-06	7.484002e-06	8.557281e-09	5.419143e+01	5.607697e+02
1.830000e-06	7.437598e-06	8.514656e-09	5.385542e+01	5.594355e+02
1.840000e-06	7.388521e-06	8.587185e-09	5.350006e+01	5.579727e+02
1.850000e-06	7.336563e-06	8.570296e-09	5.312382e+01	5.563815e+02
1.860000e-06	7.281744e-06	8.511420e-09	5.272688e+01	5.546651e+02
1.870000e-06	7.224151e-06	8.474424e-09	5.230986e+01	5.528286e+02
1.880000e-06	7.164048e-06	8.360742e-09	5.187465e+01	5.508776e+02
1.890000e-06	7.101255e-06	8.363559e-09	5.141997e+01	5.488178e+02
1.900000e-06	7.035664e-06	8.341257e-09	5.094503e+01	5.466539e+02
1.910000e-06	6.967452e-06	8.313340e-09	5.045111e+01	5.443896e+02
1.920000e-06	6.896451e-06	8.322866e-09	4.993699e+01	5.420272e+02
1.930000e-06	6.822732e-06	8.241797e-09	4.940319e+01	5.395681e+02
1.940000e-06	6.746328e-06	8.179708e-09	4.884995e+01	5.370128e+02
1.950000e-06	6.667224e-06	8.114055e-09	4.827716e+01	5.343614e+02
1.960000e-06	6.585633e-06	8.111795e-09	4.768636e+01	5.316136e+02
1.970000e-06	6.501728e-06	8.089222e-09	4.707881e+01	5.287692e+02
1.980000e-06	6.415416e-06	8.032744e-09	4.645383e+01	5.258276e+02
1.990000e-06	6.326651e-06	8.022482e-09	4.581108e+01	5.227876e+02
2.000000e-06	6.235716e-06	7.943364e-09	4.515263e+01	5.196476e+02
2.010000e-06	6.142658e-06	7.865124e-09	4.447880e+01	5.164048e+02
2.020000e-06	6.047276e-06	7.805786e-09	4.378814e+01	5.130552e+02
2.030000e-06	5.949621e-06	7.779680e-09	4.308102e+01	5.095938e+02
2.040000e-06	5.849954e-06	7.736127e-09	4.235934e+01	5.060145e+02
2.050000e-06	5.748254e-06	7.676326e-09	4.162293e+01	5.023109e+02
2.060000e-06	5.644452e-06	7.633769e-09	4.087130e+01	4.984766e+02
2.070000e-06	5.538752e-06	7.559466e-09	4.010594e+01	4.945060e+02
2.080000e-06	5.431228e-06	7.470050e-09	3.932736e+01	4.903945e+02
2.090000e-06	5.321741e-06	7.390321e-09	3.853456e+01	4.861394e+02
2.100000e-06	5.210267e-06	7.349574e-09	3.772739e+01	4.817392e+02
2.110000e-06	5.096900e-06	7.290719e-09	3.690650e+01	4.771942e+02
2.120000e-06	4.981657e-06	7.222892e-09	3.607202e+01	4.725049e+02
2.130000e-06	4.864410e-06	7.154658e-09	3.522304e+01	4.676721e+02
2.140000e-06	4.745106e-06	7.074253e-09	3.435917e+01	4.626956e+02
2.150000e-06	4.624067e-06	6.977220e-09	3.348273e+01	4.575733e+02
2.160000e-06	4.501410e-06	6.888390e-09	3.259457e+01	4.523005e+02
2.170000e-06	4.377209e-06	6.821921e-09	3.169524e+01	4.468700e+02
2.180000e-06	4.251411e-06	6.748179e-09	3.078434e+01	4.412720e+02
2.190000e-06	4.123850e-06	6.661298e-09	2.986067e+01	4.354949e+02
2.200000e-06	3.994841e-06	6.562582e-09	2.892652e+01	4.295262e+02
2.210000e-06	3.864423e-06	6.461050e-09	2.798217e+01	4.233537e+02
2.220000e-06	3.732592e-06	6.355829e-09	2.702758e+01	4.169668e+02
2.230000e-06	3.599456e-06	6.263170e-09	2.606355e+01	4.103576e+02
2.240000e-06	3.464908e-06	6.172583e-09	2.508929e+01	4.035212e+02
2.250000e-06	3.328951e-06	6.072838e-09	2.410483e+01	3.964560e+02
2.260000e-06	3.191811e-06	5.957657e-09	2.311181e+01	3.891630e+02
2.270000e-06	3.053551e-06	5.837389e-09	2.211067e+01	3.816446e+02
2.280000e-06	2.914105e-06	5.712449e-09	2.110095e+01	3.739029e+02
2.290000e-06	2.773500e-06	5.585713e-09	2.008283e+01	3.659378e+02
2.300000e-06	2.631734e-06	5.464742e-09	1.905630e+01	3.577456e+02
2.310000e-06	2.488931e-06	5.343006e-09	1.802227e+01	3.493175e+02
2.320000e-06	2.345189e-06	5.215691e-09	1.698144e+01	3.406391e+02
2.330000e-06	2.200613e-06	5.079744e-09	1.593457e+01	3.316907e+02
2.340000e-06	2.055394e-06	4.938898e-09	1.488304e+01	3.224481e+02
2.350000e-06	1.909580e-06	4.788148e-09	1.382721e+01	3.128851e+02
2.360000e-06	1.763101e-06	4.632242e-09	1.276656e+01	3.029752e+02
2.370000e-06	1.616001e-06	4.477382e-09	1.170142e+01	2.926948e+02
2.380000e-06	1.468467e-06	4.321436e-09	1.063312e+01	2.820248e+02
2.390000e-06	1.320528e-06	4.158712e-09	9.561900e+00	2.709520e+02
2.400000e-06	1.172100e-06	3.983440e-09	8.487140e+00	2.594700e+02
2.410000e-06	1.023253e-06	3.797692e-09	7.409344e+00	2.475774e+02
2.420000e-06	8.740929e-07	3.605558e-09	6.329280e+00	2.352758e+02
2.430000e-06	7.246104e-07	3.410562e-09	5.246882e+00	2.225665e+02
2.440000e-06	5.748489e-07	3.216675e-09	4.162463e+00	2.094460e+02
2.450000e-06	4.248985e-07	3.017448e-09	3.076677e+00	1.959019e+02
2.460000e-06	2.747492e-07	2.803716e-09	1.989451e+00	1.819097e+02
2.470000e-06	1.244826e-07	2.574532e-09	9.013746e-01	1.674302e+02
2.480000e-06	-2.579674e-08	2.337209e-09	-1.867934e-01	1.524095e+02
2.490000e-06	-1.760954e-07	2.095728e-09	-1.275101e+00	1.367810e+02
2.500000e-06	-3.263401e-07	1.846248e-09	-2.363019e+00	1.204703e+02
2.510000e-06	-4.765014e-07	1.586294e-09	-3.450332e+00	1.034015e+02
2.520000e-06	-6.265348e-07	1.312488e-09	-4.536719e+00	8.550642e+01
2.530000e-06	-7.763896e-07	1.026292e-09	-5.621814e+00	6.673411e+01
2.540000e-06	-9.260710e-07	7.295326e-10	-6.705652e+00	4.706010e+01
2.550000e-06	-1.075450e-06	4.206446e-10	-7.787301e+00	2.649494e+01
2.560000e-06	-1.224320e-06	9.894017e-11	-8.865264e+00	5.090192e+00
2.570000e-06	-1.372638e-06	-2.372198e-10	-9.939230e+00	-1.705857e+01
2.580000e-06	-1.520452e-06	-5.852322e-10	-1.100954e+01	-3.981254e+01
2.590000e-06	-1.667769e-06	-9.419404e-10	-1.207626e+01	-6.299431e+01
2.600000e-06	-1.814530e-06	-1.302048e-09	-1.313896e+01	-8.639620e+01
2.610000e-06	-1.960566e-06	-1.665368e-09	-1.419640e+01	-1.097915e+02
2.620000e-06	-2.105900e-06	-2.028506e-09	-1.524876e+01	-1.329476e+02
2.630000e-06	-2.250575e-06	-2.379919e-09	-1.629635e+01	-1.556403e+02
2.640000e-06	-2.394335e-06	-2.713047e-09	-1.733731e+01	-1.776668e+02
2.650000e-06	-2.537069e-06	-3.029144e-09	-1.837084e+01	-1.988572e+02
2.660000e-06	-2.678791e-06	-3.333473e-09	-1.939704e+01	-2.190832e+02
2.670000e-06	-2.819416e-06	-3.624588e-09	-2.041530e+01	-2.382623e+02
2.680000e-06	-2.958912e-06	-3.899709e-09	-2.142539e+01	-2.563586e+02
2.690000e-06	-3.097174e-06	-4.158570e-09	-2.242654e+01	-2.733795e+02
2.700000e-06	-3.234220e-06	-4.402262e-09	-2.341889e+01	-2.893686e+02
2.710000e-06	-3.370038e-06	-4.634245e-09	-2.440234e+01	-3.043966e+02
2.720000e-06	-3.504613e-06	-4.856759e-09	-2.537680e+01	-3.185510e+02
2.730000e-06	-3.637998e-06	-5.069691e-09	-2.634264e+01	-3.319245e+02
2.740000e-06	-3.770054e-06	-5.268539e-09	-2.729885e+01	-3.446061e+02
2.750000e-06	-3.900704e-06	-5.451913e-09	-2.824488e+01	-3.566733e+02
2.760000e-06	-4.030046e-06	-5.624608e-09	-2.918144e+01	-3.681866e+02
2.770000e-06	-4.158013e-06	-5.791294e-09	-3.010804e+01	-3.791883e+02
2.780000e-06	-4.284545e-06	-5.952534e-09	-3.102426e+01	-3.897027e+02
2.790000e-06	-4.409687e-06	-6.103122e-09	-3.193041e+01	-3.997396e+02
2.800000e-06	-4.533236e-06	-6.244561e-09	-3.282502e+01	-4.092995e+02
2.810000e-06	-4.655165e-06	-6.382333e-09	-3.370790e+01	-4.183789e+02
2.820000e-06	-4.775427e-06	-6.514948e-09	-3.457872e+01	-4.269758e+02
2.830000e-06	-4.893812e-06	-6.639936e-09	-3.543594e+01	-4.350950e+02
2.840000e-06	-5.010252e-06	-6.758092e-09	-3.627908e+01	-4.427506e+02
2.850000e-06	-5.124598e-06	-6.870598e-09	-3.710706e+01	-4.499671e+02
2.860000e-06	-5.236886e-06	-6.976957e-09	-3.792013e+01	-4.567791e+02
2.870000e-06	-5.347196e-06	-7.075199e-09	-3.871888e+01	-4.632284e+02
2.880000e-06	-5.455591e-06	-7.168459e-09	-3.950376e+01	-4.693605e+02
2.890000e-06	-5.562212e-06	-7.258561e-09	-4.027581e+01	-4.752203e+02
2.900000e-06	-5.666838e-06	-7.344019e-09	-4.103340e+01	-4.808482e+02
2.910000e-06	-5.769287e-06	-7.427257e-09	-4.177523e+01	-4.862761e+02
2.920000e-06	-5.869559e-06	-7.509062e-09	-4.250130e+01	-4.915259e+02
2.930000e-06	-5.967784e-06	-7.588731e-09	-4.321254e+01	-4.966084e+02
2.940000e-06	-6.063969e-06	-7.664651e-09	-4.390901e+01	-5.015242e+02
