# Temperatura_=_68.75
# Concentracion g/m^3_=_10000.0
# C_Vs_to_Am_M_A/Vsm_=_65563218390.804596
# pendiente_HvsI_1/m_=_3716.3
# ordenada_HvsI_A/m_=_1297.0
# frecuencia_Hz_=_302623.9091597214

Tiempo_(s)	Campo_(V.s)	Magnetizacion_(V.s)	Campo_(kA/m)	Magnetizacion_(A/m)
0.000000e+00	-7.908687e-06	-1.058008e-08	-5.681642e+01	-6.930614e+02
1.000000e-08	-7.904085e-06	-1.057744e-08	-5.678336e+01	-6.926433e+02
2.000000e-08	-7.896945e-06	-1.056808e-08	-5.673207e+01	-6.921041e+02
3.000000e-08	-7.887110e-06	-1.055681e-08	-5.666141e+01	-6.914571e+02
4.000000e-08	-7.874380e-06	-1.054383e-08	-5.656995e+01	-6.907154e+02
5.000000e-08	-7.858646e-06	-1.052998e-08	-5.645692e+01	-6.898906e+02
6.000000e-08	-7.840277e-06	-1.051816e-08	-5.632496e+01	-6.889911e+02
7.000000e-08	-7.819726e-06	-1.051033e-08	-5.617732e+01	-6.880218e+02
8.000000e-08	-7.796578e-06	-1.052536e-08	-5.601102e+01	-6.869835e+02
9.000000e-08	-7.770230e-06	-1.054690e-08	-5.582174e+01	-6.858735e+02
1.000000e-07	-7.740747e-06	-1.049202e-08	-5.560993e+01	-6.846856e+02
1.100000e-07	-7.708456e-06	-1.042717e-08	-5.537795e+01	-6.834118e+02
1.200000e-07	-7.673432e-06	-1.039522e-08	-5.512634e+01	-6.820426e+02
1.300000e-07	-7.635932e-06	-1.035194e-08	-5.485693e+01	-6.805682e+02
1.400000e-07	-7.596341e-06	-1.030708e-08	-5.457251e+01	-6.789795e+02
1.500000e-07	-7.554564e-06	-1.032624e-08	-5.427238e+01	-6.772683e+02
1.600000e-07	-7.510176e-06	-1.033836e-08	-5.395350e+01	-6.754274e+02
1.700000e-07	-7.463101e-06	-1.024888e-08	-5.361530e+01	-6.734510e+02
1.800000e-07	-7.413257e-06	-1.023534e-08	-5.325722e+01	-6.713342e+02
1.900000e-07	-7.360383e-06	-1.020430e-08	-5.287737e+01	-6.690731e+02
2.000000e-07	-7.304696e-06	-1.011972e-08	-5.247732e+01	-6.666644e+02
2.100000e-07	-7.246317e-06	-1.009963e-08	-5.205792e+01	-6.641053e+02
2.200000e-07	-7.185319e-06	-1.006429e-08	-5.161971e+01	-6.613939e+02
2.300000e-07	-7.121771e-06	-1.003712e-08	-5.116318e+01	-6.585292e+02
2.400000e-07	-7.055427e-06	-9.987268e-09	-5.068655e+01	-6.555113e+02
2.500000e-07	-6.986387e-06	-9.931228e-09	-5.019057e+01	-6.523420e+02
2.600000e-07	-6.914769e-06	-9.890053e-09	-4.967606e+01	-6.490246e+02
2.700000e-07	-6.840372e-06	-9.821728e-09	-4.914159e+01	-6.455639e+02
2.800000e-07	-6.763204e-06	-9.770476e-09	-4.858721e+01	-6.419659e+02
2.900000e-07	-6.683217e-06	-9.728609e-09	-4.801258e+01	-6.382372e+02
3.000000e-07	-6.600650e-06	-9.690474e-09	-4.741941e+01	-6.343840e+02
3.100000e-07	-6.515911e-06	-9.616814e-09	-4.681064e+01	-6.304114e+02
3.200000e-07	-6.428932e-06	-9.536937e-09	-4.618578e+01	-6.263225e+02
3.300000e-07	-6.339634e-06	-9.480642e-09	-4.554426e+01	-6.221174e+02
3.400000e-07	-6.248037e-06	-9.401554e-09	-4.488622e+01	-6.177934e+02
3.500000e-07	-6.154218e-06	-9.336059e-09	-4.421222e+01	-6.133444e+02
3.600000e-07	-6.058156e-06	-9.279011e-09	-4.352211e+01	-6.087623e+02
3.700000e-07	-5.959755e-06	-9.215216e-09	-4.281519e+01	-6.040370e+02
3.800000e-07	-5.859149e-06	-9.129762e-09	-4.209243e+01	-5.991583e+02
3.900000e-07	-5.756557e-06	-9.045629e-09	-4.135541e+01	-5.941167e+02
4.000000e-07	-5.652012e-06	-8.973780e-09	-4.060435e+01	-5.889049e+02
4.100000e-07	-5.545441e-06	-8.887066e-09	-3.983874e+01	-5.835186e+02
4.200000e-07	-5.436888e-06	-8.801585e-09	-3.905889e+01	-5.779565e+02
4.300000e-07	-5.326455e-06	-8.722157e-09	-3.826553e+01	-5.722206e+02
4.400000e-07	-5.214082e-06	-8.643833e-09	-3.745824e+01	-5.663152e+02
4.500000e-07	-5.099626e-06	-8.544007e-09	-3.663598e+01	-5.602453e+02
4.600000e-07	-4.983127e-06	-8.441207e-09	-3.579904e+01	-5.540158e+02
4.700000e-07	-4.864827e-06	-8.348430e-09	-3.494917e+01	-5.476291e+02
4.800000e-07	-4.744788e-06	-8.252872e-09	-3.408680e+01	-5.410845e+02
4.900000e-07	-4.622984e-06	-8.150550e-09	-3.321176e+01	-5.343768e+02
5.000000e-07	-4.499451e-06	-8.045460e-09	-3.232429e+01	-5.274965e+02
5.100000e-07	-4.374258e-06	-7.935992e-09	-3.142490e+01	-5.204300e+02
5.200000e-07	-4.247479e-06	-7.815095e-09	-3.051411e+01	-5.131610e+02
5.300000e-07	-4.119210e-06	-7.693836e-09	-2.959262e+01	-5.056721e+02
5.400000e-07	-3.989491e-06	-7.576950e-09	-2.866071e+01	-4.979471e+02
5.500000e-07	-3.858221e-06	-7.461476e-09	-2.771766e+01	-4.899725e+02
5.600000e-07	-3.725424e-06	-7.341685e-09	-2.676364e+01	-4.817393e+02
5.700000e-07	-3.591193e-06	-7.217546e-09	-2.579931e+01	-4.732437e+02
5.800000e-07	-3.455532e-06	-7.084835e-09	-2.482472e+01	-4.644873e+02
5.900000e-07	-3.318559e-06	-6.943623e-09	-2.384070e+01	-4.554755e+02
6.000000e-07	-3.180368e-06	-6.799727e-09	-2.284793e+01	-4.462163e+02
6.100000e-07	-3.040811e-06	-6.652480e-09	-2.184534e+01	-4.367174e+02
6.200000e-07	-2.899873e-06	-6.502601e-09	-2.083284e+01	-4.269838e+02
6.300000e-07	-2.757726e-06	-6.350904e-09	-1.981165e+01	-4.170153e+02
6.400000e-07	-2.614567e-06	-6.197768e-09	-1.878319e+01	-4.068043e+02
6.500000e-07	-2.470474e-06	-6.038055e-09	-1.774801e+01	-3.963355e+02
6.600000e-07	-2.325443e-06	-5.868562e-09	-1.670610e+01	-3.855861e+02
6.700000e-07	-2.179591e-06	-5.695299e-09	-1.565829e+01	-3.745269e+02
6.800000e-07	-2.033020e-06	-5.520959e-09	-1.460532e+01	-3.631256e+02
6.900000e-07	-1.885805e-06	-5.341891e-09	-1.354772e+01	-3.513494e+02
7.000000e-07	-1.738012e-06	-5.156875e-09	-1.248597e+01	-3.391688e+02
7.100000e-07	-1.589672e-06	-4.964598e-09	-1.142029e+01	-3.265605e+02
7.200000e-07	-1.440824e-06	-4.765214e-09	-1.035096e+01	-3.135093e+02
7.300000e-07	-1.291516e-06	-4.561208e-09	-9.278319e+00	-3.000085e+02
7.400000e-07	-1.141788e-06	-4.351365e-09	-8.202668e+00	-2.860589e+02
7.500000e-07	-9.916950e-07	-4.136726e-09	-7.124389e+00	-2.716655e+02
7.600000e-07	-8.412616e-07	-3.915572e-09	-6.043667e+00	-2.568333e+02
7.700000e-07	-6.905576e-07	-3.684591e-09	-4.961002e+00	-2.415619e+02
7.800000e-07	-5.396101e-07	-3.444047e-09	-3.876587e+00	-2.258397e+02
7.900000e-07	-3.885301e-07	-3.195016e-09	-2.791220e+00	-2.096396e+02
8.000000e-07	-2.373722e-07	-2.936928e-09	-1.705294e+00	-1.929155e+02
8.100000e-07	-8.598218e-08	-2.668909e-09	-6.177004e-01	-1.756016e+02
8.200000e-07	6.554680e-08	-2.391599e-09	4.708917e-01	-1.576150e+02
8.300000e-07	2.170429e-07	-2.103645e-09	1.559247e+00	-1.388604e+02
8.400000e-07	3.684360e-07	-1.803400e-09	2.646863e+00	-1.192386e+02
8.500000e-07	5.196363e-07	-1.490398e-09	3.733095e+00	-9.865674e+01
8.600000e-07	6.706776e-07	-1.163881e-09	4.818183e+00	-7.704049e+01
8.700000e-07	8.215879e-07	-8.240145e-10	5.902330e+00	-5.434533e+01
8.800000e-07	9.723242e-07	-4.659460e-10	6.985228e+00	-3.056748e+01
8.900000e-07	1.122811e-06	-8.777414e-11	8.066331e+00	-5.751805e+00
9.000000e-07	1.272838e-06	3.066492e-10	9.144137e+00	2.000373e+01
9.100000e-07	1.422320e-06	7.148308e-10	1.021802e+01	4.654799e+01
9.200000e-07	1.571360e-06	1.132028e-09	1.128873e+01	7.368128e+01
9.300000e-07	1.719886e-06	1.555123e-09	1.235575e+01	1.011643e+02
9.400000e-07	1.867818e-06	1.977653e-09	1.341850e+01	1.287311e+02
9.500000e-07	2.015127e-06	2.394531e-09	1.447678e+01	1.561040e+02
9.600000e-07	2.161623e-06	2.803835e-09	1.552921e+01	1.830106e+02
9.700000e-07	2.307250e-06	3.200498e-09	1.657540e+01	2.091996e+02
9.800000e-07	2.452069e-06	3.580226e-09	1.761579e+01	2.344550e+02
9.900000e-07	2.595946e-06	3.944476e-09	1.864941e+01	2.586073e+02
1.000000e-06	2.738797e-06	4.292823e-09	1.967566e+01	2.815401e+02
1.010000e-06	2.880588e-06	4.621218e-09	2.069429e+01	3.031926e+02
1.020000e-06	3.021226e-06	4.928118e-09	2.170464e+01	3.235567e+02
1.030000e-06	3.160588e-06	5.217636e-09	2.270583e+01	3.426709e+02
1.040000e-06	3.298617e-06	5.490021e-09	2.369744e+01	3.606104e+02
1.050000e-06	3.435414e-06	5.745358e-09	2.468020e+01	3.774754e+02
1.060000e-06	3.570994e-06	5.988419e-09	2.565421e+01	3.933787e+02
1.070000e-06	3.705294e-06	6.220937e-09	2.661902e+01	4.084340e+02
1.080000e-06	3.838271e-06	6.440601e-09	2.757433e+01	4.227464e+02
1.090000e-06	3.969820e-06	6.648882e-09	2.851940e+01	4.364048e+02
1.100000e-06	4.099844e-06	6.849989e-09	2.945350e+01	4.494783e+02
1.110000e-06	4.228464e-06	7.043453e-09	3.037751e+01	4.620147e+02
1.120000e-06	4.355646e-06	7.225148e-09	3.129119e+01	4.740429e+02
1.130000e-06	4.481352e-06	7.395216e-09	3.219427e+01	4.855767e+02
1.140000e-06	4.605583e-06	7.557829e-09	3.308675e+01	4.966197e+02
1.150000e-06	4.728141e-06	7.714469e-09	3.396721e+01	5.071716e+02
1.160000e-06	4.849002e-06	7.864601e-09	3.483548e+01	5.172331e+02
1.170000e-06	4.968156e-06	8.009386e-09	3.569149e+01	5.268097e+02
1.180000e-06	5.085458e-06	8.151117e-09	3.653420e+01	5.359146e+02
1.190000e-06	5.200748e-06	8.286716e-09	3.736245e+01	5.445690e+02
1.200000e-06	5.314074e-06	8.414428e-09	3.817658e+01	5.528012e+02
1.210000e-06	5.425455e-06	8.536730e-09	3.897675e+01	5.606446e+02
1.220000e-06	5.534885e-06	8.654521e-09	3.976290e+01	5.681345e+02
1.230000e-06	5.642339e-06	8.764610e-09	4.053485e+01	5.753047e+02
1.240000e-06	5.747715e-06	8.865947e-09	4.129188e+01	5.821853e+02
1.250000e-06	5.850986e-06	8.963389e-09	4.203379e+01	5.888002e+02
1.260000e-06	5.952159e-06	9.061311e-09	4.276062e+01	5.951664e+02
1.270000e-06	6.051143e-06	9.154878e-09	4.347173e+01	6.012939e+02
1.280000e-06	6.147839e-06	9.241955e-09	4.416639e+01	6.071876e+02
1.290000e-06	6.242279e-06	9.325420e-09	4.484485e+01	6.128485e+02
1.300000e-06	6.334457e-06	9.407532e-09	4.550707e+01	6.182764e+02
1.310000e-06	6.424322e-06	9.486766e-09	4.615266e+01	6.234720e+02
1.320000e-06	6.511828e-06	9.561617e-09	4.678131e+01	6.284385e+02
1.330000e-06	6.597111e-06	9.633624e-09	4.739399e+01	6.331825e+02
1.340000e-06	6.680147e-06	9.702639e-09	4.799052e+01	6.377142e+02
1.350000e-06	6.760720e-06	9.768013e-09	4.856936e+01	6.420465e+02
1.360000e-06	6.838755e-06	9.831151e-09	4.912997e+01	6.461933e+02
1.370000e-06	6.914177e-06	9.894069e-09	4.967181e+01	6.501682e+02
1.380000e-06	6.987045e-06	9.955529e-09	5.019529e+01	6.539817e+02
1.390000e-06	7.057471e-06	1.001273e-08	5.070124e+01	6.576407e+02
1.400000e-06	7.125387e-06	1.006730e-08	5.118915e+01	6.611465e+02
1.410000e-06	7.190720e-06	1.011818e-08	5.165851e+01	6.644955e+02
1.420000e-06	7.253520e-06	1.016482e-08	5.210966e+01	6.676796e+02
1.430000e-06	7.313879e-06	1.020828e-08	5.254329e+01	6.706874e+02
1.440000e-06	7.371697e-06	1.024887e-08	5.295865e+01	6.735068e+02
1.450000e-06	7.426832e-06	1.028742e-08	5.335475e+01	6.761267e+02
1.460000e-06	7.479134e-06	1.032251e-08	5.373048e+01	6.785396e+02
1.470000e-06	7.528426e-06	1.035706e-08	5.408460e+01	6.807426e+02
1.480000e-06	7.574827e-06	1.038939e-08	5.441795e+01	6.827391e+02
1.490000e-06	7.618573e-06	1.041730e-08	5.473223e+01	6.845381e+02
1.500000e-06	7.659593e-06	1.044338e-08	5.502692e+01	6.861541e+02
1.510000e-06	7.697857e-06	1.046817e-08	5.530180e+01	6.876048e+02
1.520000e-06	7.733528e-06	1.049298e-08	5.555807e+01	6.889098e+02
1.530000e-06	7.766430e-06	1.051433e-08	5.579444e+01	6.900877e+02
1.540000e-06	7.796539e-06	1.053028e-08	5.601074e+01	6.911543e+02
1.550000e-06	7.823932e-06	1.054262e-08	5.620753e+01	6.921208e+02
1.560000e-06	7.848401e-06	1.055361e-08	5.638332e+01	6.929928e+02
1.570000e-06	7.870023e-06	1.056666e-08	5.653866e+01	6.937703e+02
1.580000e-06	7.888976e-06	1.057989e-08	5.667481e+01	6.944481e+02
1.590000e-06	7.905018e-06	1.059045e-08	5.679006e+01	6.950170e+02
1.600000e-06	7.917978e-06	1.059627e-08	5.688317e+01	6.954661e+02
1.610000e-06	7.927845e-06	1.059913e-08	5.695405e+01	6.957842e+02
1.620000e-06	7.934716e-06	1.060200e-08	5.700341e+01	6.959625e+02
1.630000e-06	7.938785e-06	1.060494e-08	5.703265e+01	6.959953e+02
1.640000e-06	7.940018e-06	1.060691e-08	5.704150e+01	6.958816e+02
1.650000e-06	7.938489e-06	1.060629e-08	5.703052e+01	6.956249e+02
1.660000e-06	7.934396e-06	1.059910e-08	5.700111e+01	6.952331e+02
1.670000e-06	7.927645e-06	1.059429e-08	5.695261e+01	6.947177e+02
1.680000e-06	7.918256e-06	1.058780e-08	5.688516e+01	6.940915e+02
1.690000e-06	7.906160e-06	1.057789e-08	5.679826e+01	6.933680e+02
1.700000e-06	7.891257e-06	1.056781e-08	5.669120e+01	6.925590e+02
1.710000e-06	7.873873e-06	1.055498e-08	5.656631e+01	6.916739e+02
1.720000e-06	7.854261e-06	1.053067e-08	5.642542e+01	6.907182e+02
1.730000e-06	7.832074e-06	1.045486e-08	5.626603e+01	6.896937e+02
1.740000e-06	7.806668e-06	1.041400e-08	5.608351e+01	6.885983e+02
1.750000e-06	7.777693e-06	1.044883e-08	5.587535e+01	6.874266e+02
1.760000e-06	7.745418e-06	1.045205e-08	5.564348e+01	6.861709e+02
1.770000e-06	7.710606e-06	1.044439e-08	5.539340e+01	6.848217e+02
1.780000e-06	7.673467e-06	1.045721e-08	5.512659e+01	6.833696e+02
1.790000e-06	7.634118e-06	1.042959e-08	5.484390e+01	6.818050e+02
1.800000e-06	7.592747e-06	1.035249e-08	5.454669e+01	6.801195e+02
1.810000e-06	7.548957e-06	1.036969e-08	5.423210e+01	6.783058e+02
1.820000e-06	7.502588e-06	1.035388e-08	5.389898e+01	6.763578e+02
1.830000e-06	7.453562e-06	1.031720e-08	5.354678e+01	6.742703e+02
1.840000e-06	7.401520e-06	1.032566e-08	5.317291e+01	6.720394e+02
1.850000e-06	7.346547e-06	1.023969e-08	5.277798e+01	6.696614e+02
1.860000e-06	7.288865e-06	1.022763e-08	5.236359e+01	6.671336e+02
1.870000e-06	7.228621e-06	1.014667e-08	5.193079e+01	6.644538e+02
1.880000e-06	7.165669e-06	1.009162e-08	5.147854e+01	6.616208e+02
1.890000e-06	7.099865e-06	1.009928e-08	5.100580e+01	6.586346e+02
1.900000e-06	7.031377e-06	1.000963e-08	5.051377e+01	6.554963e+02
1.910000e-06	6.960075e-06	1.000573e-08	5.000154e+01	6.522092e+02
1.920000e-06	6.886106e-06	9.931483e-09	4.947014e+01	6.487776e+02
1.930000e-06	6.809494e-06	9.867351e-09	4.891976e+01	6.452073e+02
1.940000e-06	6.730118e-06	9.798469e-09	4.834952e+01	6.415049e+02
1.950000e-06	6.648218e-06	9.722755e-09	4.776115e+01	6.376768e+02
1.960000e-06	6.563898e-06	9.709715e-09	4.715539e+01	6.337284e+02
1.970000e-06	6.477099e-06	9.622385e-09	4.653181e+01	6.296632e+02
1.980000e-06	6.387895e-06	9.590928e-09	4.589097e+01	6.254820e+02
1.990000e-06	6.296612e-06	9.513973e-09	4.523519e+01	6.211827e+02
2.000000e-06	6.203149e-06	9.427413e-09	4.456375e+01	6.167600e+02
2.010000e-06	6.107310e-06	9.343690e-09	4.387523e+01	6.122061e+02
2.020000e-06	6.009296e-06	9.271360e-09	4.317109e+01	6.075112e+02
2.030000e-06	5.909209e-06	9.221405e-09	4.245206e+01	6.026651e+02
2.040000e-06	5.806979e-06	9.136158e-09	4.171764e+01	5.976580e+02
2.050000e-06	5.702608e-06	9.071784e-09	4.096783e+01	5.924820e+02
2.060000e-06	5.596330e-06	8.974833e-09	4.020433e+01	5.871322e+02
2.070000e-06	5.488256e-06	8.881432e-09	3.942792e+01	5.816066e+02
2.080000e-06	5.378204e-06	8.779783e-09	3.863730e+01	5.759065e+02
2.090000e-06	5.266110e-06	8.706736e-09	3.783201e+01	5.700359e+02
2.100000e-06	5.152063e-06	8.625234e-09	3.701269e+01	5.639997e+02
2.110000e-06	5.036034e-06	8.528579e-09	3.617913e+01	5.578029e+02
2.120000e-06	4.918011e-06	8.431587e-09	3.533124e+01	5.514487e+02
2.130000e-06	4.798053e-06	8.329249e-09	3.446946e+01	5.449371e+02
2.140000e-06	4.676287e-06	8.224215e-09	3.359469e+01	5.382639e+02
2.150000e-06	4.552893e-06	8.109944e-09	3.270822e+01	5.314205e+02
2.160000e-06	4.427906e-06	8.011949e-09	3.181031e+01	5.243941e+02
2.170000e-06	4.301298e-06	7.906012e-09	3.090075e+01	5.171687e+02
2.180000e-06	4.173003e-06	7.796331e-09	2.997907e+01	5.097273e+02
2.190000e-06	4.043168e-06	7.674572e-09	2.904633e+01	5.020530e+02
2.200000e-06	3.911896e-06	7.552537e-09	2.810327e+01	4.941317e+02
2.210000e-06	3.779193e-06	7.419028e-09	2.714992e+01	4.859532e+02
2.220000e-06	3.645123e-06	7.287150e-09	2.618675e+01	4.775128e+02
2.230000e-06	3.509644e-06	7.160300e-09	2.521346e+01	4.688108e+02
2.240000e-06	3.372792e-06	7.032921e-09	2.423031e+01	4.598520e+02
2.250000e-06	3.234689e-06	6.896333e-09	2.323817e+01	4.506440e+02
2.260000e-06	3.095403e-06	6.750760e-09	2.223754e+01	4.411948e+02
2.270000e-06	2.954901e-06	6.599870e-09	2.122817e+01	4.315102e+02
2.280000e-06	2.813187e-06	6.442525e-09	2.021008e+01	4.215912e+02
2.290000e-06	2.670335e-06	6.289204e-09	1.918383e+01	4.114320e+02
2.300000e-06	2.526527e-06	6.136294e-09	1.815070e+01	4.010191e+02
2.310000e-06	2.381919e-06	5.979352e-09	1.711183e+01	3.903310e+02
2.320000e-06	2.236483e-06	5.810379e-09	1.606701e+01	3.793397e+02
2.330000e-06	2.090278e-06	5.634727e-09	1.501667e+01	3.680134e+02
2.340000e-06	1.943365e-06	5.453177e-09	1.396124e+01	3.563190e+02
2.350000e-06	1.795798e-06	5.266492e-09	1.290111e+01	3.442262e+02
2.360000e-06	1.647652e-06	5.075622e-09	1.183682e+01	3.317100e+02
2.370000e-06	1.498969e-06	4.878637e-09	1.076867e+01	3.187534e+02
2.380000e-06	1.349820e-06	4.676456e-09	9.697179e+00	3.053479e+02
2.390000e-06	1.200239e-06	4.466863e-09	8.622582e+00	2.914930e+02
2.400000e-06	1.050283e-06	4.247983e-09	7.545291e+00	2.771931e+02
2.410000e-06	8.999779e-07	4.021704e-09	6.465488e+00	2.624536e+02
2.420000e-06	7.493503e-07	3.788793e-09	5.383371e+00	2.472757e+02
2.430000e-06	5.984903e-07	3.549993e-09	4.299585e+00	2.316506e+02
2.440000e-06	4.474284e-07	3.305199e-09	3.214349e+00	2.155550e+02
2.450000e-06	2.961390e-07	3.052417e-09	2.127478e+00	1.989469e+02
2.460000e-06	1.446810e-07	2.787959e-09	1.039396e+00	1.817648e+02
2.470000e-06	-6.869043e-09	2.509682e-09	-4.934756e-02	1.639290e+02
2.480000e-06	-1.584142e-07	2.219147e-09	-1.138056e+00	1.453462e+02
2.490000e-06	-3.098841e-07	1.919131e-09	-2.226224e+00	1.259172e+02
2.500000e-06	-4.612903e-07	1.609730e-09	-3.313934e+00	1.055470e+02
2.510000e-06	-6.125630e-07	1.287627e-09	-4.400684e+00	8.415627e+01
2.520000e-06	-7.636015e-07	9.498857e-10	-5.485753e+00	6.169303e+01
2.530000e-06	-9.143597e-07	5.954305e-10	-6.568807e+00	3.814403e+01
2.540000e-06	-1.064745e-06	2.253293e-10	-7.649180e+00	1.354321e+01
2.550000e-06	-1.214702e-06	-1.599043e-10	-8.726479e+00	-1.202300e+01
2.560000e-06	-1.364248e-06	-5.602726e-10	-9.800829e+00	-3.841464e+01
2.570000e-06	-1.513367e-06	-9.749579e-10	-1.087211e+01	-6.544180e+01
2.580000e-06	-1.662018e-06	-1.400791e-09	-1.194002e+01	-9.287273e+01
2.590000e-06	-1.810074e-06	-1.829567e-09	-1.300366e+01	-1.204459e+02
2.600000e-06	-1.957454e-06	-2.255182e-09	-1.406245e+01	-1.478849e+02
2.610000e-06	-2.104080e-06	-2.672719e-09	-1.511582e+01	-1.749146e+02
2.620000e-06	-2.249880e-06	-3.077566e-09	-1.616325e+01	-2.012781e+02
2.630000e-06	-2.394832e-06	-3.465984e-09	-1.720460e+01	-2.267507e+02
2.640000e-06	-2.538856e-06	-3.835700e-09	-1.823927e+01	-2.511521e+02
2.650000e-06	-2.681845e-06	-4.184403e-09	-1.926652e+01	-2.743544e+02
2.660000e-06	-2.823677e-06	-4.513260e-09	-2.028544e+01	-2.962847e+02
2.670000e-06	-2.964425e-06	-4.826475e-09	-2.129658e+01	-3.169243e+02
2.680000e-06	-3.104067e-06	-5.124201e-09	-2.229978e+01	-3.363022e+02
2.690000e-06	-3.242484e-06	-5.404957e-09	-2.329417e+01	-3.544868e+02
2.700000e-06	-3.379680e-06	-5.667491e-09	-2.427979e+01	-3.715739e+02
2.710000e-06	-3.515580e-06	-5.915122e-09	-2.525611e+01	-3.876747e+02
2.720000e-06	-3.650076e-06	-6.152988e-09	-2.622234e+01	-4.029036e+02
2.730000e-06	-3.783229e-06	-6.379912e-09	-2.717891e+01	-4.173681e+02
2.740000e-06	-3.915105e-06	-6.594627e-09	-2.812632e+01	-4.311613e+02
2.750000e-06	-4.045619e-06	-6.798256e-09	-2.906393e+01	-4.443565e+02
2.760000e-06	-4.174794e-06	-6.992558e-09	-2.999194e+01	-4.570061e+02
2.770000e-06	-4.302575e-06	-7.177596e-09	-3.090992e+01	-4.691428e+02
2.780000e-06	-4.428785e-06	-7.351543e-09	-3.181662e+01	-4.807831e+02
2.790000e-06	-4.553512e-06	-7.516753e-09	-3.271267e+01	-4.919323e+02
2.800000e-06	-4.676671e-06	-7.676921e-09	-3.359745e+01	-5.025907e+02
2.810000e-06	-4.798040e-06	-7.832963e-09	-3.446937e+01	-5.127581e+02
2.820000e-06	-4.917555e-06	-7.982163e-09	-3.532797e+01	-5.224389e+02
2.830000e-06	-5.035190e-06	-8.124031e-09	-3.617307e+01	-5.316445e+02
2.840000e-06	-5.150928e-06	-8.259192e-09	-3.700453e+01	-5.403944e+02
2.850000e-06	-5.264469e-06	-8.387364e-09	-3.782022e+01	-5.487156e+02
2.860000e-06	-5.375888e-06	-8.506168e-09	-3.862066e+01	-5.566405e+02
2.870000e-06	-5.485460e-06	-8.619606e-09	-3.940783e+01	-5.642042e+02
2.880000e-06	-5.593097e-06	-8.733634e-09	-4.018110e+01	-5.714414e+02
2.890000e-06	-5.698809e-06	-8.843624e-09	-4.094054e+01	-5.783830e+02
2.900000e-06	-5.802431e-06	-8.945979e-09	-4.168496e+01	-5.850543e+02
2.910000e-06	-5.903813e-06	-9.041898e-09	-4.241330e+01	-5.914737e+02
2.920000e-06	-6.003058e-06	-9.134538e-09	-4.312628e+01	-5.976530e+02
2.930000e-06	-6.100217e-06	-9.222594e-09	-4.382428e+01	-6.035977e+02
2.940000e-06	-6.195201e-06	-9.306569e-09	-4.450665e+01	-6.093097e+02
