# Temperatura_=_47.99
# Concentracion g/m^3_=_10000.0
# C_Vs_to_Am_M_A/Vsm_=_65563218390.804596
# pendiente_HvsI_1/m_=_3716.3
# ordenada_HvsI_A/m_=_1297.0
# frecuencia_Hz_=_302627.13015826076

Tiempo_(s)	Campo_(V.s)	Magnetizacion_(V.s)	Campo_(kA/m)	Magnetizacion_(A/m)
0.000000e+00	-7.931286e-06	-8.947665e-09	-5.683554e+01	-5.874720e+02
1.000000e-08	-7.929068e-06	-8.952505e-09	-5.681965e+01	-5.871946e+02
2.000000e-08	-7.924101e-06	-8.950550e-09	-5.678405e+01	-5.868112e+02
3.000000e-08	-7.916557e-06	-8.945391e-09	-5.672999e+01	-5.863391e+02
4.000000e-08	-7.906289e-06	-8.938411e-09	-5.665641e+01	-5.857968e+02
5.000000e-08	-7.893136e-06	-8.925417e-09	-5.656216e+01	-5.852022e+02
6.000000e-08	-7.877050e-06	-8.909070e-09	-5.644689e+01	-5.845695e+02
7.000000e-08	-7.858368e-06	-8.895865e-09	-5.631302e+01	-5.839078e+02
8.000000e-08	-7.837461e-06	-8.891773e-09	-5.616319e+01	-5.832195e+02
9.000000e-08	-7.813939e-06	-8.952193e-09	-5.599463e+01	-5.825005e+02
1.000000e-07	-7.787185e-06	-8.952256e-09	-5.580292e+01	-5.817404e+02
1.100000e-07	-7.757285e-06	-8.872534e-09	-5.558865e+01	-5.809246e+02
1.200000e-07	-7.724618e-06	-8.833066e-09	-5.535456e+01	-5.800355e+02
1.300000e-07	-7.689242e-06	-8.813087e-09	-5.510106e+01	-5.790555e+02
1.400000e-07	-7.651349e-06	-8.769261e-09	-5.482952e+01	-5.779687e+02
1.500000e-07	-7.611371e-06	-8.719554e-09	-5.454304e+01	-5.767627e+02
1.600000e-07	-7.569184e-06	-8.803783e-09	-5.424072e+01	-5.754300e+02
1.700000e-07	-7.524310e-06	-8.777177e-09	-5.391916e+01	-5.739680e+02
1.800000e-07	-7.476728e-06	-8.666718e-09	-5.357818e+01	-5.723789e+02
1.900000e-07	-7.426317e-06	-8.734628e-09	-5.321694e+01	-5.706687e+02
2.000000e-07	-7.372926e-06	-8.656439e-09	-5.283434e+01	-5.688456e+02
2.100000e-07	-7.316769e-06	-8.589063e-09	-5.243192e+01	-5.669184e+02
2.200000e-07	-7.257926e-06	-8.592461e-09	-5.201025e+01	-5.648953e+02
2.300000e-07	-7.196436e-06	-8.543719e-09	-5.156961e+01	-5.627822e+02
2.400000e-07	-7.132322e-06	-8.553839e-09	-5.111017e+01	-5.605824e+02
2.500000e-07	-7.065415e-06	-8.494407e-09	-5.063072e+01	-5.582964e+02
2.600000e-07	-6.995860e-06	-8.475030e-09	-5.013229e+01	-5.559217e+02
2.700000e-07	-6.923698e-06	-8.438564e-09	-4.961517e+01	-5.534542e+02
2.800000e-07	-6.848717e-06	-8.383824e-09	-4.907786e+01	-5.508889e+02
2.900000e-07	-6.770887e-06	-8.338546e-09	-4.852013e+01	-5.482207e+02
3.000000e-07	-6.690257e-06	-8.317138e-09	-4.794233e+01	-5.454455e+02
3.100000e-07	-6.607187e-06	-8.312183e-09	-4.734706e+01	-5.425604e+02
3.200000e-07	-6.521938e-06	-8.212062e-09	-4.673616e+01	-5.395642e+02
3.300000e-07	-6.434428e-06	-8.164614e-09	-4.610907e+01	-5.364569e+02
3.400000e-07	-6.344552e-06	-8.133633e-09	-4.546501e+01	-5.332391e+02
3.500000e-07	-6.252375e-06	-8.069937e-09	-4.480447e+01	-5.299115e+02
3.600000e-07	-6.158015e-06	-8.011369e-09	-4.412829e+01	-5.264740e+02
3.700000e-07	-6.061337e-06	-7.972945e-09	-4.343550e+01	-5.229253e+02
3.800000e-07	-5.962374e-06	-7.930333e-09	-4.272633e+01	-5.192623e+02
3.900000e-07	-5.861327e-06	-7.847656e-09	-4.200223e+01	-5.154807e+02
4.000000e-07	-5.758267e-06	-7.788067e-09	-4.126370e+01	-5.115747e+02
4.100000e-07	-5.653164e-06	-7.736171e-09	-4.051053e+01	-5.075384e+02
4.200000e-07	-5.546042e-06	-7.677042e-09	-3.974290e+01	-5.033660e+02
4.300000e-07	-5.436970e-06	-7.599391e-09	-3.896129e+01	-4.990527e+02
4.400000e-07	-5.326015e-06	-7.539993e-09	-3.816619e+01	-4.945951e+02
4.500000e-07	-5.213006e-06	-7.487990e-09	-3.735637e+01	-4.899917e+02
4.600000e-07	-5.097881e-06	-7.408328e-09	-3.653138e+01	-4.852422e+02
4.700000e-07	-4.980787e-06	-7.318043e-09	-3.569228e+01	-4.803473e+02
4.800000e-07	-4.861900e-06	-7.242641e-09	-3.484035e+01	-4.753074e+02
4.900000e-07	-4.741263e-06	-7.172889e-09	-3.397586e+01	-4.701220e+02
5.000000e-07	-4.618868e-06	-7.088878e-09	-3.309877e+01	-4.647883e+02
5.100000e-07	-4.494780e-06	-7.006874e-09	-3.220956e+01	-4.593008e+02
5.200000e-07	-4.369037e-06	-6.919438e-09	-3.130849e+01	-4.536511e+02
5.300000e-07	-4.241782e-06	-6.825933e-09	-3.039658e+01	-4.478279e+02
5.400000e-07	-4.112974e-06	-6.725757e-09	-2.947354e+01	-4.418181e+02
5.500000e-07	-3.982618e-06	-6.631907e-09	-2.853941e+01	-4.356077e+02
5.600000e-07	-3.850772e-06	-6.539322e-09	-2.759461e+01	-4.291833e+02
5.700000e-07	-3.717451e-06	-6.440800e-09	-2.663923e+01	-4.225338e+02
5.800000e-07	-3.582799e-06	-6.333613e-09	-2.567432e+01	-4.156512e+02
5.900000e-07	-3.446793e-06	-6.222558e-09	-2.469969e+01	-4.085311e+02
6.000000e-07	-3.309352e-06	-6.110140e-09	-2.371480e+01	-4.011730e+02
6.100000e-07	-3.170615e-06	-5.992915e-09	-2.272060e+01	-3.935794e+02
6.200000e-07	-3.030550e-06	-5.873645e-09	-2.171690e+01	-3.857539e+02
6.300000e-07	-2.889134e-06	-5.750247e-09	-2.070351e+01	-3.777000e+02
6.400000e-07	-2.746479e-06	-5.627646e-09	-1.968125e+01	-3.694182e+02
6.500000e-07	-2.602728e-06	-5.500229e-09	-1.865113e+01	-3.609049e+02
6.600000e-07	-2.458061e-06	-5.366830e-09	-1.761445e+01	-3.521505e+02
6.700000e-07	-2.312511e-06	-5.223124e-09	-1.657144e+01	-3.431390e+02
6.800000e-07	-2.166134e-06	-5.076242e-09	-1.552250e+01	-3.338486e+02
6.900000e-07	-2.019124e-06	-4.928107e-09	-1.446903e+01	-3.242530e+02
7.000000e-07	-1.871553e-06	-4.775820e-09	-1.341154e+01	-3.143236e+02
7.100000e-07	-1.723353e-06	-4.620461e-09	-1.234953e+01	-3.040325e+02
7.200000e-07	-1.574574e-06	-4.456739e-09	-1.128339e+01	-2.933547e+02
7.300000e-07	-1.425337e-06	-4.286629e-09	-1.021395e+01	-2.822708e+02
7.400000e-07	-1.275686e-06	-4.108181e-09	-9.141558e+00	-2.707682e+02
7.500000e-07	-1.125647e-06	-3.928323e-09	-8.066377e+00	-2.588411e+02
7.600000e-07	-9.752099e-07	-3.747517e-09	-6.988347e+00	-2.464890e+02
7.700000e-07	-8.244351e-07	-3.558403e-09	-5.907897e+00	-2.337139e+02
7.800000e-07	-6.734082e-07	-3.355131e-09	-4.825639e+00	-2.205163e+02
7.900000e-07	-5.221361e-07	-3.144425e-09	-3.741624e+00	-2.068905e+02
8.000000e-07	-3.706421e-07	-2.931629e-09	-2.656019e+00	-1.928206e+02
8.100000e-07	-2.189971e-07	-2.710313e-09	-1.569332e+00	-1.782766e+02
8.200000e-07	-6.721672e-08	-2.479018e-09	-4.816746e-01	-1.632126e+02
8.300000e-07	8.464019e-08	-2.236646e-09	6.065310e-01	-1.475677e+02
8.400000e-07	2.365198e-07	-1.986392e-09	1.694899e+00	-1.312687e+02
8.500000e-07	3.883785e-07	-1.727256e-09	2.783118e+00	-1.142359e+02
8.600000e-07	5.400669e-07	-1.458589e-09	3.870116e+00	-9.639126e+01
8.700000e-07	6.915512e-07	-1.179075e-09	4.955651e+00	-7.766818e+01
8.800000e-07	8.428288e-07	-8.830345e-10	6.039706e+00	-5.802167e+01
8.900000e-07	9.938544e-07	-5.694982e-10	7.121954e+00	-3.743827e+01
9.000000e-07	1.144561e-06	-2.434415e-10	8.201915e+00	-1.594420e+01
9.100000e-07	1.294885e-06	9.170646e-11	9.279138e+00	6.389300e+00
9.200000e-07	1.444729e-06	4.414435e-10	1.035292e+01	2.944429e+01
9.300000e-07	1.594044e-06	8.055840e-10	1.142291e+01	5.305852e+01
9.400000e-07	1.742805e-06	1.177365e-09	1.248893e+01	7.703195e+01
9.500000e-07	1.890919e-06	1.547861e-09	1.355032e+01	1.011370e+02
9.600000e-07	2.038402e-06	1.913817e-09	1.460717e+01	1.251316e+02
9.700000e-07	2.185202e-06	2.275053e-09	1.565914e+01	1.487737e+02
9.800000e-07	2.331192e-06	2.628230e-09	1.670531e+01	1.718363e+02
9.900000e-07	2.476293e-06	2.967527e-09	1.774510e+01	1.941205e+02
1.000000e-06	2.620465e-06	3.291305e-09	1.877824e+01	2.154671e+02
1.010000e-06	2.763663e-06	3.596493e-09	1.980439e+01	2.357631e+02
1.020000e-06	2.905724e-06	3.883833e-09	2.082240e+01	2.549453e+02
1.030000e-06	3.046523e-06	4.155384e-09	2.183137e+01	2.729987e+02
1.040000e-06	3.186110e-06	4.411388e-09	2.283164e+01	2.899511e+02
1.050000e-06	3.324479e-06	4.651855e-09	2.382319e+01	3.058648e+02
1.060000e-06	3.461559e-06	4.877067e-09	2.480551e+01	3.208252e+02
1.070000e-06	3.597290e-06	5.092547e-09	2.577816e+01	3.349299e+02
1.080000e-06	3.731668e-06	5.300392e-09	2.674111e+01	3.482774e+02
1.090000e-06	3.864718e-06	5.497505e-09	2.769454e+01	3.609573e+02
1.100000e-06	3.996421e-06	5.682815e-09	2.863833e+01	3.730440e+02
1.110000e-06	4.126733e-06	5.859850e-09	2.957214e+01	3.845925e+02
1.120000e-06	4.255563e-06	6.028818e-09	3.049533e+01	3.956380e+02
1.130000e-06	4.382822e-06	6.187813e-09	3.140727e+01	4.061981e+02
1.140000e-06	4.508579e-06	6.338902e-09	3.230844e+01	4.162769e+02
1.150000e-06	4.632806e-06	6.482648e-09	3.319866e+01	4.258716e+02
1.160000e-06	4.755418e-06	6.618263e-09	3.407729e+01	4.349777e+02
1.170000e-06	4.876405e-06	6.746914e-09	3.494428e+01	4.435950e+02
1.180000e-06	4.995641e-06	6.870007e-09	3.579873e+01	4.517318e+02
1.190000e-06	5.113025e-06	6.989334e-09	3.663990e+01	4.594069e+02
1.200000e-06	5.228467e-06	7.101387e-09	3.746716e+01	4.666498e+02
1.210000e-06	5.341837e-06	7.206284e-09	3.827957e+01	4.734992e+02
1.220000e-06	5.453174e-06	7.306712e-09	3.907741e+01	4.799994e+02
1.230000e-06	5.562627e-06	7.405044e-09	3.986174e+01	4.861961e+02
1.240000e-06	5.670168e-06	7.497994e-09	4.063239e+01	4.921324e+02
1.250000e-06	5.775643e-06	7.584382e-09	4.138822e+01	4.978443e+02
1.260000e-06	5.878941e-06	7.668730e-09	4.212845e+01	5.033583e+02
1.270000e-06	5.980074e-06	7.750548e-09	4.285317e+01	5.086898e+02
1.280000e-06	6.079038e-06	7.827268e-09	4.356234e+01	5.138437e+02
1.290000e-06	6.175661e-06	7.899685e-09	4.425475e+01	5.188158e+02
1.300000e-06	6.269959e-06	7.970349e-09	4.493048e+01	5.235959e+02
1.310000e-06	6.362034e-06	8.038638e-09	4.559029e+01	5.281711e+02
1.320000e-06	6.451806e-06	8.103799e-09	4.623360e+01	5.325297e+02
1.330000e-06	6.539259e-06	8.167000e-09	4.686028e+01	5.366639e+02
1.340000e-06	6.624426e-06	8.226900e-09	4.747059e+01	5.405720e+02
1.350000e-06	6.707317e-06	8.283091e-09	4.806459e+01	5.442594e+02
1.360000e-06	6.787792e-06	8.335952e-09	4.864127e+01	5.477380e+02
1.370000e-06	6.865724e-06	8.385931e-09	4.919973e+01	5.510246e+02
1.380000e-06	6.941077e-06	8.435518e-09	4.973971e+01	5.541387e+02
1.390000e-06	7.013823e-06	8.483387e-09	5.026101e+01	5.570996e+02
1.400000e-06	7.084068e-06	8.527886e-09	5.076438e+01	5.599235e+02
1.410000e-06	7.151854e-06	8.570111e-09	5.125014e+01	5.626218e+02
1.420000e-06	7.217032e-06	8.609812e-09	5.171720e+01	5.651994e+02
1.430000e-06	7.279639e-06	8.647274e-09	5.216584e+01	5.676550e+02
1.440000e-06	7.339811e-06	8.681312e-09	5.259704e+01	5.699817e+02
1.450000e-06	7.397426e-06	8.712671e-09	5.300990e+01	5.721693e+02
1.460000e-06	7.452379e-06	8.742849e-09	5.340370e+01	5.742062e+02
1.470000e-06	7.504490e-06	8.771089e-09	5.377712e+01	5.760825e+02
1.480000e-06	7.553524e-06	8.798082e-09	5.412850e+01	5.777921e+02
1.490000e-06	7.599696e-06	8.821867e-09	5.445937e+01	5.793344e+02
1.500000e-06	7.643234e-06	8.842294e-09	5.477136e+01	5.807151e+02
1.510000e-06	7.684015e-06	8.861538e-09	5.506360e+01	5.819456e+02
1.520000e-06	7.722055e-06	8.880972e-09	5.533620e+01	5.830424e+02
1.530000e-06	7.757463e-06	8.900996e-09	5.558993e+01	5.840241e+02
1.540000e-06	7.790072e-06	8.920004e-09	5.582361e+01	5.849095e+02
1.550000e-06	7.819864e-06	8.935243e-09	5.603709e+01	5.857151e+02
1.560000e-06	7.846930e-06	8.945895e-09	5.623105e+01	5.864524e+02
1.570000e-06	7.871073e-06	8.953031e-09	5.640405e+01	5.871270e+02
1.580000e-06	7.892376e-06	8.959442e-09	5.655672e+01	5.877378e+02
1.590000e-06	7.911004e-06	8.967796e-09	5.669020e+01	5.882777e+02
1.600000e-06	7.926678e-06	8.976816e-09	5.680252e+01	5.887350e+02
1.610000e-06	7.939264e-06	8.984233e-09	5.689271e+01	5.890957e+02
1.620000e-06	7.948763e-06	8.987937e-09	5.696078e+01	5.893461e+02
1.630000e-06	7.955313e-06	8.990862e-09	5.700772e+01	5.894748e+02
1.640000e-06	7.959102e-06	8.993685e-09	5.703487e+01	5.894757e+02
1.650000e-06	7.960027e-06	8.995945e-09	5.704150e+01	5.893485e+02
1.660000e-06	7.958208e-06	8.989893e-09	5.702846e+01	5.890993e+02
1.670000e-06	7.953807e-06	8.983399e-09	5.699693e+01	5.887404e+02
1.680000e-06	7.946745e-06	8.978619e-09	5.694632e+01	5.882881e+02
1.690000e-06	7.937060e-06	8.971214e-09	5.687692e+01	5.877610e+02
1.700000e-06	7.924580e-06	8.964810e-09	5.678749e+01	5.871774e+02
1.710000e-06	7.909290e-06	8.962852e-09	5.667792e+01	5.865526e+02
1.720000e-06	7.891552e-06	8.961365e-09	5.655081e+01	5.858971e+02
1.730000e-06	7.871556e-06	8.919933e-09	5.640752e+01	5.852150e+02
1.740000e-06	7.848918e-06	8.813785e-09	5.624529e+01	5.845038e+02
1.750000e-06	7.823003e-06	8.833384e-09	5.605959e+01	5.837547e+02
1.760000e-06	7.793483e-06	8.878209e-09	5.584805e+01	5.829538e+02
1.770000e-06	7.760749e-06	8.862690e-09	5.561348e+01	5.820841e+02
1.780000e-06	7.725590e-06	8.879574e-09	5.536153e+01	5.811279e+02
1.790000e-06	7.688047e-06	8.937608e-09	5.509249e+01	5.800685e+02
1.800000e-06	7.648358e-06	8.827589e-09	5.480808e+01	5.788926e+02
1.810000e-06	7.606646e-06	8.771500e-09	5.450917e+01	5.775915e+02
1.820000e-06	7.562409e-06	8.860190e-09	5.419217e+01	5.761612e+02
1.830000e-06	7.515583e-06	8.736906e-09	5.385662e+01	5.746029e+02
1.840000e-06	7.466013e-06	8.804736e-09	5.350140e+01	5.729217e+02
1.850000e-06	7.413408e-06	8.752799e-09	5.312443e+01	5.711254e+02
1.860000e-06	7.357928e-06	8.673125e-09	5.272686e+01	5.692228e+02
1.870000e-06	7.299783e-06	8.722171e-09	5.231019e+01	5.672224e+02
1.880000e-06	7.239028e-06	8.568803e-09	5.187483e+01	5.651308e+02
1.890000e-06	7.175497e-06	8.616239e-09	5.141956e+01	5.629520e+02
1.900000e-06	7.109166e-06	8.570143e-09	5.094423e+01	5.606871e+02
1.910000e-06	7.040061e-06	8.504343e-09	5.044903e+01	5.583343e+02
1.920000e-06	6.968123e-06	8.520434e-09	4.993352e+01	5.558899e+02
1.930000e-06	6.893612e-06	8.449734e-09	4.939958e+01	5.533490e+02
1.940000e-06	6.816378e-06	8.441905e-09	4.884612e+01	5.507064e+02
1.950000e-06	6.736379e-06	8.312307e-09	4.827284e+01	5.479576e+02
1.960000e-06	6.653986e-06	8.315662e-09	4.768242e+01	5.450996e+02
1.970000e-06	6.569136e-06	8.287039e-09	4.707439e+01	5.421307e+02
1.980000e-06	6.481789e-06	8.211365e-09	4.644845e+01	5.390505e+02
1.990000e-06	6.392169e-06	8.213850e-09	4.580624e+01	5.358597e+02
2.000000e-06	6.300433e-06	8.141004e-09	4.514886e+01	5.325589e+02
2.010000e-06	6.206408e-06	8.084925e-09	4.447508e+01	5.291484e+02
2.020000e-06	6.110021e-06	7.986286e-09	4.378437e+01	5.256271e+02
2.030000e-06	6.011493e-06	7.964637e-09	4.307832e+01	5.219925e+02
2.040000e-06	5.910815e-06	7.924647e-09	4.235686e+01	5.182405e+02
2.050000e-06	5.808017e-06	7.864731e-09	4.162021e+01	5.143656e+02
2.060000e-06	5.703214e-06	7.795174e-09	4.086919e+01	5.103619e+02
2.070000e-06	5.596526e-06	7.722189e-09	4.010466e+01	5.062234e+02
2.080000e-06	5.487945e-06	7.655867e-09	3.932658e+01	5.019451e+02
2.090000e-06	5.377346e-06	7.566752e-09	3.853402e+01	4.975232e+02
2.100000e-06	5.264720e-06	7.520426e-09	3.772695e+01	4.929557e+02
2.110000e-06	5.150189e-06	7.457206e-09	3.690622e+01	4.882422e+02
2.120000e-06	5.033630e-06	7.385042e-09	3.607096e+01	4.833830e+02
2.130000e-06	4.915056e-06	7.296057e-09	3.522126e+01	4.783788e+02
2.140000e-06	4.794636e-06	7.225549e-09	3.435833e+01	4.732293e+02
2.150000e-06	4.672465e-06	7.141530e-09	3.348285e+01	4.679325e+02
2.160000e-06	4.548676e-06	7.050115e-09	3.259578e+01	4.624835e+02
2.170000e-06	4.423171e-06	6.963357e-09	3.169641e+01	4.568748e+02
2.180000e-06	4.295961e-06	6.883844e-09	3.078483e+01	4.510956e+02
2.190000e-06	4.167127e-06	6.799978e-09	2.986160e+01	4.451332e+02
2.200000e-06	4.036829e-06	6.702740e-09	2.892789e+01	4.389736e+02
2.210000e-06	3.905128e-06	6.603742e-09	2.798412e+01	4.326033e+02
2.220000e-06	3.771888e-06	6.498097e-09	2.702932e+01	4.260104e+02
2.230000e-06	3.637141e-06	6.395627e-09	2.606373e+01	4.191860e+02
2.240000e-06	3.501095e-06	6.290946e-09	2.508882e+01	4.121249e+02
2.250000e-06	3.363762e-06	6.190764e-09	2.410470e+01	4.048256e+02
2.260000e-06	3.225158e-06	6.076249e-09	2.311146e+01	3.972900e+02
2.270000e-06	3.085291e-06	5.952370e-09	2.210918e+01	3.895215e+02
2.280000e-06	2.944129e-06	5.821933e-09	2.109761e+01	3.815239e+02
2.290000e-06	2.801816e-06	5.695835e-09	2.007779e+01	3.732987e+02
2.300000e-06	2.658496e-06	5.572185e-09	1.905076e+01	3.648434e+02
2.310000e-06	2.514245e-06	5.447071e-09	1.801706e+01	3.561499e+02
2.320000e-06	2.369107e-06	5.315073e-09	1.697701e+01	3.472039e+02
2.330000e-06	2.223219e-06	5.170512e-09	1.593158e+01	3.379850e+02
2.340000e-06	2.076656e-06	5.020864e-09	1.488130e+01	3.284677e+02
2.350000e-06	1.929408e-06	4.868107e-09	1.382613e+01	3.186239e+02
2.360000e-06	1.781467e-06	4.713134e-09	1.276598e+01	3.084252e+02
2.370000e-06	1.632867e-06	4.553620e-09	1.170111e+01	2.978455e+02
2.380000e-06	1.483690e-06	4.388251e-09	1.063211e+01	2.868640e+02
2.390000e-06	1.334041e-06	4.217619e-09	9.559732e+00	2.754663e+02
2.400000e-06	1.184013e-06	4.038530e-09	8.484630e+00	2.636450e+02
2.410000e-06	1.033594e-06	3.851169e-09	7.406727e+00	2.513984e+02
2.420000e-06	8.828253e-07	3.658066e-09	6.326320e+00	2.387283e+02
2.430000e-06	7.317947e-07	3.456833e-09	5.244036e+00	2.256359e+02
2.440000e-06	5.805205e-07	3.251063e-09	4.160006e+00	2.121177e+02
2.450000e-06	4.291044e-07	3.040670e-09	3.074959e+00	1.981605e+02
2.460000e-06	2.775659e-07	2.821709e-09	1.989035e+00	1.837380e+02
2.470000e-06	1.258500e-07	2.589498e-09	9.018405e-01	1.688086e+02
2.480000e-06	-2.594962e-08	2.345205e-09	-1.859548e-01	1.533149e+02
2.490000e-06	-1.777645e-07	2.093864e-09	-1.273859e+00	1.371861e+02
2.500000e-06	-3.295434e-07	1.835074e-09	-2.361506e+00	1.203437e+02
2.510000e-06	-4.812144e-07	1.566679e-09	-3.448379e+00	1.027083e+02
2.520000e-06	-6.327853e-07	1.285604e-09	-4.534535e+00	8.420955e+01
2.530000e-06	-7.841937e-07	9.910055e-10	-5.619527e+00	6.479597e+01
2.540000e-06	-9.353243e-07	6.814230e-10	-6.702528e+00	4.444543e+01
2.550000e-06	-1.086152e-06	3.589401e-10	-7.783361e+00	2.317359e+01
2.560000e-06	-1.236600e-06	2.720122e-11	-8.861468e+00	1.040127e+00
2.570000e-06	-1.386565e-06	-3.172451e-10	-9.936117e+00	-2.184863e+01
2.580000e-06	-1.536048e-06	-6.773211e-10	-1.100731e+01	-4.534105e+01
2.590000e-06	-1.685000e-06	-1.048384e-09	-1.207470e+01	-6.924572e+01
2.600000e-06	-1.833312e-06	-1.421900e-09	-1.313750e+01	-9.334082e+01
2.610000e-06	-1.980875e-06	-1.794517e-09	-1.419494e+01	-1.173865e+02
2.620000e-06	-2.127654e-06	-2.162341e-09	-1.524676e+01	-1.411395e+02
2.630000e-06	-2.273585e-06	-2.518742e-09	-1.629250e+01	-1.643675e+02
2.640000e-06	-2.418647e-06	-2.859277e-09	-1.733201e+01	-1.868635e+02
2.650000e-06	-2.562840e-06	-3.183418e-09	-1.836529e+01	-2.084576e+02
2.660000e-06	-2.706066e-06	-3.493796e-09	-1.939165e+01	-2.290246e+02
2.670000e-06	-2.848271e-06	-3.789868e-09	-2.041069e+01	-2.484891e+02
2.680000e-06	-2.989361e-06	-4.070151e-09	-2.142174e+01	-2.668242e+02
2.690000e-06	-3.129209e-06	-4.333789e-09	-2.242389e+01	-2.840478e+02
2.700000e-06	-3.267793e-06	-4.580925e-09	-2.341699e+01	-3.002144e+02
2.710000e-06	-3.405106e-06	-4.813295e-09	-2.440097e+01	-3.154048e+02
2.720000e-06	-3.541127e-06	-5.033449e-09	-2.537569e+01	-3.297147e+02
2.730000e-06	-3.675901e-06	-5.244937e-09	-2.634148e+01	-3.432432e+02
2.740000e-06	-3.809313e-06	-5.447207e-09	-2.729751e+01	-3.560829e+02
2.750000e-06	-3.941270e-06	-5.638086e-09	-2.824311e+01	-3.683125e+02
2.760000e-06	-4.071856e-06	-5.816859e-09	-2.917889e+01	-3.799921e+02
2.770000e-06	-4.201107e-06	-5.985677e-09	-3.010510e+01	-3.911617e+02
2.780000e-06	-4.328940e-06	-6.146880e-09	-3.102116e+01	-4.018428e+02
2.790000e-06	-4.455278e-06	-6.300056e-09	-3.192649e+01	-4.120427e+02
2.800000e-06	-4.580050e-06	-6.445024e-09	-3.282061e+01	-4.217594e+02
2.810000e-06	-4.703201e-06	-6.582836e-09	-3.370311e+01	-4.309885e+02
2.820000e-06	-4.824677e-06	-6.714120e-09	-3.457361e+01	-4.397282e+02
2.830000e-06	-4.944363e-06	-6.840241e-09	-3.543127e+01	-4.479844e+02
2.840000e-06	-5.062146e-06	-6.962190e-09	-3.627531e+01	-4.557731e+02
2.850000e-06	-5.177909e-06	-7.078624e-09	-3.710486e+01	-4.631213e+02
2.860000e-06	-5.291558e-06	-7.187187e-09	-3.791927e+01	-4.700656e+02
2.870000e-06	-5.403074e-06	-7.286179e-09	-3.871839e+01	-4.766494e+02
2.880000e-06	-5.512565e-06	-7.380318e-09	-3.950300e+01	-4.829184e+02
2.890000e-06	-5.620166e-06	-7.472924e-09	-4.027407e+01	-4.889167e+02
2.900000e-06	-5.725872e-06	-7.561998e-09	-4.103156e+01	-4.946823e+02
2.910000e-06	-5.829506e-06	-7.646452e-09	-4.177420e+01	-5.002445e+02
2.920000e-06	-5.930886e-06	-7.726395e-09	-4.250069e+01	-5.056213e+02
2.930000e-06	-6.030040e-06	-7.804765e-09	-4.321123e+01	-5.108203e+02
2.940000e-06	-6.127086e-06	-7.881555e-09	-4.390666e+01	-5.158392e+02
