# Temperatura_=_65.19
# Concentracion g/m^3_=_10000.0
# C_Vs_to_Am_M_A/Vsm_=_65563218390.804596
# pendiente_HvsI_1/m_=_3716.3
# ordenada_HvsI_A/m_=_1297.0
# frecuencia_Hz_=_302623.00005145074

Tiempo_(s)	Campo_(V.s)	Magnetizacion_(V.s)	Campo_(kA/m)	Magnetizacion_(A/m)
0.000000e+00	-7.935483e-06	-1.027412e-08	-5.683723e+01	-6.737674e+02
1.000000e-08	-7.933287e-06	-1.027405e-08	-5.682150e+01	-6.734499e+02
2.000000e-08	-7.928382e-06	-1.026960e-08	-5.678637e+01	-6.730164e+02
3.000000e-08	-7.920908e-06	-1.026197e-08	-5.673283e+01	-6.724788e+02
4.000000e-08	-7.910603e-06	-1.025189e-08	-5.665903e+01	-6.718481e+02
5.000000e-08	-7.897376e-06	-1.023838e-08	-5.656429e+01	-6.711340e+02
6.000000e-08	-7.881260e-06	-1.022452e-08	-5.644885e+01	-6.703428e+02
7.000000e-08	-7.862597e-06	-1.021220e-08	-5.631518e+01	-6.694775e+02
8.000000e-08	-7.841689e-06	-1.021051e-08	-5.616544e+01	-6.685374e+02
9.000000e-08	-7.818134e-06	-1.023768e-08	-5.599672e+01	-6.675182e+02
1.000000e-07	-7.791385e-06	-1.022871e-08	-5.580513e+01	-6.664138e+02
1.100000e-07	-7.761528e-06	-1.016988e-08	-5.559129e+01	-6.652162e+02
1.200000e-07	-7.728859e-06	-1.012498e-08	-5.535730e+01	-6.639180e+02
1.300000e-07	-7.693459e-06	-1.009545e-08	-5.510375e+01	-6.625122e+02
1.400000e-07	-7.655621e-06	-1.005134e-08	-5.483273e+01	-6.609938e+02
1.500000e-07	-7.615636e-06	-1.000822e-08	-5.454635e+01	-6.593596e+02
1.600000e-07	-7.573367e-06	-1.004517e-08	-5.424360e+01	-6.576085e+02
1.700000e-07	-7.528486e-06	-1.000944e-08	-5.392215e+01	-6.557404e+02
1.800000e-07	-7.480946e-06	-9.944931e-09	-5.358164e+01	-6.537560e+02
1.900000e-07	-7.430529e-06	-9.958249e-09	-5.322053e+01	-6.516555e+02
2.000000e-07	-7.377071e-06	-9.887098e-09	-5.283764e+01	-6.494385e+02
2.100000e-07	-7.320853e-06	-9.838042e-09	-5.243499e+01	-6.471030e+02
2.200000e-07	-7.261975e-06	-9.814683e-09	-5.201328e+01	-6.446453e+02
2.300000e-07	-7.200460e-06	-9.774577e-09	-5.157268e+01	-6.420609e+02
2.400000e-07	-7.136317e-06	-9.754284e-09	-5.111326e+01	-6.393443e+02
2.500000e-07	-7.069440e-06	-9.697855e-09	-5.063426e+01	-6.364904e+02
2.600000e-07	-6.999914e-06	-9.649058e-09	-5.013629e+01	-6.334952e+02
2.700000e-07	-6.927694e-06	-9.599966e-09	-4.961902e+01	-6.303566e+02
2.800000e-07	-6.852666e-06	-9.545243e-09	-4.908164e+01	-6.270749e+02
2.900000e-07	-6.774826e-06	-9.491392e-09	-4.852412e+01	-6.236526e+02
3.000000e-07	-6.694243e-06	-9.458856e-09	-4.794695e+01	-6.200947e+02
3.100000e-07	-6.611255e-06	-9.422419e-09	-4.735256e+01	-6.164070e+02
3.200000e-07	-6.526024e-06	-9.332861e-09	-4.674209e+01	-6.125959e+02
3.300000e-07	-6.438461e-06	-9.270548e-09	-4.611493e+01	-6.086666e+02
3.400000e-07	-6.348579e-06	-9.218031e-09	-4.547116e+01	-6.046224e+02
3.500000e-07	-6.256387e-06	-9.144125e-09	-4.481084e+01	-6.004638e+02
3.600000e-07	-6.161962e-06	-9.076616e-09	-4.413453e+01	-5.961878e+02
3.700000e-07	-6.065343e-06	-9.025886e-09	-4.344251e+01	-5.917883e+02
3.800000e-07	-5.966507e-06	-8.965849e-09	-4.273460e+01	-5.872570e+02
3.900000e-07	-5.865502e-06	-8.876941e-09	-4.201116e+01	-5.825837e+02
4.000000e-07	-5.762366e-06	-8.799463e-09	-4.127246e+01	-5.777583e+02
4.100000e-07	-5.657161e-06	-8.729348e-09	-4.051894e+01	-5.727717e+02
4.200000e-07	-5.549936e-06	-8.650733e-09	-3.975095e+01	-5.676173e+02
4.300000e-07	-5.440794e-06	-8.562266e-09	-3.896923e+01	-5.622909e+02
4.400000e-07	-5.329777e-06	-8.489381e-09	-3.817407e+01	-5.567920e+02
4.500000e-07	-5.216726e-06	-8.417199e-09	-3.736436e+01	-5.511224e+02
4.600000e-07	-5.101559e-06	-8.315965e-09	-3.653948e+01	-5.452857e+02
4.700000e-07	-4.984422e-06	-8.210678e-09	-3.570050e+01	-5.392857e+02
4.800000e-07	-4.865518e-06	-8.123188e-09	-3.484886e+01	-5.331253e+02
4.900000e-07	-4.744822e-06	-8.036626e-09	-3.398439e+01	-5.268045e+02
5.000000e-07	-4.622356e-06	-7.935324e-09	-3.310723e+01	-5.203200e+02
5.100000e-07	-4.498205e-06	-7.834473e-09	-3.221801e+01	-5.136645e+02
5.200000e-07	-4.372452e-06	-7.730340e-09	-3.131731e+01	-5.068266e+02
5.300000e-07	-4.245135e-06	-7.613917e-09	-3.040542e+01	-4.997923e+02
5.400000e-07	-4.116237e-06	-7.492943e-09	-2.948220e+01	-4.925462e+02
5.500000e-07	-3.985870e-06	-7.380122e-09	-2.854845e+01	-4.850728e+02
5.600000e-07	-3.854002e-06	-7.268718e-09	-2.760396e+01	-4.773590e+02
5.700000e-07	-3.720633e-06	-7.149803e-09	-2.664872e+01	-4.693951e+02
5.800000e-07	-3.585901e-06	-7.025381e-09	-2.568371e+01	-4.611760e+02
5.900000e-07	-3.449777e-06	-6.897052e-09	-2.470873e+01	-4.527007e+02
6.000000e-07	-3.312279e-06	-6.763711e-09	-2.372392e+01	-4.439721e+02
6.100000e-07	-3.173481e-06	-6.623422e-09	-2.272979e+01	-4.349954e+02
6.200000e-07	-3.033323e-06	-6.481131e-09	-2.172592e+01	-4.257757e+02
6.300000e-07	-2.891841e-06	-6.337236e-09	-2.071256e+01	-4.163157e+02
6.400000e-07	-2.749194e-06	-6.189874e-09	-1.969087e+01	-4.066136e+02
6.500000e-07	-2.605495e-06	-6.037678e-09	-1.866164e+01	-3.966616e+02
6.600000e-07	-2.460802e-06	-5.880369e-09	-1.762529e+01	-3.864448e+02
6.700000e-07	-2.315231e-06	-5.715330e-09	-1.658265e+01	-3.759418e+02
6.800000e-07	-2.168906e-06	-5.545709e-09	-1.553460e+01	-3.651260e+02
6.900000e-07	-2.021836e-06	-5.374550e-09	-1.448123e+01	-3.539679e+02
7.000000e-07	-1.874092e-06	-5.199180e-09	-1.342303e+01	-3.424382e+02
7.100000e-07	-1.725787e-06	-5.019709e-09	-1.236080e+01	-3.305105e+02
7.200000e-07	-1.576996e-06	-4.831119e-09	-1.129510e+01	-3.181644e+02
7.300000e-07	-1.427773e-06	-4.636087e-09	-1.022631e+01	-3.053866e+02
7.400000e-07	-1.278078e-06	-4.436591e-09	-9.154124e+00	-2.921712e+02
7.500000e-07	-1.127955e-06	-4.231402e-09	-8.078884e+00	-2.785186e+02
7.600000e-07	-9.774714e-07	-4.022128e-09	-7.001056e+00	-2.644321e+02
7.700000e-07	-8.266280e-07	-3.805443e-09	-5.920653e+00	-2.499139e+02
7.800000e-07	-6.754624e-07	-3.578331e-09	-4.837942e+00	-2.349597e+02
7.900000e-07	-5.240266e-07	-3.342289e-09	-3.753296e+00	-2.195540e+02
8.000000e-07	-3.723980e-07	-3.099814e-09	-2.667269e+00	-2.036655e+02
8.100000e-07	-2.206181e-07	-2.845698e-09	-1.580159e+00	-1.872448e+02
8.200000e-07	-6.869889e-08	-2.580413e-09	-4.920500e-01	-1.702242e+02
8.300000e-07	8.329560e-08	-2.307779e-09	5.965977e-01	-1.525203e+02
8.400000e-07	2.352624e-07	-2.027386e-09	1.685047e+00	-1.340395e+02
8.500000e-07	3.871607e-07	-1.736039e-09	2.773005e+00	-1.146865e+02
8.600000e-07	5.389791e-07	-1.428491e-09	3.860392e+00	-9.437463e+01
8.700000e-07	6.906279e-07	-1.106097e-09	4.946564e+00	-7.303730e+01
8.800000e-07	8.420540e-07	-7.676390e-10	6.031141e+00	-5.063911e+01
8.900000e-07	9.931940e-07	-4.107832e-10	7.113668e+00	-2.718588e+01
9.000000e-07	1.143967e-06	-3.980885e-11	8.193568e+00	-2.731750e+00
9.100000e-07	1.294316e-06	3.434931e-10	9.270427e+00	2.261722e+01
9.200000e-07	1.444165e-06	7.405904e-10	1.034371e+01	4.870386e+01
9.300000e-07	1.593490e-06	1.149545e-09	1.141324e+01	7.532512e+01
9.400000e-07	1.742287e-06	1.563603e-09	1.247898e+01	1.022416e+02
9.500000e-07	1.890532e-06	1.976450e-09	1.354077e+01	1.291906e+02
9.600000e-07	2.038146e-06	2.384904e-09	1.459805e+01	1.559009e+02
9.700000e-07	2.185037e-06	2.786006e-09	1.565014e+01	1.821096e+02
9.800000e-07	2.331087e-06	3.175033e-09	1.669621e+01	2.075770e+02
9.900000e-07	2.476216e-06	3.545155e-09	1.773569e+01	2.321001e+02
1.000000e-06	2.620429e-06	3.898397e-09	1.876860e+01	2.555226e+02
1.010000e-06	2.763618e-06	4.234044e-09	1.979418e+01	2.777410e+02
1.020000e-06	2.905671e-06	4.550049e-09	2.081162e+01	2.987055e+02
1.030000e-06	3.046591e-06	4.847360e-09	2.182095e+01	3.184168e+02
1.040000e-06	3.186290e-06	5.127432e-09	2.282153e+01	3.369194e+02
1.050000e-06	3.324690e-06	5.391111e-09	2.381281e+01	3.542914e+02
1.060000e-06	3.461790e-06	5.638659e-09	2.479478e+01	3.706327e+02
1.070000e-06	3.597579e-06	5.874824e-09	2.576736e+01	3.860533e+02
1.080000e-06	3.732052e-06	6.102073e-09	2.673050e+01	4.006621e+02
1.090000e-06	3.865232e-06	6.317389e-09	2.768439e+01	4.145576e+02
1.100000e-06	3.997046e-06	6.520353e-09	2.862850e+01	4.278216e+02
1.110000e-06	4.127333e-06	6.712725e-09	2.956167e+01	4.405161e+02
1.120000e-06	4.256146e-06	6.895344e-09	3.048429e+01	4.526828e+02
1.130000e-06	4.383544e-06	7.069268e-09	3.139676e+01	4.643454e+02
1.140000e-06	4.509445e-06	7.236685e-09	3.229852e+01	4.755139e+02
1.150000e-06	4.633828e-06	7.399980e-09	3.318940e+01	4.861903e+02
1.160000e-06	4.756663e-06	7.555936e-09	3.406920e+01	4.963738e+02
1.170000e-06	4.877778e-06	7.702976e-09	3.493667e+01	5.060658e+02
1.180000e-06	4.997091e-06	7.841270e-09	3.579124e+01	5.152737e+02
1.190000e-06	5.114537e-06	7.974971e-09	3.663244e+01	5.240130e+02
1.200000e-06	5.229966e-06	8.104998e-09	3.745919e+01	5.323071e+02
1.210000e-06	5.343379e-06	8.227993e-09	3.827150e+01	5.401868e+02
1.220000e-06	5.454784e-06	8.344161e-09	3.906943e+01	5.476870e+02
1.230000e-06	5.564254e-06	8.454695e-09	3.985350e+01	5.548444e+02
1.240000e-06	5.671820e-06	8.560249e-09	4.062393e+01	5.616936e+02
1.250000e-06	5.777340e-06	8.661517e-09	4.137971e+01	5.682648e+02
1.260000e-06	5.880676e-06	8.759866e-09	4.211984e+01	5.745817e+02
1.270000e-06	5.981866e-06	8.852813e-09	4.284461e+01	5.806611e+02
1.280000e-06	6.080899e-06	8.938394e-09	4.355393e+01	5.865126e+02
1.290000e-06	6.177589e-06	9.020758e-09	4.424646e+01	5.921405e+02
1.300000e-06	6.271974e-06	9.101557e-09	4.492248e+01	5.975457e+02
1.310000e-06	6.364152e-06	9.179439e-09	4.558270e+01	6.027276e+02
1.320000e-06	6.454017e-06	9.253441e-09	4.622635e+01	6.076866e+02
1.330000e-06	6.541529e-06	9.323386e-09	4.685314e+01	6.124252e+02
1.340000e-06	6.626797e-06	9.390775e-09	4.746387e+01	6.169495e+02
1.350000e-06	6.709777e-06	9.458033e-09	4.805821e+01	6.212685e+02
1.360000e-06	6.790319e-06	9.524767e-09	4.863508e+01	6.253940e+02
1.370000e-06	6.868387e-06	9.587329e-09	4.919424e+01	6.293384e+02
1.380000e-06	6.943889e-06	9.644251e-09	4.973502e+01	6.331137e+02
1.390000e-06	7.016710e-06	9.697823e-09	5.025659e+01	6.367292e+02
1.400000e-06	7.086986e-06	9.750929e-09	5.075994e+01	6.401908e+02
1.410000e-06	7.154825e-06	9.803236e-09	5.124583e+01	6.434996e+02
1.420000e-06	7.220073e-06	9.851502e-09	5.171316e+01	6.466524e+02
1.430000e-06	7.282716e-06	9.894681e-09	5.216184e+01	6.496423e+02
1.440000e-06	7.342924e-06	9.934797e-09	5.259307e+01	6.524602e+02
1.450000e-06	7.400642e-06	9.973556e-09	5.300647e+01	6.550968e+02
1.460000e-06	7.455674e-06	1.001182e-08	5.340063e+01	6.575441e+02
1.470000e-06	7.507813e-06	1.004773e-08	5.377408e+01	6.597977e+02
1.480000e-06	7.556922e-06	1.008030e-08	5.412581e+01	6.618576e+02
1.490000e-06	7.603147e-06	1.010740e-08	5.445690e+01	6.637289e+02
1.500000e-06	7.646691e-06	1.013085e-08	5.476878e+01	6.654218e+02
1.510000e-06	7.687499e-06	1.015437e-08	5.506106e+01	6.669501e+02
1.520000e-06	7.725572e-06	1.017858e-08	5.533375e+01	6.683301e+02
1.530000e-06	7.760986e-06	1.020202e-08	5.558740e+01	6.695781e+02
1.540000e-06	7.793555e-06	1.022174e-08	5.582068e+01	6.707091e+02
1.550000e-06	7.823354e-06	1.023722e-08	5.603411e+01	6.717344e+02
1.560000e-06	7.850469e-06	1.024973e-08	5.622832e+01	6.726610e+02
1.570000e-06	7.874663e-06	1.026114e-08	5.640161e+01	6.734907e+02
1.580000e-06	7.895992e-06	1.027304e-08	5.655438e+01	6.742208e+02
1.590000e-06	7.914575e-06	1.028480e-08	5.668747e+01	6.748447e+02
1.600000e-06	7.930283e-06	1.029399e-08	5.679998e+01	6.753534e+02
1.610000e-06	7.942975e-06	1.029910e-08	5.689089e+01	6.757379e+02
1.620000e-06	7.952535e-06	1.030232e-08	5.695936e+01	6.759901e+02
1.630000e-06	7.959122e-06	1.030686e-08	5.700654e+01	6.761051e+02
1.640000e-06	7.962989e-06	1.031060e-08	5.703423e+01	6.760816e+02
1.650000e-06	7.964003e-06	1.031100e-08	5.704150e+01	6.759226e+02
1.660000e-06	7.962250e-06	1.030510e-08	5.702895e+01	6.756351e+02
1.670000e-06	7.957932e-06	1.029855e-08	5.699801e+01	6.752289e+02
1.680000e-06	7.950874e-06	1.029405e-08	5.694746e+01	6.747155e+02
1.690000e-06	7.941097e-06	1.028658e-08	5.687744e+01	6.741065e+02
1.700000e-06	7.928607e-06	1.027618e-08	5.678798e+01	6.734118e+02
1.710000e-06	7.913377e-06	1.026582e-08	5.667889e+01	6.726387e+02
1.720000e-06	7.895698e-06	1.025476e-08	5.655227e+01	6.717912e+02
1.730000e-06	7.875742e-06	1.021272e-08	5.640933e+01	6.708694e+02
1.740000e-06	7.853169e-06	1.014301e-08	5.624766e+01	6.698699e+02
1.750000e-06	7.827332e-06	1.013761e-08	5.606260e+01	6.687867e+02
1.760000e-06	7.797839e-06	1.015741e-08	5.585136e+01	6.676125e+02
1.770000e-06	7.765105e-06	1.014751e-08	5.561691e+01	6.663394e+02
1.780000e-06	7.729938e-06	1.015281e-08	5.536502e+01	6.649604e+02
1.790000e-06	7.692508e-06	1.016864e-08	5.509694e+01	6.634698e+02
1.800000e-06	7.652911e-06	1.009768e-08	5.481333e+01	6.618641e+02
1.810000e-06	7.611204e-06	1.006136e-08	5.451460e+01	6.601416e+02
1.820000e-06	7.566936e-06	1.006292e-08	5.419754e+01	6.583020e+02
1.830000e-06	7.520057e-06	9.997936e-09	5.386177e+01	6.563459e+02
1.840000e-06	7.470494e-06	1.002102e-08	5.350678e+01	6.542738e+02
1.850000e-06	7.417905e-06	9.972595e-09	5.313012e+01	6.520854e+02
1.860000e-06	7.362404e-06	9.917963e-09	5.273260e+01	6.497791e+02
1.870000e-06	7.304220e-06	9.908051e-09	5.231586e+01	6.473517e+02
1.880000e-06	7.243473e-06	9.809670e-09	5.188076e+01	6.447988e+02
1.890000e-06	7.179947e-06	9.800478e-09	5.142576e+01	6.421150e+02
1.900000e-06	7.113575e-06	9.767909e-09	5.095038e+01	6.392952e+02
1.910000e-06	7.044522e-06	9.714242e-09	5.045579e+01	6.363349e+02
1.920000e-06	6.972659e-06	9.685631e-09	4.994108e+01	6.332316e+02
1.930000e-06	6.898115e-06	9.625115e-09	4.940717e+01	6.299848e+02
1.940000e-06	6.820871e-06	9.574658e-09	4.885391e+01	6.265966e+02
1.950000e-06	6.740916e-06	9.477374e-09	4.828124e+01	6.230714e+02
1.960000e-06	6.658518e-06	9.450373e-09	4.769107e+01	6.194149e+02
1.970000e-06	6.573672e-06	9.410981e-09	4.708337e+01	6.156334e+02
1.980000e-06	6.486326e-06	9.340133e-09	4.645776e+01	6.117325e+02
1.990000e-06	6.396611e-06	9.304586e-09	4.581518e+01	6.077163e+02
2.000000e-06	6.304742e-06	9.231410e-09	4.515718e+01	6.035857e+02
2.010000e-06	6.210677e-06	9.144559e-09	4.448345e+01	5.993388e+02
2.020000e-06	6.114346e-06	9.048407e-09	4.379349e+01	5.949702e+02
2.030000e-06	6.015817e-06	8.999582e-09	4.308778e+01	5.904721e+02
2.040000e-06	5.915135e-06	8.949670e-09	4.236665e+01	5.858346e+02
2.050000e-06	5.812313e-06	8.880361e-09	4.163020e+01	5.810474e+02
2.060000e-06	5.707444e-06	8.803526e-09	4.087909e+01	5.761012e+02
2.070000e-06	5.600693e-06	8.721412e-09	4.011449e+01	5.709885e+02
2.080000e-06	5.492036e-06	8.629311e-09	3.933624e+01	5.657047e+02
2.090000e-06	5.381363e-06	8.528372e-09	3.854356e+01	5.602482e+02
2.100000e-06	5.268669e-06	8.460550e-09	3.773640e+01	5.546203e+02
2.110000e-06	5.153970e-06	8.387349e-09	3.691487e+01	5.488243e+02
2.120000e-06	5.037232e-06	8.292985e-09	3.607874e+01	5.428641e+02
2.130000e-06	4.918585e-06	8.191103e-09	3.522895e+01	5.367429e+02
2.140000e-06	4.798102e-06	8.101126e-09	3.436600e+01	5.304617e+02
2.150000e-06	4.675872e-06	7.999962e-09	3.349054e+01	5.240180e+02
2.160000e-06	4.551976e-06	7.890706e-09	3.260314e+01	5.174055e+02
2.170000e-06	4.426409e-06	7.790307e-09	3.170378e+01	5.106137e+02
2.180000e-06	4.299239e-06	7.694747e-09	3.079294e+01	5.036293e+02
2.190000e-06	4.170415e-06	7.587883e-09	2.987024e+01	4.964369e+02
2.200000e-06	4.040054e-06	7.469653e-09	2.893655e+01	4.890210e+02
2.210000e-06	3.908221e-06	7.350365e-09	2.799231e+01	4.813677e+02
2.220000e-06	3.774904e-06	7.224458e-09	2.703743e+01	4.734664e+02
2.230000e-06	3.640208e-06	7.096940e-09	2.607268e+01	4.653106e+02
2.240000e-06	3.504157e-06	6.972889e-09	2.509823e+01	4.568985e+02
2.250000e-06	3.366750e-06	6.854940e-09	2.411406e+01	4.482321e+02
2.260000e-06	3.228103e-06	6.723757e-09	2.312102e+01	4.393163e+02
2.270000e-06	3.088238e-06	6.580505e-09	2.211924e+01	4.301562e+02
2.280000e-06	2.947094e-06	6.432041e-09	2.110831e+01	4.207556e+02
2.290000e-06	2.804753e-06	6.282703e-09	2.008881e+01	4.111138e+02
2.300000e-06	2.661332e-06	6.132348e-09	1.906156e+01	4.012247e+02
2.310000e-06	2.516975e-06	5.982618e-09	1.802762e+01	3.910752e+02
2.320000e-06	2.371812e-06	5.830345e-09	1.698790e+01	3.806454e+02
2.330000e-06	2.225885e-06	5.664164e-09	1.594271e+01	3.699098e+02
2.340000e-06	2.079221e-06	5.489740e-09	1.489225e+01	3.588394e+02
2.350000e-06	1.931873e-06	5.312369e-09	1.383688e+01	3.474046e+02
2.360000e-06	1.783818e-06	5.133870e-09	1.277645e+01	3.355779e+02
2.370000e-06	1.635105e-06	4.948448e-09	1.171130e+01	3.233373e+02
2.380000e-06	1.485883e-06	4.754451e-09	1.064251e+01	3.106675e+02
2.390000e-06	1.336215e-06	4.557545e-09	9.570525e+00	2.975610e+02
2.400000e-06	1.186153e-06	4.353373e-09	8.495717e+00	2.840167e+02
2.410000e-06	1.035764e-06	4.138409e-09	7.418569e+00	2.700377e+02
2.420000e-06	8.849756e-07	3.914589e-09	6.338563e+00	2.556268e+02
2.430000e-06	7.338479e-07	3.684793e-09	5.256124e+00	2.407819e+02
2.440000e-06	5.825101e-07	3.452021e-09	4.172179e+00	2.254906e+02
2.450000e-06	4.309682e-07	3.214970e-09	3.086773e+00	2.097260e+02
2.460000e-06	2.792536e-07	2.970433e-09	2.000130e+00	1.934434e+02
2.470000e-06	1.273817e-07	2.711551e-09	9.123607e-01	1.765794e+02
2.480000e-06	-2.458098e-08	2.436321e-09	-1.760592e-01	1.590541e+02
2.490000e-06	-1.765525e-07	2.148926e-09	-1.264542e+00	1.407758e+02
2.500000e-06	-3.285079e-07	1.852869e-09	-2.352910e+00	1.216488e+02
2.510000e-06	-4.803781e-07	1.548180e-09	-3.440668e+00	1.015833e+02
2.520000e-06	-6.320836e-07	1.231405e-09	-4.527245e+00	8.050636e+01
2.530000e-06	-7.835808e-07	8.992420e-10	-5.612331e+00	5.837392e+01
2.540000e-06	-9.347517e-07	5.484178e-10	-6.695080e+00	3.518067e+01
2.550000e-06	-1.085549e-06	1.823368e-10	-7.775153e+00	1.096819e+01
2.560000e-06	-1.235967e-06	-1.970807e-10	-8.852506e+00	-1.417055e+01
2.570000e-06	-1.385933e-06	-5.916690e-10	-9.926626e+00	-4.009082e+01
2.580000e-06	-1.535439e-06	-9.997649e-10	-1.099745e+01	-6.660034e+01
2.590000e-06	-1.684429e-06	-1.417784e-09	-1.206458e+01	-9.346768e+01
2.600000e-06	-1.832806e-06	-1.835323e-09	-1.312732e+01	-1.204346e+02
2.610000e-06	-1.980511e-06	-2.248668e-09	-1.418524e+01	-1.472305e+02
2.620000e-06	-2.127464e-06	-2.655587e-09	-1.523778e+01	-1.735889e+02
2.630000e-06	-2.273534e-06	-3.050627e-09	-1.628400e+01	-1.992630e+02
2.640000e-06	-2.418733e-06	-3.428672e-09	-1.732397e+01	-2.240394e+02
2.650000e-06	-2.563040e-06	-3.786295e-09	-1.835755e+01	-2.477496e+02
2.660000e-06	-2.706296e-06	-4.124254e-09	-1.938362e+01	-2.702765e+02
2.670000e-06	-2.848511e-06	-4.444174e-09	-2.040222e+01	-2.915569e+02
2.680000e-06	-2.989596e-06	-4.748599e-09	-2.141273e+01	-3.115795e+02
2.690000e-06	-3.129481e-06	-5.035918e-09	-2.241465e+01	-3.303788e+02
2.700000e-06	-3.268131e-06	-5.306131e-09	-2.340771e+01	-3.480254e+02
2.710000e-06	-3.405505e-06	-5.560829e-09	-2.439164e+01	-3.646149e+02
2.720000e-06	-3.541642e-06	-5.803736e-09	-2.536671e+01	-3.802560e+02
2.730000e-06	-3.676463e-06	-6.037139e-09	-2.633235e+01	-3.950587e+02
2.740000e-06	-3.809936e-06	-6.258253e-09	-2.728835e+01	-4.091247e+02
2.750000e-06	-3.942059e-06	-6.466708e-09	-2.823467e+01	-4.225407e+02
2.760000e-06	-4.072752e-06	-6.663354e-09	-2.917074e+01	-4.353736e+02
2.770000e-06	-4.202038e-06	-6.849054e-09	-3.009674e+01	-4.476701e+02
2.780000e-06	-4.329924e-06	-7.026111e-09	-3.101272e+01	-4.594579e+02
2.790000e-06	-4.456301e-06	-7.194748e-09	-3.191788e+01	-4.707503e+02
2.800000e-06	-4.581120e-06	-7.355125e-09	-3.281189e+01	-4.815505e+02
2.810000e-06	-4.704308e-06	-7.509028e-09	-3.369421e+01	-4.918579e+02
2.820000e-06	-4.825846e-06	-7.658071e-09	-3.456471e+01	-5.016730e+02
2.830000e-06	-4.945652e-06	-7.801171e-09	-3.542282e+01	-5.110015e+02
2.840000e-06	-5.063525e-06	-7.938185e-09	-3.626707e+01	-5.198567e+02
2.850000e-06	-5.179344e-06	-8.069143e-09	-3.709661e+01	-5.282602e+02
2.860000e-06	-5.293079e-06	-8.192697e-09	-3.791123e+01	-5.362410e+02
2.870000e-06	-5.404717e-06	-8.307314e-09	-3.871083e+01	-5.438333e+02
2.880000e-06	-5.514288e-06	-8.414922e-09	-3.949562e+01	-5.510737e+02
2.890000e-06	-5.621953e-06	-8.520947e-09	-4.026676e+01	-5.579976e+02
2.900000e-06	-5.727731e-06	-8.624751e-09	-4.102439e+01	-5.646365e+02
2.910000e-06	-5.831458e-06	-8.723895e-09	-4.176732e+01	-5.710158e+02
2.920000e-06	-5.932964e-06	-8.816575e-09	-4.249435e+01	-5.771541e+02
2.930000e-06	-6.032203e-06	-8.905091e-09	-4.320514e+01	-5.830626e+02
2.940000e-06	-6.129284e-06	-8.990580e-09	-4.390048e+01	-5.887470e+02
