# Temperatura_=_64.63
# Concentracion g/m^3_=_10000.0
# C_Vs_to_Am_M_A/Vsm_=_65563218390.804596
# pendiente_HvsI_1/m_=_3716.3
# ordenada_HvsI_A/m_=_1297.0
# frecuencia_Hz_=_302620.4847797311

Tiempo_(s)	Campo_(V.s)	Magnetizacion_(V.s)	Campo_(kA/m)	Magnetizacion_(A/m)
0.000000e+00	-7.876941e-06	-1.013123e-08	-5.681537e+01	-6.635733e+02
1.000000e-08	-7.872360e-06	-1.012953e-08	-5.678233e+01	-6.631567e+02
2.000000e-08	-7.865234e-06	-1.012225e-08	-5.673093e+01	-6.626270e+02
3.000000e-08	-7.855406e-06	-1.011279e-08	-5.666005e+01	-6.619979e+02
4.000000e-08	-7.842794e-06	-1.009996e-08	-5.656908e+01	-6.612833e+02
5.000000e-08	-7.827235e-06	-1.008427e-08	-5.645685e+01	-6.604954e+02
6.000000e-08	-7.809011e-06	-1.007127e-08	-5.632540e+01	-6.596435e+02
7.000000e-08	-7.788596e-06	-1.005847e-08	-5.617815e+01	-6.587330e+02
8.000000e-08	-7.765628e-06	-1.007753e-08	-5.601248e+01	-6.577652e+02
9.000000e-08	-7.739531e-06	-1.011172e-08	-5.582425e+01	-6.567373e+02
1.000000e-07	-7.710277e-06	-1.005505e-08	-5.561325e+01	-6.556428e+02
1.100000e-07	-7.678217e-06	-9.986507e-09	-5.538200e+01	-6.544729e+02
1.200000e-07	-7.643439e-06	-9.955376e-09	-5.513115e+01	-6.532169e+02
1.300000e-07	-7.606087e-06	-9.915086e-09	-5.486174e+01	-6.518638e+02
1.400000e-07	-7.566631e-06	-9.872865e-09	-5.457715e+01	-6.504033e+02
1.500000e-07	-7.525022e-06	-9.898059e-09	-5.427703e+01	-6.488258e+02
1.600000e-07	-7.480795e-06	-9.919605e-09	-5.395802e+01	-6.471236e+02
1.700000e-07	-7.433923e-06	-9.815448e-09	-5.361994e+01	-6.452905e+02
1.800000e-07	-7.384335e-06	-9.803526e-09	-5.326227e+01	-6.433220e+02
1.900000e-07	-7.331644e-06	-9.774455e-09	-5.288221e+01	-6.412149e+02
2.000000e-07	-7.276137e-06	-9.689389e-09	-5.248185e+01	-6.389670e+02
2.100000e-07	-7.218069e-06	-9.689743e-09	-5.206302e+01	-6.365770e+02
2.200000e-07	-7.157351e-06	-9.643716e-09	-5.162506e+01	-6.340443e+02
2.300000e-07	-7.094077e-06	-9.615875e-09	-5.116868e+01	-6.313692e+02
2.400000e-07	-7.028040e-06	-9.574901e-09	-5.069236e+01	-6.285527e+02
2.500000e-07	-6.959294e-06	-9.514307e-09	-5.019650e+01	-6.255968e+02
2.600000e-07	-6.887965e-06	-9.482155e-09	-4.968201e+01	-6.225046e+02
2.700000e-07	-6.813847e-06	-9.429531e-09	-4.914741e+01	-6.192802e+02
2.800000e-07	-6.737014e-06	-9.378522e-09	-4.859322e+01	-6.159284e+02
2.900000e-07	-6.657430e-06	-9.329119e-09	-4.801919e+01	-6.124545e+02
3.000000e-07	-6.575226e-06	-9.300057e-09	-4.742627e+01	-6.088634e+02
3.100000e-07	-6.490754e-06	-9.224681e-09	-4.681698e+01	-6.051590e+02
3.200000e-07	-6.404062e-06	-9.136525e-09	-4.619169e+01	-6.013435e+02
3.300000e-07	-6.315143e-06	-9.095518e-09	-4.555032e+01	-5.974168e+02
3.400000e-07	-6.223914e-06	-9.027956e-09	-4.489230e+01	-5.933761e+02
3.500000e-07	-6.130462e-06	-8.966532e-09	-4.421824e+01	-5.892160e+02
3.600000e-07	-6.034838e-06	-8.912628e-09	-4.352852e+01	-5.849289e+02
3.700000e-07	-5.936929e-06	-8.852944e-09	-4.282231e+01	-5.805056e+02
3.800000e-07	-5.836848e-06	-8.770988e-09	-4.210044e+01	-5.759365e+02
3.900000e-07	-5.734774e-06	-8.685997e-09	-4.136420e+01	-5.712123e+02
4.000000e-07	-5.630669e-06	-8.619334e-09	-4.061330e+01	-5.663258e+02
4.100000e-07	-5.524491e-06	-8.545458e-09	-3.984745e+01	-5.612718e+02
4.200000e-07	-5.416348e-06	-8.470361e-09	-3.906743e+01	-5.560484e+02
4.300000e-07	-5.306389e-06	-8.390906e-09	-3.827431e+01	-5.506561e+02
4.400000e-07	-5.194532e-06	-8.316276e-09	-3.746750e+01	-5.450981e+02
4.500000e-07	-5.080560e-06	-8.222506e-09	-3.664543e+01	-5.393783e+02
4.600000e-07	-4.964493e-06	-8.119230e-09	-3.580825e+01	-5.335010e+02
4.700000e-07	-4.846576e-06	-8.028666e-09	-3.495773e+01	-5.274685e+02
4.800000e-07	-4.726917e-06	-7.942584e-09	-3.409465e+01	-5.212805e+02
4.900000e-07	-4.605589e-06	-7.847882e-09	-3.321953e+01	-5.149332e+02
5.000000e-07	-4.482564e-06	-7.746105e-09	-3.233216e+01	-5.084183e+02
5.100000e-07	-4.357875e-06	-7.642921e-09	-3.143280e+01	-5.017240e+02
5.200000e-07	-4.231628e-06	-7.532302e-09	-3.052219e+01	-4.948358e+02
5.300000e-07	-4.103831e-06	-7.418652e-09	-2.960041e+01	-4.877373e+02
5.400000e-07	-3.974565e-06	-7.305679e-09	-2.866803e+01	-4.804130e+02
5.500000e-07	-3.843750e-06	-7.195385e-09	-2.772448e+01	-4.728492e+02
5.600000e-07	-3.711389e-06	-7.080450e-09	-2.676977e+01	-4.650358e+02
5.700000e-07	-3.577714e-06	-6.957901e-09	-2.580560e+01	-4.569673e+02
5.800000e-07	-3.442768e-06	-6.829158e-09	-2.483225e+01	-4.486428e+02
5.900000e-07	-3.306537e-06	-6.697587e-09	-2.384963e+01	-4.400658e+02
6.000000e-07	-3.169078e-06	-6.562910e-09	-2.285816e+01	-4.312419e+02
6.100000e-07	-3.030258e-06	-6.423424e-09	-2.185686e+01	-4.221777e+02
6.200000e-07	-2.890038e-06	-6.282427e-09	-2.084547e+01	-4.128778e+02
6.300000e-07	-2.748617e-06	-6.138288e-09	-1.982542e+01	-4.033427e+02
6.400000e-07	-2.606164e-06	-5.988829e-09	-1.879793e+01	-3.935671e+02
6.500000e-07	-2.462671e-06	-5.833889e-09	-1.776293e+01	-3.835390e+02
6.600000e-07	-2.318223e-06	-5.674085e-09	-1.672105e+01	-3.732393e+02
6.700000e-07	-2.173001e-06	-5.510332e-09	-1.567358e+01	-3.626431e+02
6.800000e-07	-2.027019e-06	-5.341871e-09	-1.462063e+01	-3.517219e+02
6.900000e-07	-1.880290e-06	-5.169577e-09	-1.356229e+01	-3.404460e+02
7.000000e-07	-1.732937e-06	-4.992167e-09	-1.249946e+01	-3.287879e+02
7.100000e-07	-1.585105e-06	-4.805064e-09	-1.143316e+01	-3.167247e+02
7.200000e-07	-1.436837e-06	-4.613061e-09	-1.036372e+01	-3.042401e+02
7.300000e-07	-1.288118e-06	-4.419456e-09	-9.291029e+00	-2.913250e+02
7.400000e-07	-1.138971e-06	-4.220379e-09	-8.215250e+00	-2.779771e+02
7.500000e-07	-9.894564e-07	-4.016552e-09	-7.136823e+00	-2.641979e+02
7.600000e-07	-8.396507e-07	-3.806394e-09	-6.056293e+00	-2.499896e+02
7.700000e-07	-6.895604e-07	-3.585796e-09	-4.973711e+00	-2.353500e+02
7.800000e-07	-5.392112e-07	-3.355314e-09	-3.889262e+00	-2.202677e+02
7.900000e-07	-3.886831e-07	-3.115537e-09	-2.803522e+00	-2.047180e+02
8.000000e-07	-2.380151e-07	-2.865775e-09	-1.716773e+00	-1.886592e+02
8.100000e-07	-8.721054e-08	-2.607641e-09	-6.290385e-01	-1.720323e+02
8.200000e-07	6.364038e-08	-2.342331e-09	4.590300e-01	-1.547624e+02
8.300000e-07	2.144900e-07	-2.069717e-09	1.547089e+00	-1.367628e+02
8.400000e-07	3.652843e-07	-1.785445e-09	2.634749e+00	-1.179425e+02
8.500000e-07	5.159317e-07	-1.485163e-09	3.721350e+00	-9.821559e+01
8.600000e-07	6.664307e-07	-1.169878e-09	4.806880e+00	-7.751147e+01
8.700000e-07	8.167344e-07	-8.412635e-10	5.891001e+00	-5.578630e+01
8.800000e-07	9.668112e-07	-4.979088e-10	6.973486e+00	-3.303283e+01
8.900000e-07	1.116619e-06	-1.402822e-10	8.054031e+00	-9.288340e+00
9.000000e-07	1.266029e-06	2.320890e-10	9.131703e+00	1.536064e+01
9.100000e-07	1.414970e-06	6.196682e-10	1.020600e+01	4.077760e+01
9.200000e-07	1.563440e-06	1.019095e-09	1.127689e+01	6.677961e+01
9.300000e-07	1.711355e-06	1.426506e-09	1.234379e+01	9.314504e+01
9.400000e-07	1.858714e-06	1.835330e-09	1.340667e+01	1.196250e+02
9.500000e-07	2.005444e-06	2.241079e-09	1.446501e+01	1.459573e+02
9.600000e-07	2.151356e-06	2.639594e-09	1.551746e+01	1.718820e+02
9.700000e-07	2.296443e-06	3.026000e-09	1.656395e+01	1.971565e+02
9.800000e-07	2.440727e-06	3.394754e-09	1.760465e+01	2.215696e+02
9.900000e-07	2.584100e-06	3.746897e-09	1.863878e+01	2.449524e+02
1.000000e-06	2.726444e-06	4.082378e-09	1.966549e+01	2.671854e+02
1.010000e-06	2.867702e-06	4.399560e-09	2.068437e+01	2.882015e+02
1.020000e-06	3.007678e-06	4.697735e-09	2.169400e+01	3.079845e+02
1.030000e-06	3.146366e-06	4.978628e-09	2.269433e+01	3.265638e+02
1.040000e-06	3.283868e-06	5.242952e-09	2.368612e+01	3.440050e+02
1.050000e-06	3.420170e-06	5.489787e-09	2.466925e+01	3.603999e+02
1.060000e-06	3.555206e-06	5.724374e-09	2.564325e+01	3.758541e+02
1.070000e-06	3.688930e-06	5.951460e-09	2.660778e+01	3.904759e+02
1.080000e-06	3.821358e-06	6.166372e-09	2.756297e+01	4.043669e+02
1.090000e-06	3.952388e-06	6.370052e-09	2.850807e+01	4.176142e+02
1.100000e-06	4.081983e-06	6.564720e-09	2.944282e+01	4.302859e+02
1.110000e-06	4.210198e-06	6.750736e-09	3.036762e+01	4.424303e+02
1.120000e-06	4.336962e-06	6.926911e-09	3.128196e+01	4.540765e+02
1.130000e-06	4.462203e-06	7.092332e-09	3.218530e+01	4.652387e+02
1.140000e-06	4.585864e-06	7.250499e-09	3.307725e+01	4.759204e+02
1.150000e-06	4.707960e-06	7.401512e-09	3.395791e+01	4.861207e+02
1.160000e-06	4.828465e-06	7.546812e-09	3.482710e+01	4.958392e+02
1.170000e-06	4.947192e-06	7.686137e-09	3.568347e+01	5.050800e+02
1.180000e-06	5.064047e-06	7.820543e-09	3.652632e+01	5.138550e+02
1.190000e-06	5.178910e-06	7.951197e-09	3.735482e+01	5.221843e+02
1.200000e-06	5.291752e-06	8.075634e-09	3.816873e+01	5.300959e+02
1.210000e-06	5.402662e-06	8.192378e-09	3.896871e+01	5.376234e+02
1.220000e-06	5.511723e-06	8.303894e-09	3.975536e+01	5.448034e+02
1.230000e-06	5.618847e-06	8.409478e-09	4.052803e+01	5.516718e+02
1.240000e-06	5.723904e-06	8.508514e-09	4.128579e+01	5.582610e+02
1.250000e-06	5.826817e-06	8.603106e-09	4.202809e+01	5.645972e+02
1.260000e-06	5.927591e-06	8.694561e-09	4.275496e+01	5.706997e+02
1.270000e-06	6.026240e-06	8.781576e-09	4.346650e+01	5.765799e+02
1.280000e-06	6.122549e-06	8.865741e-09	4.416116e+01	5.822430e+02
1.290000e-06	6.216552e-06	8.946644e-09	4.483920e+01	5.876890e+02
1.300000e-06	6.308366e-06	9.025261e-09	4.550144e+01	5.929156e+02
1.310000e-06	6.397917e-06	9.102309e-09	4.614736e+01	5.979203e+02
1.320000e-06	6.485138e-06	9.176205e-09	4.677647e+01	6.027020e+02
1.330000e-06	6.570119e-06	9.246058e-09	4.738943e+01	6.072633e+02
1.340000e-06	6.652838e-06	9.312138e-09	4.798607e+01	6.116101e+02
1.350000e-06	6.733067e-06	9.374043e-09	4.856476e+01	6.157521e+02
1.360000e-06	6.810822e-06	9.432079e-09	4.912559e+01	6.197011e+02
1.370000e-06	6.886057e-06	9.488416e-09	4.966825e+01	6.234697e+02
1.380000e-06	6.958672e-06	9.544709e-09	5.019201e+01	6.270695e+02
1.390000e-06	7.028771e-06	9.600406e-09	5.069763e+01	6.305094e+02
1.400000e-06	7.096390e-06	9.654350e-09	5.118536e+01	6.337945e+02
1.410000e-06	7.161467e-06	9.704531e-09	5.165475e+01	6.369252e+02
1.420000e-06	7.224052e-06	9.748971e-09	5.210617e+01	6.398980e+02
1.430000e-06	7.284233e-06	9.789161e-09	5.254025e+01	6.427059e+02
1.440000e-06	7.341870e-06	9.826586e-09	5.295597e+01	6.453403e+02
1.450000e-06	7.396821e-06	9.861651e-09	5.335233e+01	6.477928e+02
1.460000e-06	7.448963e-06	9.893950e-09	5.372842e+01	6.500570e+02
1.470000e-06	7.498065e-06	9.925504e-09	5.408259e+01	6.521302e+02
1.480000e-06	7.544264e-06	9.955362e-09	5.441582e+01	6.540144e+02
1.490000e-06	7.587834e-06	9.982560e-09	5.473008e+01	6.557167e+02
1.500000e-06	7.628705e-06	1.000873e-08	5.502488e+01	6.572486e+02
1.510000e-06	7.666911e-06	1.003380e-08	5.530045e+01	6.586251e+02
1.520000e-06	7.702492e-06	1.005679e-08	5.555710e+01	6.598628e+02
1.530000e-06	7.735249e-06	1.007464e-08	5.579337e+01	6.609780e+02
1.540000e-06	7.765244e-06	1.008780e-08	5.600972e+01	6.619849e+02
1.550000e-06	7.792508e-06	1.010010e-08	5.620637e+01	6.628936e+02
1.560000e-06	7.816845e-06	1.011290e-08	5.638191e+01	6.637097e+02
1.570000e-06	7.838390e-06	1.012596e-08	5.653731e+01	6.644334e+02
1.580000e-06	7.857264e-06	1.013779e-08	5.667345e+01	6.650602e+02
1.590000e-06	7.873203e-06	1.014762e-08	5.678841e+01	6.655822e+02
1.600000e-06	7.886112e-06	1.015377e-08	5.688152e+01	6.659892e+02
1.610000e-06	7.895963e-06	1.015675e-08	5.695257e+01	6.662713e+02
1.620000e-06	7.902821e-06	1.015949e-08	5.700204e+01	6.664200e+02
1.630000e-06	7.906961e-06	1.016060e-08	5.703190e+01	6.664302e+02
1.640000e-06	7.908292e-06	1.016050e-08	5.704150e+01	6.663012e+02
1.650000e-06	7.906799e-06	1.015834e-08	5.703073e+01	6.660366e+02
1.660000e-06	7.902743e-06	1.015068e-08	5.700148e+01	6.656447e+02
1.670000e-06	7.896028e-06	1.014750e-08	5.695304e+01	6.651370e+02
1.680000e-06	7.886697e-06	1.014279e-08	5.688574e+01	6.645269e+02
1.690000e-06	7.874688e-06	1.013466e-08	5.679912e+01	6.638284e+02
1.700000e-06	7.859842e-06	1.012570e-08	5.669204e+01	6.630542e+02
1.710000e-06	7.842529e-06	1.011528e-08	5.656716e+01	6.622142e+02
1.720000e-06	7.823023e-06	1.009929e-08	5.642647e+01	6.613149e+02
1.730000e-06	7.800926e-06	1.001030e-08	5.626708e+01	6.603583e+02
1.740000e-06	7.775591e-06	9.961166e-09	5.608435e+01	6.593426e+02
1.750000e-06	7.746721e-06	1.000466e-08	5.587611e+01	6.582619e+02
1.760000e-06	7.714597e-06	1.001173e-08	5.564441e+01	6.571079e+02
1.770000e-06	7.679962e-06	1.000747e-08	5.539459e+01	6.558701e+02
1.780000e-06	7.643047e-06	1.003142e-08	5.512832e+01	6.545376e+02
1.790000e-06	7.603916e-06	9.999181e-09	5.484607e+01	6.530998e+02
1.800000e-06	7.562744e-06	9.889349e-09	5.454911e+01	6.515469e+02
1.810000e-06	7.519139e-06	9.926034e-09	5.423459e+01	6.498708e+02
1.820000e-06	7.472901e-06	9.910298e-09	5.390108e+01	6.480651e+02
1.830000e-06	7.424015e-06	9.884135e-09	5.354848e+01	6.461248e+02
1.840000e-06	7.372168e-06	9.910003e-09	5.317451e+01	6.440465e+02
1.850000e-06	7.317355e-06	9.781100e-09	5.277915e+01	6.418277e+02
1.860000e-06	7.259803e-06	9.793538e-09	5.236403e+01	6.394671e+02
1.870000e-06	7.199756e-06	9.720858e-09	5.193092e+01	6.369639e+02
1.880000e-06	7.137059e-06	9.663235e-09	5.147870e+01	6.343181e+02
1.890000e-06	7.071550e-06	9.695803e-09	5.100619e+01	6.315306e+02
1.900000e-06	7.003395e-06	9.591777e-09	5.051459e+01	6.286032e+02
1.910000e-06	6.932451e-06	9.582454e-09	5.000289e+01	6.255388e+02
1.920000e-06	6.858834e-06	9.503629e-09	4.947190e+01	6.223412e+02
1.930000e-06	6.782585e-06	9.459153e-09	4.892192e+01	6.190151e+02
1.940000e-06	6.703537e-06	9.392338e-09	4.835176e+01	6.155658e+02
1.950000e-06	6.621996e-06	9.318658e-09	4.776361e+01	6.119983e+02
1.960000e-06	6.538147e-06	9.328698e-09	4.715882e+01	6.083168e+02
1.970000e-06	6.451816e-06	9.231313e-09	4.653613e+01	6.045239e+02
1.980000e-06	6.362983e-06	9.209303e-09	4.589539e+01	6.006200e+02
1.990000e-06	6.272000e-06	9.130575e-09	4.523914e+01	5.966029e+02
2.000000e-06	6.178893e-06	9.046931e-09	4.456757e+01	5.924679e+02
2.010000e-06	6.083422e-06	8.965552e-09	4.387895e+01	5.882076e+02
2.020000e-06	5.985739e-06	8.896207e-09	4.317438e+01	5.838132e+02
2.030000e-06	5.886026e-06	8.862981e-09	4.245516e+01	5.792749e+02
2.040000e-06	5.784269e-06	8.782321e-09	4.172120e+01	5.745835e+02
2.050000e-06	5.680397e-06	8.719314e-09	4.097198e+01	5.697312e+02
2.060000e-06	5.574550e-06	8.618770e-09	4.020852e+01	5.647122e+02
2.070000e-06	5.466882e-06	8.538022e-09	3.943192e+01	5.595240e+02
2.080000e-06	5.357336e-06	8.440875e-09	3.864178e+01	5.541666e+02
2.090000e-06	5.245735e-06	8.371909e-09	3.783682e+01	5.486426e+02
2.100000e-06	5.132180e-06	8.300610e-09	3.701776e+01	5.429560e+02
2.110000e-06	5.016737e-06	8.211276e-09	3.618509e+01	5.371110e+02
2.120000e-06	4.899291e-06	8.116561e-09	3.533796e+01	5.311105e+02
2.130000e-06	4.779853e-06	8.018506e-09	3.447647e+01	5.249549e+02
2.140000e-06	4.658568e-06	7.922427e-09	3.360166e+01	5.186411e+02
2.150000e-06	4.535648e-06	7.812231e-09	3.271505e+01	5.121619e+02
2.160000e-06	4.411159e-06	7.717636e-09	3.181713e+01	5.055061e+02
2.170000e-06	4.285103e-06	7.618149e-09	3.090790e+01	4.986596e+02
2.180000e-06	4.157324e-06	7.518038e-09	2.998625e+01	4.916064e+02
2.190000e-06	4.027999e-06	7.399353e-09	2.905345e+01	4.843306e+02
2.200000e-06	3.897251e-06	7.282205e-09	2.811038e+01	4.768179e+02
2.210000e-06	3.765108e-06	7.158439e-09	2.715724e+01	4.690575e+02
2.220000e-06	3.631605e-06	7.038157e-09	2.619430e+01	4.610427e+02
2.230000e-06	3.496700e-06	6.917896e-09	2.522125e+01	4.527719e+02
2.240000e-06	3.360424e-06	6.797086e-09	2.423831e+01	4.442474e+02
2.250000e-06	3.222858e-06	6.666196e-09	2.324607e+01	4.354747e+02
2.260000e-06	3.084123e-06	6.521690e-09	2.224539e+01	4.264604e+02
2.270000e-06	2.944180e-06	6.374885e-09	2.123599e+01	4.172096e+02
2.280000e-06	2.803109e-06	6.226095e-09	2.021847e+01	4.077239e+02
2.290000e-06	2.661009e-06	6.081360e-09	1.919352e+01	3.979996e+02
2.300000e-06	2.517911e-06	5.934264e-09	1.816137e+01	3.880258e+02
2.310000e-06	2.373815e-06	5.784950e-09	1.712203e+01	3.777851e+02
2.320000e-06	2.228838e-06	5.624151e-09	1.607632e+01	3.672536e+02
2.330000e-06	2.083198e-06	5.455724e-09	1.502584e+01	3.564033e+02
2.340000e-06	1.936881e-06	5.281234e-09	1.397047e+01	3.452048e+02
2.350000e-06	1.789837e-06	5.102893e-09	1.290987e+01	3.336296e+02
2.360000e-06	1.642183e-06	4.919613e-09	1.184486e+01	3.216537e+02
2.370000e-06	1.494057e-06	4.730102e-09	1.077644e+01	3.092592e+02
2.380000e-06	1.345519e-06	4.537595e-09	9.705056e+00	2.964356e+02
2.390000e-06	1.196617e-06	4.337267e-09	8.631045e+00	2.831793e+02
2.400000e-06	1.047324e-06	4.125445e-09	7.554213e+00	2.694911e+02
2.410000e-06	8.976201e-07	3.906010e-09	6.474419e+00	2.553736e+02
2.420000e-06	7.476375e-07	3.682354e-09	5.392614e+00	2.408258e+02
2.430000e-06	5.974304e-07	3.455706e-09	4.309190e+00	2.258389e+02
2.440000e-06	4.470226e-07	3.223214e-09	3.224317e+00	2.103910e+02
2.450000e-06	2.964349e-07	2.981750e-09	2.138147e+00	1.944446e+02
2.460000e-06	1.457105e-07	2.727329e-09	1.050991e+00	1.779441e+02
2.470000e-06	-5.082895e-09	2.457451e-09	-3.666227e-02	1.608178e+02
2.480000e-06	-1.559113e-07	2.176599e-09	-1.124569e+00	1.429811e+02
2.490000e-06	-3.066946e-07	1.888857e-09	-2.212149e+00	1.243431e+02
2.500000e-06	-4.573845e-07	1.592055e-09	-3.299056e+00	1.048160e+02
2.510000e-06	-6.080002e-07	1.281365e-09	-4.385428e+00	8.432485e+01
2.520000e-06	-7.584741e-07	9.565735e-10	-5.470777e+00	6.281933e+01
2.530000e-06	-9.086861e-07	6.172797e-10	-6.554237e+00	4.028354e+01
2.540000e-06	-1.058590e-06	2.621751e-10	-7.635476e+00	1.674471e+01
2.550000e-06	-1.208098e-06	-1.082396e-10	-8.713857e+00	-7.721402e+00
2.560000e-06	-1.357133e-06	-4.928978e-10	-9.788827e+00	-3.298885e+01
2.570000e-06	-1.505676e-06	-8.898237e-10	-1.086025e+01	-5.888412e+01
2.580000e-06	-1.653706e-06	-1.295780e-09	-1.192797e+01	-8.519304e+01
2.590000e-06	-1.801173e-06	-1.703748e-09	-1.299163e+01	-1.116714e+02
2.600000e-06	-1.947951e-06	-2.109847e-09	-1.405032e+01	-1.380587e+02
2.610000e-06	-2.093998e-06	-2.511828e-09	-1.510374e+01	-1.640931e+02
2.620000e-06	-2.239289e-06	-2.903812e-09	-1.615171e+01	-1.895271e+02
2.630000e-06	-2.383660e-06	-3.278884e-09	-1.719304e+01	-2.141418e+02
2.640000e-06	-2.527018e-06	-3.635328e-09	-1.822706e+01	-2.377583e+02
2.650000e-06	-2.669375e-06	-3.972920e-09	-1.925386e+01	-2.602462e+02
2.660000e-06	-2.810700e-06	-4.293501e-09	-2.027322e+01	-2.815273e+02
2.670000e-06	-2.950926e-06	-4.599328e-09	-2.128465e+01	-3.015747e+02
2.680000e-06	-3.089966e-06	-4.888987e-09	-2.228753e+01	-3.204086e+02
2.690000e-06	-3.227826e-06	-5.160194e-09	-2.328190e+01	-3.380878e+02
2.700000e-06	-3.364450e-06	-5.412869e-09	-2.426735e+01	-3.546995e+02
2.710000e-06	-3.499723e-06	-5.653830e-09	-2.524305e+01	-3.703472e+02
2.720000e-06	-3.633702e-06	-5.885953e-09	-2.620943e+01	-3.851396e+02
2.730000e-06	-3.766482e-06	-6.106716e-09	-2.716716e+01	-3.991805e+02
2.740000e-06	-3.897907e-06	-6.315622e-09	-2.811511e+01	-4.125603e+02
2.750000e-06	-4.027909e-06	-6.514276e-09	-2.905280e+01	-4.253518e+02
2.760000e-06	-4.156584e-06	-6.703197e-09	-2.998091e+01	-4.376073e+02
2.770000e-06	-4.283801e-06	-6.881641e-09	-3.089851e+01	-4.493598e+02
2.780000e-06	-4.409569e-06	-7.049675e-09	-3.180566e+01	-4.606262e+02
2.790000e-06	-4.533861e-06	-7.208828e-09	-3.270216e+01	-4.714121e+02
2.800000e-06	-4.656470e-06	-7.362501e-09	-3.358653e+01	-4.817168e+02
2.810000e-06	-4.777361e-06	-7.511553e-09	-3.445850e+01	-4.915395e+02
2.820000e-06	-4.896486e-06	-7.653691e-09	-3.531773e+01	-5.008832e+02
2.830000e-06	-5.013732e-06	-7.789638e-09	-3.616341e+01	-5.097577e+02
2.840000e-06	-5.128941e-06	-7.920276e-09	-3.699440e+01	-5.181815e+02
2.850000e-06	-5.241998e-06	-8.044814e-09	-3.780987e+01	-5.261810e+02
2.860000e-06	-5.353014e-06	-8.162137e-09	-3.861061e+01	-5.337890e+02
2.870000e-06	-5.462078e-06	-8.273167e-09	-3.939727e+01	-5.410415e+02
2.880000e-06	-5.569250e-06	-8.380443e-09	-4.017029e+01	-5.479749e+02
2.890000e-06	-5.674504e-06	-8.484303e-09	-4.092948e+01	-5.546226e+02
2.900000e-06	-5.777672e-06	-8.584119e-09	-4.167361e+01	-5.610123e+02
2.910000e-06	-5.878685e-06	-8.677136e-09	-4.240221e+01	-5.671648e+02
2.920000e-06	-5.977545e-06	-8.763825e-09	-4.311527e+01	-5.730932e+02
2.930000e-06	-6.074258e-06	-8.847061e-09	-4.381285e+01	-5.788038e+02
2.940000e-06	-6.168843e-06	-8.928053e-09	-4.449508e+01	-5.842976e+02
