# Temperatura_=_45.53
# Concentracion g/m^3_=_10000.0
# C_Vs_to_Am_M_A/Vsm_=_65563218390.804596
# pendiente_HvsI_1/m_=_3716.3
# ordenada_HvsI_A/m_=_1297.0
# frecuencia_Hz_=_302612.5549576952

Tiempo_(s)	Campo_(V.s)	Magnetizacion_(V.s)	Campo_(kA/m)	Magnetizacion_(A/m)
0.000000e+00	-7.835345e-06	-8.591888e-09	-5.683921e+01	-5.624215e+02
1.000000e-08	-7.833039e-06	-8.587124e-09	-5.682248e+01	-5.621818e+02
2.000000e-08	-7.828055e-06	-8.582857e-09	-5.678633e+01	-5.618462e+02
3.000000e-08	-7.820520e-06	-8.577003e-09	-5.673166e+01	-5.614265e+02
4.000000e-08	-7.810320e-06	-8.568945e-09	-5.665767e+01	-5.609367e+02
5.000000e-08	-7.797230e-06	-8.558147e-09	-5.656271e+01	-5.603904e+02
6.000000e-08	-7.781202e-06	-8.549138e-09	-5.644644e+01	-5.597995e+02
7.000000e-08	-7.762670e-06	-8.542230e-09	-5.631201e+01	-5.591724e+02
8.000000e-08	-7.741929e-06	-8.543932e-09	-5.616155e+01	-5.585132e+02
9.000000e-08	-7.718576e-06	-8.543700e-09	-5.599214e+01	-5.578211e+02
1.000000e-07	-7.692128e-06	-8.540869e-09	-5.580028e+01	-5.570908e+02
1.100000e-07	-7.662622e-06	-8.522811e-09	-5.558624e+01	-5.563133e+02
1.200000e-07	-7.630336e-06	-8.486147e-09	-5.535203e+01	-5.554766e+02
1.300000e-07	-7.595337e-06	-8.454223e-09	-5.509814e+01	-5.545682e+02
1.400000e-07	-7.557903e-06	-8.414097e-09	-5.482658e+01	-5.535756e+02
1.500000e-07	-7.518398e-06	-8.400807e-09	-5.454001e+01	-5.524881e+02
1.600000e-07	-7.476686e-06	-8.439820e-09	-5.423742e+01	-5.512975e+02
1.700000e-07	-7.432385e-06	-8.395819e-09	-5.391605e+01	-5.499989e+02
1.800000e-07	-7.385420e-06	-8.374353e-09	-5.357536e+01	-5.485902e+02
1.900000e-07	-7.335658e-06	-8.339982e-09	-5.321438e+01	-5.470721e+02
2.000000e-07	-7.282895e-06	-8.266469e-09	-5.283162e+01	-5.454472e+02
2.100000e-07	-7.227318e-06	-8.251398e-09	-5.242846e+01	-5.437190e+02
2.200000e-07	-7.169035e-06	-8.241892e-09	-5.200566e+01	-5.418911e+02
2.300000e-07	-7.108138e-06	-8.249891e-09	-5.156390e+01	-5.399669e+02
2.400000e-07	-7.044689e-06	-8.201928e-09	-5.110363e+01	-5.379484e+02
2.500000e-07	-6.978543e-06	-8.163813e-09	-5.062379e+01	-5.358366e+02
2.600000e-07	-6.909777e-06	-8.128315e-09	-5.012495e+01	-5.336315e+02
2.700000e-07	-6.838362e-06	-8.088776e-09	-4.960689e+01	-5.313323e+02
2.800000e-07	-6.764248e-06	-8.055896e-09	-4.906925e+01	-5.289377e+02
2.900000e-07	-6.687444e-06	-8.023171e-09	-4.851210e+01	-5.264466e+02
3.000000e-07	-6.607859e-06	-7.994258e-09	-4.793477e+01	-5.238582e+02
3.100000e-07	-6.525758e-06	-7.937138e-09	-4.733919e+01	-5.211719e+02
3.200000e-07	-6.441414e-06	-7.886718e-09	-4.672734e+01	-5.183877e+02
3.300000e-07	-6.354804e-06	-7.850543e-09	-4.609906e+01	-5.155052e+02
3.400000e-07	-6.265921e-06	-7.804041e-09	-4.545429e+01	-5.125239e+02
3.500000e-07	-6.174799e-06	-7.749462e-09	-4.479327e+01	-5.094422e+02
3.600000e-07	-6.081481e-06	-7.710130e-09	-4.411631e+01	-5.062575e+02
3.700000e-07	-5.985981e-06	-7.675680e-09	-4.342354e+01	-5.029660e+02
3.800000e-07	-5.888252e-06	-7.614297e-09	-4.271459e+01	-4.995625e+02
3.900000e-07	-5.788368e-06	-7.548498e-09	-4.199002e+01	-4.960410e+02
4.000000e-07	-5.686471e-06	-7.496992e-09	-4.125083e+01	-4.923955e+02
4.100000e-07	-5.582577e-06	-7.439398e-09	-4.049717e+01	-4.886201e+02
4.200000e-07	-5.476683e-06	-7.372676e-09	-3.972899e+01	-4.847101e+02
4.300000e-07	-5.368829e-06	-7.321147e-09	-3.894660e+01	-4.806622e+02
4.400000e-07	-5.259163e-06	-7.275838e-09	-3.815105e+01	-4.764746e+02
4.500000e-07	-5.147602e-06	-7.202270e-09	-3.734177e+01	-4.721474e+02
4.600000e-07	-5.034026e-06	-7.112505e-09	-3.651786e+01	-4.676814e+02
4.700000e-07	-4.918517e-06	-7.038799e-09	-3.567994e+01	-4.630778e+02
4.800000e-07	-4.801118e-06	-6.975597e-09	-3.482830e+01	-4.583370e+02
4.900000e-07	-4.681895e-06	-6.907036e-09	-3.396343e+01	-4.534578e+02
5.000000e-07	-4.560943e-06	-6.833978e-09	-3.308602e+01	-4.484364e+02
5.100000e-07	-4.438287e-06	-6.757747e-09	-3.219625e+01	-4.432663e+02
5.200000e-07	-4.313952e-06	-6.671323e-09	-3.129430e+01	-4.379380e+02
5.300000e-07	-4.188136e-06	-6.580147e-09	-3.038160e+01	-4.324393e+02
5.400000e-07	-4.060923e-06	-6.493109e-09	-2.945877e+01	-4.267570e+02
5.500000e-07	-3.932210e-06	-6.403887e-09	-2.852506e+01	-4.208771e+02
5.600000e-07	-3.801957e-06	-6.310060e-09	-2.758018e+01	-4.147874e+02
5.700000e-07	-3.670177e-06	-6.214494e-09	-2.662422e+01	-4.084775e+02
5.800000e-07	-3.536962e-06	-6.118602e-09	-2.565785e+01	-4.019409e+02
5.900000e-07	-3.402480e-06	-6.013450e-09	-2.468229e+01	-3.951746e+02
6.000000e-07	-3.266756e-06	-5.905264e-09	-2.369772e+01	-3.881794e+02
6.100000e-07	-3.129797e-06	-5.795867e-09	-2.270419e+01	-3.809582e+02
6.200000e-07	-2.991644e-06	-5.682168e-09	-2.170200e+01	-3.735153e+02
6.300000e-07	-2.852099e-06	-5.567022e-09	-2.068971e+01	-3.658541e+02
6.400000e-07	-2.711242e-06	-5.449676e-09	-1.966791e+01	-3.579747e+02
6.500000e-07	-2.569283e-06	-5.327630e-09	-1.863811e+01	-3.498730e+02
6.600000e-07	-2.426339e-06	-5.194720e-09	-1.760116e+01	-3.415390e+02
6.700000e-07	-2.282583e-06	-5.058057e-09	-1.655833e+01	-3.329562e+02
6.800000e-07	-2.137972e-06	-4.922088e-09	-1.550929e+01	-3.241029e+02
6.900000e-07	-1.992485e-06	-4.782799e-09	-1.445390e+01	-3.149530e+02
7.000000e-07	-1.846368e-06	-4.638595e-09	-1.339394e+01	-3.054785e+02
7.100000e-07	-1.699769e-06	-4.489940e-09	-1.233047e+01	-2.956523e+02
7.200000e-07	-1.552648e-06	-4.330534e-09	-1.126323e+01	-2.854505e+02
7.300000e-07	-1.405028e-06	-4.161755e-09	-1.019236e+01	-2.748548e+02
7.400000e-07	-1.256991e-06	-3.994047e-09	-9.118468e+00	-2.638536e+02
7.500000e-07	-1.108592e-06	-3.825928e-09	-8.041956e+00	-2.524421e+02
7.600000e-07	-9.598837e-07	-3.651195e-09	-6.963194e+00	-2.406208e+02
7.700000e-07	-8.109102e-07	-3.465877e-09	-5.882510e+00	-2.283932e+02
7.800000e-07	-6.616887e-07	-3.272260e-09	-4.800026e+00	-2.157616e+02
7.900000e-07	-5.122436e-07	-3.073745e-09	-3.715921e+00	-2.027229e+02
8.000000e-07	-3.625949e-07	-2.869710e-09	-2.630338e+00	-1.892647e+02
8.100000e-07	-2.128201e-07	-2.658207e-09	-1.543841e+00	-1.753617e+02
8.200000e-07	-6.292162e-08	-2.437682e-09	-4.564464e-01	-1.609740e+02
8.300000e-07	8.704283e-08	-2.205772e-09	6.314266e-01	-1.460470e+02
8.400000e-07	2.369549e-07	-1.965100e-09	1.718920e+00	-1.305142e+02
8.500000e-07	3.868376e-07	-1.716809e-09	2.806200e+00	-1.143024e+02
8.600000e-07	5.366295e-07	-1.460732e-09	3.892821e+00	-9.733852e+01
8.700000e-07	6.862071e-07	-1.194425e-09	4.977888e+00	-7.955850e+01
8.800000e-07	8.355518e-07	-9.140559e-10	6.061265e+00	-6.091683e+01
8.900000e-07	9.846396e-07	-6.205802e-10	7.142779e+00	-4.139558e+01
9.000000e-07	1.133445e-06	-3.131573e-10	8.222244e+00	-2.101210e+01
9.100000e-07	1.281993e-06	7.788967e-12	9.299842e+00	1.756491e-01
9.200000e-07	1.430214e-06	3.430175e-10	1.037507e+01	2.206699e+01
9.300000e-07	1.577930e-06	6.884567e-10	1.144663e+01	4.452007e+01
9.400000e-07	1.725065e-06	1.038586e-09	1.251398e+01	6.735717e+01
9.500000e-07	1.871548e-06	1.390224e-09	1.357659e+01	9.037329e+01
9.600000e-07	2.017314e-06	1.739883e-09	1.463401e+01	1.133475e+02
9.700000e-07	2.162418e-06	2.088966e-09	1.568663e+01	1.360560e+02
9.800000e-07	2.306705e-06	2.431503e-09	1.673331e+01	1.582852e+02
9.900000e-07	2.449950e-06	2.759767e-09	1.777244e+01	1.798444e+02
1.000000e-06	2.592210e-06	3.072162e-09	1.880443e+01	2.005758e+02
1.010000e-06	2.733513e-06	3.368092e-09	1.982946e+01	2.203622e+02
1.020000e-06	2.873747e-06	3.650229e-09	2.084675e+01	2.391303e+02
1.030000e-06	3.012786e-06	3.917802e-09	2.185537e+01	2.568507e+02
1.040000e-06	3.150473e-06	4.169476e-09	2.285418e+01	2.735338e+02
1.050000e-06	3.286910e-06	4.405782e-09	2.384392e+01	2.892231e+02
1.060000e-06	3.422158e-06	4.629333e-09	2.482504e+01	3.039861e+02
1.070000e-06	3.556154e-06	4.843470e-09	2.579707e+01	3.179043e+02
1.080000e-06	3.688960e-06	5.047425e-09	2.676047e+01	3.310637e+02
1.090000e-06	3.820577e-06	5.238050e-09	2.771526e+01	3.435454e+02
1.100000e-06	3.950697e-06	5.417694e-09	2.865917e+01	3.554199e+02
1.110000e-06	4.079269e-06	5.591657e-09	2.959186e+01	3.667421e+02
1.120000e-06	4.206424e-06	5.757582e-09	3.051427e+01	3.775508e+02
1.130000e-06	4.332124e-06	5.913974e-09	3.142612e+01	3.878691e+02
1.140000e-06	4.456497e-06	6.061906e-09	3.232834e+01	3.977080e+02
1.150000e-06	4.579341e-06	6.201449e-09	3.321948e+01	4.070709e+02
1.160000e-06	4.700454e-06	6.334602e-09	3.409806e+01	4.159587e+02
1.170000e-06	4.819865e-06	6.460974e-09	3.496429e+01	4.243743e+02
1.180000e-06	4.937531e-06	6.581832e-09	3.581787e+01	4.323265e+02
1.190000e-06	5.053312e-06	6.696272e-09	3.665776e+01	4.398324e+02
1.200000e-06	5.167072e-06	6.802623e-09	3.748301e+01	4.469181e+02
1.210000e-06	5.278862e-06	6.904583e-09	3.829395e+01	4.536170e+02
1.220000e-06	5.388757e-06	7.003027e-09	3.909115e+01	4.599681e+02
1.230000e-06	5.496869e-06	7.097129e-09	3.987542e+01	4.660124e+02
1.240000e-06	5.603054e-06	7.185183e-09	4.064571e+01	4.717889e+02
1.250000e-06	5.707140e-06	7.268909e-09	4.140077e+01	4.773319e+02
1.260000e-06	5.809172e-06	7.351598e-09	4.214093e+01	4.826678e+02
1.270000e-06	5.909101e-06	7.431977e-09	4.286584e+01	4.878139e+02
1.280000e-06	6.006739e-06	7.507591e-09	4.357412e+01	4.927783e+02
1.290000e-06	6.102086e-06	7.576576e-09	4.426579e+01	4.975609e+02
1.300000e-06	6.195319e-06	7.642042e-09	4.494212e+01	5.021558e+02
1.310000e-06	6.286346e-06	7.706674e-09	4.560245e+01	5.065536e+02
1.320000e-06	6.375057e-06	7.769952e-09	4.624598e+01	5.107449e+02
1.330000e-06	6.461504e-06	7.830757e-09	4.687308e+01	5.147228e+02
1.340000e-06	6.545757e-06	7.887331e-09	4.748427e+01	5.184845e+02
1.350000e-06	6.627706e-06	7.941992e-09	4.807875e+01	5.220330e+02
1.360000e-06	6.707173e-06	7.993079e-09	4.865522e+01	5.253768e+02
1.370000e-06	6.784095e-06	8.040028e-09	4.921323e+01	5.285288e+02
1.380000e-06	6.858398e-06	8.085092e-09	4.975223e+01	5.315048e+02
1.390000e-06	6.930149e-06	8.127638e-09	5.027273e+01	5.343214e+02
1.400000e-06	6.999517e-06	8.169161e-09	5.077594e+01	5.369935e+02
1.410000e-06	7.066423e-06	8.210010e-09	5.126129e+01	5.395327e+02
1.420000e-06	7.130790e-06	8.247649e-09	5.172822e+01	5.419460e+02
1.430000e-06	7.192712e-06	8.281087e-09	5.217742e+01	5.442355e+02
1.440000e-06	7.252210e-06	8.311133e-09	5.260903e+01	5.463986e+02
1.450000e-06	7.309139e-06	8.339254e-09	5.302200e+01	5.484295e+02
1.460000e-06	7.363382e-06	8.367408e-09	5.341549e+01	5.503209e+02
1.470000e-06	7.414657e-06	8.394189e-09	5.378745e+01	5.520658e+02
1.480000e-06	7.462857e-06	8.419836e-09	5.413711e+01	5.536596e+02
1.490000e-06	7.508361e-06	8.440665e-09	5.446720e+01	5.551017e+02
1.500000e-06	7.551293e-06	8.456983e-09	5.477864e+01	5.563957e+02
1.510000e-06	7.591487e-06	8.474848e-09	5.507021e+01	5.575503e+02
1.520000e-06	7.628991e-06	8.494366e-09	5.534227e+01	5.585775e+02
1.530000e-06	7.663817e-06	8.512477e-09	5.559491e+01	5.594922e+02
1.540000e-06	7.695906e-06	8.526554e-09	5.582769e+01	5.603097e+02
1.550000e-06	7.725369e-06	8.538230e-09	5.604142e+01	5.610439e+02
1.560000e-06	7.752049e-06	8.548371e-09	5.623496e+01	5.617058e+02
1.570000e-06	7.775801e-06	8.556782e-09	5.640726e+01	5.623018e+02
1.580000e-06	7.796871e-06	8.565495e-09	5.656011e+01	5.628336e+02
1.590000e-06	7.815256e-06	8.573676e-09	5.669348e+01	5.632979e+02
1.600000e-06	7.830710e-06	8.579603e-09	5.680559e+01	5.636878e+02
1.610000e-06	7.843088e-06	8.582923e-09	5.689538e+01	5.639937e+02
1.620000e-06	7.852327e-06	8.585350e-09	5.696240e+01	5.642057e+02
1.630000e-06	7.858691e-06	8.588471e-09	5.700857e+01	5.643151e+02
1.640000e-06	7.862380e-06	8.590163e-09	5.703533e+01	5.643163e+02
1.650000e-06	7.863231e-06	8.589869e-09	5.704150e+01	5.642080e+02
1.660000e-06	7.861346e-06	8.587564e-09	5.702783e+01	5.639933e+02
1.670000e-06	7.856901e-06	8.584189e-09	5.699558e+01	5.636801e+02
1.680000e-06	7.849819e-06	8.581987e-09	5.694421e+01	5.632797e+02
1.690000e-06	7.840162e-06	8.577994e-09	5.687415e+01	5.628057e+02
1.700000e-06	7.827812e-06	8.571087e-09	5.678456e+01	5.622718e+02
1.710000e-06	7.812647e-06	8.561901e-09	5.667455e+01	5.616906e+02
1.720000e-06	7.795039e-06	8.552624e-09	5.654682e+01	5.610714e+02
1.730000e-06	7.775205e-06	8.523723e-09	5.640294e+01	5.604196e+02
1.740000e-06	7.752803e-06	8.498163e-09	5.624043e+01	5.597356e+02
1.750000e-06	7.727193e-06	8.470140e-09	5.605465e+01	5.590152e+02
1.760000e-06	7.698008e-06	8.470382e-09	5.584293e+01	5.582499e+02
1.770000e-06	7.665658e-06	8.483216e-09	5.560826e+01	5.574288e+02
1.780000e-06	7.630881e-06	8.498763e-09	5.535598e+01	5.565390e+02
1.790000e-06	7.593823e-06	8.484785e-09	5.508716e+01	5.555680e+02
1.800000e-06	7.554566e-06	8.437183e-09	5.480238e+01	5.545046e+02
1.810000e-06	7.513220e-06	8.458071e-09	5.450245e+01	5.533399e+02
1.820000e-06	7.469462e-06	8.399620e-09	5.418502e+01	5.520681e+02
1.830000e-06	7.423184e-06	8.398092e-09	5.384931e+01	5.506865e+02
1.840000e-06	7.374194e-06	8.431516e-09	5.349392e+01	5.491951e+02
1.850000e-06	7.322291e-06	8.396491e-09	5.311741e+01	5.475961e+02
1.860000e-06	7.267516e-06	8.367151e-09	5.272006e+01	5.458928e+02
1.870000e-06	7.209974e-06	8.279808e-09	5.230263e+01	5.440890e+02
1.880000e-06	7.149893e-06	8.253468e-09	5.186680e+01	5.421882e+02
1.890000e-06	7.087126e-06	8.235561e-09	5.141147e+01	5.401926e+02
1.900000e-06	7.021573e-06	8.212972e-09	5.093594e+01	5.381036e+02
1.910000e-06	6.953329e-06	8.211061e-09	5.044088e+01	5.359214e+02
1.920000e-06	6.882309e-06	8.169208e-09	4.992569e+01	5.336453e+02
1.930000e-06	6.808656e-06	8.112452e-09	4.939140e+01	5.312742e+02
1.940000e-06	6.732348e-06	8.040853e-09	4.883784e+01	5.288069e+02
1.950000e-06	6.653338e-06	8.025639e-09	4.826469e+01	5.262423e+02
1.960000e-06	6.571853e-06	8.007078e-09	4.767358e+01	5.235801e+02
1.970000e-06	6.488014e-06	7.960050e-09	4.706539e+01	5.208198e+02
1.980000e-06	6.401782e-06	7.923281e-09	4.643985e+01	5.179614e+02
1.990000e-06	6.313112e-06	7.881729e-09	4.579662e+01	5.150044e+02
2.000000e-06	6.222264e-06	7.825940e-09	4.513758e+01	5.119476e+02
2.010000e-06	6.129283e-06	7.748355e-09	4.446308e+01	5.087885e+02
2.020000e-06	6.034074e-06	7.715558e-09	4.377242e+01	5.055236e+02
2.030000e-06	5.936699e-06	7.674477e-09	4.306603e+01	5.021481e+02
2.040000e-06	5.837252e-06	7.618313e-09	4.234463e+01	4.986562e+02
2.050000e-06	5.735768e-06	7.561609e-09	4.160844e+01	4.950418e+02
2.060000e-06	5.632175e-06	7.517246e-09	4.085696e+01	4.912989e+02
2.070000e-06	5.526602e-06	7.451326e-09	4.009111e+01	4.874224e+02
2.080000e-06	5.419170e-06	7.361659e-09	3.931178e+01	4.834087e+02
2.090000e-06	5.309874e-06	7.303192e-09	3.851892e+01	4.792556e+02
2.100000e-06	5.198636e-06	7.255404e-09	3.771198e+01	4.749628e+02
2.110000e-06	5.085487e-06	7.198379e-09	3.689117e+01	4.705309e+02
2.120000e-06	4.970410e-06	7.124872e-09	3.605638e+01	4.659611e+02
2.130000e-06	4.853349e-06	7.055358e-09	3.520720e+01	4.612541e+02
2.140000e-06	4.734356e-06	6.972391e-09	3.434399e+01	4.564092e+02
2.150000e-06	4.613533e-06	6.887271e-09	3.346752e+01	4.514234e+02
2.160000e-06	4.491039e-06	6.812719e-09	3.257892e+01	4.462908e+02
2.170000e-06	4.366960e-06	6.746859e-09	3.167883e+01	4.410026e+02
2.180000e-06	4.241265e-06	6.666959e-09	3.076701e+01	4.355472e+02
2.190000e-06	4.113913e-06	6.571249e-09	2.984317e+01	4.299116e+02
2.200000e-06	3.985019e-06	6.474391e-09	2.890815e+01	4.240819e+02
2.210000e-06	3.854729e-06	6.376988e-09	2.796300e+01	4.180452e+02
2.220000e-06	3.723088e-06	6.285086e-09	2.700805e+01	4.117906e+02
2.230000e-06	3.590040e-06	6.195836e-09	2.604289e+01	4.053106e+02
2.240000e-06	3.455648e-06	6.102009e-09	2.506798e+01	3.986014e+02
2.250000e-06	3.319926e-06	5.995910e-09	2.408343e+01	3.916626e+02
2.260000e-06	3.182981e-06	5.883222e-09	2.309000e+01	3.844971e+02
2.270000e-06	3.044969e-06	5.766239e-09	2.208884e+01	3.771088e+02
2.280000e-06	2.905810e-06	5.645572e-09	2.107935e+01	3.695014e+02
2.290000e-06	2.765406e-06	5.523444e-09	2.006082e+01	3.616763e+02
2.300000e-06	2.623871e-06	5.404567e-09	1.903410e+01	3.536304e+02
2.310000e-06	2.481377e-06	5.284840e-09	1.800042e+01	3.453552e+02
2.320000e-06	2.337939e-06	5.160231e-09	1.695989e+01	3.368360e+02
2.330000e-06	2.193660e-06	5.028330e-09	1.591326e+01	3.280521e+02
2.340000e-06	2.048676e-06	4.887878e-09	1.486151e+01	3.189785e+02
2.350000e-06	1.903019e-06	4.738769e-09	1.380489e+01	3.095873e+02
2.360000e-06	1.756761e-06	4.587568e-09	1.274391e+01	2.998509e+02
2.370000e-06	1.609988e-06	4.437073e-09	1.167918e+01	2.897445e+02
2.380000e-06	1.462771e-06	4.281438e-09	1.061125e+01	2.792481e+02
2.390000e-06	1.315110e-06	4.116786e-09	9.540078e+00	2.683485e+02
2.400000e-06	1.166912e-06	3.942828e-09	8.465022e+00	2.570392e+02
2.410000e-06	1.018257e-06	3.761780e-09	7.386650e+00	2.453196e+02
2.420000e-06	8.692812e-07	3.575856e-09	6.305945e+00	2.331928e+02
2.430000e-06	7.200482e-07	3.387686e-09	5.223378e+00	2.206617e+02
2.440000e-06	5.706174e-07	3.197147e-09	4.139376e+00	2.077250e+02
2.450000e-06	4.210448e-07	2.997190e-09	3.054346e+00	1.943730e+02
2.460000e-06	2.713572e-07	2.783322e-09	1.968481e+00	1.805839e+02
2.470000e-06	1.215281e-07	2.559072e-09	8.815896e-01	1.663214e+02
2.480000e-06	-2.837607e-08	2.327437e-09	-2.058458e-01	1.515346e+02
2.490000e-06	-1.782635e-07	2.088863e-09	-1.293160e+00	1.361595e+02
2.500000e-06	-3.280889e-07	1.841777e-09	-2.380025e+00	1.201239e+02
2.510000e-06	-4.778797e-07	1.586661e-09	-3.466638e+00	1.033541e+02
2.520000e-06	-6.275594e-07	1.320058e-09	-4.552445e+00	8.578275e+01
2.530000e-06	-7.770325e-07	1.039374e-09	-5.636754e+00	6.735891e+01
2.540000e-06	-9.262684e-07	7.461616e-10	-6.719342e+00	4.805692e+01
2.550000e-06	-1.075190e-06	4.419643e-10	-7.799647e+00	2.788472e+01
2.560000e-06	-1.223772e-06	1.265990e-10	-8.877495e+00	6.889785e+00
2.570000e-06	-1.371944e-06	-2.027336e-10	-9.952362e+00	-1.483790e+01
2.580000e-06	-1.519578e-06	-5.434012e-10	-1.102333e+01	-3.716642e+01
2.590000e-06	-1.666633e-06	-8.943120e-10	-1.209010e+01	-5.992634e+01
2.600000e-06	-1.813089e-06	-1.250979e-09	-1.315252e+01	-8.291849e+01
2.610000e-06	-1.958896e-06	-1.609766e-09	-1.421024e+01	-1.059248e+02
2.620000e-06	-2.104038e-06	-1.966114e-09	-1.526313e+01	-1.287209e+02
2.630000e-06	-2.248506e-06	-2.309284e-09	-1.631113e+01	-1.510894e+02
2.640000e-06	-2.392162e-06	-2.637050e-09	-1.735324e+01	-1.728327e+02
2.650000e-06	-2.534746e-06	-2.949651e-09	-1.838757e+01	-1.937842e+02
2.660000e-06	-2.676115e-06	-3.252050e-09	-1.941309e+01	-2.138160e+02
2.670000e-06	-2.816347e-06	-3.542564e-09	-2.043036e+01	-2.328436e+02
2.680000e-06	-2.955461e-06	-3.817677e-09	-2.143952e+01	-2.508269e+02
2.690000e-06	-3.093396e-06	-4.076822e-09	-2.244013e+01	-2.677669e+02
2.700000e-06	-3.230266e-06	-4.319795e-09	-2.343302e+01	-2.836996e+02
2.710000e-06	-3.366037e-06	-4.550516e-09	-2.441793e+01	-2.986874e+02
2.720000e-06	-3.500391e-06	-4.770393e-09	-2.539256e+01	-3.128093e+02
2.730000e-06	-3.633393e-06	-4.980879e-09	-2.635738e+01	-3.261509e+02
2.740000e-06	-3.765225e-06	-5.178583e-09	-2.731372e+01	-3.387954e+02
2.750000e-06	-3.895744e-06	-5.362216e-09	-2.826053e+01	-3.508164e+02
2.760000e-06	-4.024923e-06	-5.535683e-09	-2.919762e+01	-3.622729e+02
2.770000e-06	-4.152722e-06	-5.702596e-09	-3.012470e+01	-3.732077e+02
2.780000e-06	-4.278990e-06	-5.862392e-09	-3.104067e+01	-3.836476e+02
2.790000e-06	-4.403759e-06	-6.012106e-09	-3.194577e+01	-3.936064e+02
2.800000e-06	-4.527078e-06	-6.153247e-09	-3.284036e+01	-4.030887e+02
2.810000e-06	-4.648801e-06	-6.289198e-09	-3.372336e+01	-4.120956e+02
2.820000e-06	-4.768817e-06	-6.420387e-09	-3.459398e+01	-4.206292e+02
2.830000e-06	-4.886893e-06	-6.546126e-09	-3.545053e+01	-4.286965e+02
2.840000e-06	-5.002983e-06	-6.664618e-09	-3.629267e+01	-4.363124e+02
2.850000e-06	-5.117146e-06	-6.774430e-09	-3.712083e+01	-4.435007e+02
2.860000e-06	-5.229163e-06	-6.878030e-09	-3.793343e+01	-4.502933e+02
2.870000e-06	-5.339125e-06	-6.977663e-09	-3.873111e+01	-4.567281e+02
2.880000e-06	-5.447338e-06	-7.074091e-09	-3.951611e+01	-4.628457e+02
2.890000e-06	-5.553762e-06	-7.164395e-09	-4.028814e+01	-4.686863e+02
2.900000e-06	-5.658193e-06	-7.249253e-09	-4.104570e+01	-4.742853e+02
2.910000e-06	-5.760420e-06	-7.331345e-09	-4.178727e+01	-4.796715e+02
2.920000e-06	-5.860449e-06	-7.410200e-09	-4.251290e+01	-4.848644e+02
2.930000e-06	-5.958475e-06	-7.486268e-09	-4.322400e+01	-4.898744e+02
2.940000e-06	-6.054448e-06	-7.559264e-09	-4.392021e+01	-4.947034e+02
