# Temperatura_=_29.04
# Concentracion g/m^3_=_10000.0
# C_Vs_to_Am_M_A/Vsm_=_65563218390.804596
# pendiente_HvsI_1/m_=_3716.3
# ordenada_HvsI_A/m_=_1297.0
# frecuencia_Hz_=_302614.48565455363

Tiempo_(s)	Campo_(V.s)	Magnetizacion_(V.s)	Campo_(kA/m)	Magnetizacion_(A/m)
0.000000e+00	-7.909530e-06	-8.121757e-09	-5.683952e+01	-5.323336e+02
1.000000e-08	-7.907192e-06	-8.123036e-09	-5.682272e+01	-5.321122e+02
2.000000e-08	-7.902145e-06	-8.119545e-09	-5.678645e+01	-5.317961e+02
3.000000e-08	-7.894579e-06	-8.113980e-09	-5.673208e+01	-5.313973e+02
4.000000e-08	-7.884263e-06	-8.107038e-09	-5.665794e+01	-5.309299e+02
5.000000e-08	-7.871021e-06	-8.095558e-09	-5.656279e+01	-5.304089e+02
6.000000e-08	-7.854826e-06	-8.081879e-09	-5.644641e+01	-5.298478e+02
7.000000e-08	-7.836070e-06	-8.071795e-09	-5.631162e+01	-5.292569e+02
8.000000e-08	-7.815150e-06	-8.066818e-09	-5.616129e+01	-5.286419e+02
9.000000e-08	-7.791578e-06	-8.110245e-09	-5.599189e+01	-5.280032e+02
1.000000e-07	-7.764826e-06	-8.122638e-09	-5.579965e+01	-5.273356e+02
1.100000e-07	-7.734978e-06	-8.065465e-09	-5.558515e+01	-5.266294e+02
1.200000e-07	-7.702320e-06	-8.027479e-09	-5.535046e+01	-5.258715e+02
1.300000e-07	-7.666978e-06	-8.003308e-09	-5.509649e+01	-5.250470e+02
1.400000e-07	-7.629224e-06	-7.959839e-09	-5.482518e+01	-5.241412e+02
1.500000e-07	-7.589345e-06	-7.917722e-09	-5.453861e+01	-5.231411e+02
1.600000e-07	-7.547200e-06	-7.979580e-09	-5.423574e+01	-5.220373e+02
1.700000e-07	-7.502418e-06	-7.975233e-09	-5.391393e+01	-5.208241e+02
1.800000e-07	-7.454966e-06	-7.878570e-09	-5.357293e+01	-5.195004e+02
1.900000e-07	-7.404682e-06	-7.919725e-09	-5.321158e+01	-5.180687e+02
2.000000e-07	-7.351368e-06	-7.864177e-09	-5.282845e+01	-5.165347e+02
2.100000e-07	-7.295270e-06	-7.801235e-09	-5.242532e+01	-5.149062e+02
2.200000e-07	-7.236494e-06	-7.827554e-09	-5.200294e+01	-5.131910e+02
2.300000e-07	-7.175121e-06	-7.791491e-09	-5.156190e+01	-5.113963e+02
2.400000e-07	-7.111106e-06	-7.764186e-09	-5.110188e+01	-5.095276e+02
2.500000e-07	-7.044287e-06	-7.702662e-09	-5.062170e+01	-5.075875e+02
2.600000e-07	-6.974792e-06	-7.689878e-09	-5.012230e+01	-5.055765e+02
2.700000e-07	-6.902649e-06	-7.673115e-09	-4.960387e+01	-5.034921e+02
2.800000e-07	-6.827739e-06	-7.638622e-09	-4.906554e+01	-5.013302e+02
2.900000e-07	-6.750072e-06	-7.610905e-09	-4.850742e+01	-4.990856e+02
3.000000e-07	-6.669645e-06	-7.580335e-09	-4.792945e+01	-4.967527e+02
3.100000e-07	-6.586770e-06	-7.557574e-09	-4.733389e+01	-4.943263e+02
3.200000e-07	-6.501743e-06	-7.481053e-09	-4.672287e+01	-4.918023e+02
3.300000e-07	-6.414460e-06	-7.438055e-09	-4.609564e+01	-4.891777e+02
3.400000e-07	-6.324836e-06	-7.408781e-09	-4.545158e+01	-4.864506e+02
3.500000e-07	-6.232887e-06	-7.354632e-09	-4.479082e+01	-4.836199e+02
3.600000e-07	-6.138727e-06	-7.312562e-09	-4.411417e+01	-4.806849e+02
3.700000e-07	-6.042326e-06	-7.283926e-09	-4.342141e+01	-4.776446e+02
3.800000e-07	-5.943642e-06	-7.244910e-09	-4.271224e+01	-4.744977e+02
3.900000e-07	-5.842849e-06	-7.179746e-09	-4.198793e+01	-4.712417e+02
4.000000e-07	-5.740031e-06	-7.127149e-09	-4.124905e+01	-4.678733e+02
4.100000e-07	-5.635140e-06	-7.075352e-09	-4.049528e+01	-4.643885e+02
4.200000e-07	-5.528180e-06	-7.020124e-09	-3.972665e+01	-4.607827e+02
4.300000e-07	-5.419301e-06	-6.964435e-09	-3.894422e+01	-4.570513e+02
4.400000e-07	-5.308585e-06	-6.911441e-09	-3.814859e+01	-4.531901e+02
4.500000e-07	-5.195826e-06	-6.851863e-09	-3.733828e+01	-4.491953e+02
4.600000e-07	-5.080995e-06	-6.776893e-09	-3.651308e+01	-4.450641e+02
4.700000e-07	-4.964230e-06	-6.701582e-09	-3.567399e+01	-4.407941e+02
4.800000e-07	-4.845642e-06	-6.639772e-09	-3.482179e+01	-4.363830e+02
4.900000e-07	-4.725266e-06	-6.583544e-09	-3.395674e+01	-4.318284e+02
5.000000e-07	-4.603163e-06	-6.516078e-09	-3.307928e+01	-4.271269e+02
5.100000e-07	-4.479385e-06	-6.439490e-09	-3.218979e+01	-4.222740e+02
5.200000e-07	-4.353973e-06	-6.359912e-09	-3.128855e+01	-4.172634e+02
5.300000e-07	-4.226982e-06	-6.281897e-09	-3.037596e+01	-4.120870e+02
5.400000e-07	-4.098449e-06	-6.195087e-09	-2.945230e+01	-4.067357e+02
5.500000e-07	-3.968428e-06	-6.105579e-09	-2.851794e+01	-4.011993e+02
5.600000e-07	-3.836876e-06	-6.018821e-09	-2.757259e+01	-3.954680e+02
5.700000e-07	-3.703884e-06	-5.934753e-09	-2.661688e+01	-3.895325e+02
5.800000e-07	-3.569445e-06	-5.841266e-09	-2.565077e+01	-3.833856e+02
5.900000e-07	-3.433574e-06	-5.739757e-09	-2.467437e+01	-3.770221e+02
6.000000e-07	-3.296448e-06	-5.638138e-09	-2.368896e+01	-3.704393e+02
6.100000e-07	-3.158043e-06	-5.532887e-09	-2.269435e+01	-3.636364e+02
6.200000e-07	-3.018198e-06	-5.423838e-09	-2.168940e+01	-3.566141e+02
6.300000e-07	-2.877023e-06	-5.314016e-09	-2.067489e+01	-3.493730e+02
6.400000e-07	-2.734792e-06	-5.207352e-09	-1.965278e+01	-3.419124e+02
6.500000e-07	-2.591541e-06	-5.091470e-09	-1.862335e+01	-3.342289e+02
6.600000e-07	-2.447345e-06	-4.970697e-09	-1.758713e+01	-3.263154e+02
6.700000e-07	-2.302247e-06	-4.846712e-09	-1.654442e+01	-3.181603e+02
6.800000e-07	-2.156226e-06	-4.717267e-09	-1.549508e+01	-3.097472e+02
6.900000e-07	-2.009491e-06	-4.581473e-09	-1.444062e+01	-3.010561e+02
7.000000e-07	-1.862215e-06	-4.440902e-09	-1.338226e+01	-2.920645e+02
7.100000e-07	-1.714342e-06	-4.297538e-09	-1.231962e+01	-2.827490e+02
7.200000e-07	-1.565887e-06	-4.144624e-09	-1.125279e+01	-2.730874e+02
7.300000e-07	-1.417007e-06	-3.986870e-09	-1.018290e+01	-2.630609e+02
7.400000e-07	-1.267770e-06	-3.827020e-09	-9.110455e+00	-2.526549e+02
7.500000e-07	-1.118118e-06	-3.665724e-09	-8.035030e+00	-2.418601e+02
7.600000e-07	-9.680621e-07	-3.501201e-09	-6.956695e+00	-2.306719e+02
7.700000e-07	-8.176503e-07	-3.331648e-09	-5.875805e+00	-2.190889e+02
7.800000e-07	-6.669461e-07	-3.152509e-09	-4.792813e+00	-2.071108e+02
7.900000e-07	-5.160116e-07	-2.963181e-09	-3.708166e+00	-1.947348e+02
8.000000e-07	-3.648530e-07	-2.766761e-09	-2.621909e+00	-1.819528e+02
8.100000e-07	-2.135454e-07	-2.563064e-09	-1.534582e+00	-1.687485e+02
8.200000e-07	-6.216386e-08	-2.351847e-09	-4.467224e-01	-1.550949e+02
8.300000e-07	8.928561e-08	-2.132636e-09	6.416249e-01	-1.409542e+02
8.400000e-07	2.407328e-07	-1.905681e-09	1.729956e+00	-1.262784e+02
8.500000e-07	3.921359e-07	-1.672225e-09	2.817970e+00	-1.110130e+02
8.600000e-07	5.434428e-07	-1.433245e-09	3.905293e+00	-9.510141e+01
8.700000e-07	6.945920e-07	-1.187300e-09	4.991482e+00	-7.849184e+01
8.800000e-07	8.455418e-07	-9.297096e-10	6.076238e+00	-6.114451e+01
8.900000e-07	9.962007e-07	-6.550950e-10	7.158905e+00	-4.303937e+01
9.000000e-07	1.146518e-06	-3.684920e-10	8.239113e+00	-2.418301e+01
9.100000e-07	1.296408e-06	-7.310253e-11	9.316253e+00	-4.613979e+00
9.200000e-07	1.445805e-06	2.346364e-10	1.038986e+01	1.559416e+01
9.300000e-07	1.594749e-06	5.540518e-10	1.146020e+01	3.633264e+01
9.400000e-07	1.743222e-06	8.809705e-10	1.252715e+01	5.746040e+01
9.500000e-07	1.891070e-06	1.210348e-09	1.358962e+01	7.880997e+01
9.600000e-07	2.038139e-06	1.538948e-09	1.464649e+01	1.001959e+02
9.700000e-07	2.184502e-06	1.864553e-09	1.569829e+01	1.214252e+02
9.800000e-07	2.330093e-06	2.182842e-09	1.674453e+01	1.423080e+02
9.900000e-07	2.474723e-06	2.489888e-09	1.778387e+01	1.626690e+02
1.000000e-06	2.618395e-06	2.790082e-09	1.881633e+01	1.823569e+02
1.010000e-06	2.761073e-06	3.078236e-09	1.984164e+01	2.012516e+02
1.020000e-06	2.902719e-06	3.350114e-09	2.085954e+01	2.192694e+02
1.030000e-06	3.043162e-06	3.607552e-09	2.186879e+01	2.363638e+02
1.040000e-06	3.182199e-06	3.851391e-09	2.286794e+01	2.525243e+02
1.050000e-06	3.320002e-06	4.082048e-09	2.385822e+01	2.677714e+02
1.060000e-06	3.456678e-06	4.298009e-09	2.484040e+01	2.821500e+02
1.070000e-06	3.592011e-06	4.502489e-09	2.581293e+01	2.957215e+02
1.080000e-06	3.725981e-06	4.698805e-09	2.677567e+01	3.085550e+02
1.090000e-06	3.858717e-06	4.886308e-09	2.772954e+01	3.207198e+02
1.100000e-06	3.990024e-06	5.064332e-09	2.867314e+01	3.322790e+02
1.110000e-06	4.119822e-06	5.235141e-09	2.960590e+01	3.432849e+02
1.120000e-06	4.248273e-06	5.396457e-09	3.052897e+01	3.537769e+02
1.130000e-06	4.375260e-06	5.546927e-09	3.144152e+01	3.637818e+02
1.140000e-06	4.500722e-06	5.690648e-09	3.234312e+01	3.733153e+02
1.150000e-06	4.624607e-06	5.827362e-09	3.323338e+01	3.823859e+02
1.160000e-06	4.746812e-06	5.956067e-09	3.411157e+01	3.909987e+02
1.170000e-06	4.867340e-06	6.077295e-09	3.497771e+01	3.991595e+02
1.180000e-06	4.986114e-06	6.192470e-09	3.583125e+01	4.068784e+02
1.190000e-06	5.103072e-06	6.303991e-09	3.667173e+01	4.141719e+02
1.200000e-06	5.218056e-06	6.410417e-09	3.749803e+01	4.210639e+02
1.210000e-06	5.331026e-06	6.512934e-09	3.830986e+01	4.275853e+02
1.220000e-06	5.441964e-06	6.609472e-09	3.910708e+01	4.337715e+02
1.230000e-06	5.550970e-06	6.699608e-09	3.989042e+01	4.396601e+02
1.240000e-06	5.658085e-06	6.784548e-09	4.066017e+01	4.452874e+02
1.250000e-06	5.763120e-06	6.866595e-09	4.141497e+01	4.506855e+02
1.260000e-06	5.866021e-06	6.947411e-09	4.215444e+01	4.558793e+02
1.270000e-06	5.966821e-06	7.023695e-09	4.287881e+01	4.608854e+02
1.280000e-06	6.065370e-06	7.093779e-09	4.358700e+01	4.657116e+02
1.290000e-06	6.161523e-06	7.160802e-09	4.427798e+01	4.703576e+02
1.300000e-06	6.255488e-06	7.227313e-09	4.495323e+01	4.748171e+02
1.310000e-06	6.347305e-06	7.291303e-09	4.561305e+01	4.790803e+02
1.320000e-06	6.436826e-06	7.352283e-09	4.625636e+01	4.831369e+02
1.330000e-06	6.523997e-06	7.410194e-09	4.688279e+01	4.869787e+02
1.340000e-06	6.608962e-06	7.464228e-09	4.749337e+01	4.906019e+02
1.350000e-06	6.691679e-06	7.516034e-09	4.808779e+01	4.940083e+02
1.360000e-06	6.771872e-06	7.564530e-09	4.866408e+01	4.972058e+02
1.370000e-06	6.849521e-06	7.609075e-09	4.922208e+01	5.002075e+02
1.380000e-06	6.924580e-06	7.651925e-09	4.976147e+01	5.030302e+02
1.390000e-06	6.997026e-06	7.693639e-09	5.028207e+01	5.056920e+02
1.400000e-06	7.067005e-06	7.734485e-09	5.078496e+01	5.082107e+02
1.410000e-06	7.134507e-06	7.773923e-09	5.127005e+01	5.106007e+02
1.420000e-06	7.199401e-06	7.810383e-09	5.173638e+01	5.128722e+02
1.430000e-06	7.261744e-06	7.842779e-09	5.218440e+01	5.150302e+02
1.440000e-06	7.321677e-06	7.871002e-09	5.261509e+01	5.170742e+02
1.450000e-06	7.379061e-06	7.897646e-09	5.302746e+01	5.189998e+02
1.460000e-06	7.433789e-06	7.925820e-09	5.342074e+01	5.207997e+02
1.470000e-06	7.485640e-06	7.951471e-09	5.379336e+01	5.224662e+02
1.480000e-06	7.534390e-06	7.974023e-09	5.414369e+01	5.239927e+02
1.490000e-06	7.580293e-06	7.994313e-09	5.447355e+01	5.253760e+02
1.500000e-06	7.623586e-06	8.012892e-09	5.478467e+01	5.266171e+02
1.510000e-06	7.664177e-06	8.030987e-09	5.507636e+01	5.277219e+02
1.520000e-06	7.702027e-06	8.048003e-09	5.534836e+01	5.287006e+02
1.530000e-06	7.737167e-06	8.063459e-09	5.560088e+01	5.295666e+02
1.540000e-06	7.769466e-06	8.076384e-09	5.583299e+01	5.303351e+02
1.550000e-06	7.799063e-06	8.087901e-09	5.604568e+01	5.310207e+02
1.560000e-06	7.825962e-06	8.098026e-09	5.623899e+01	5.316356e+02
1.570000e-06	7.849909e-06	8.106332e-09	5.641107e+01	5.321884e+02
1.580000e-06	7.871079e-06	8.114350e-09	5.656320e+01	5.326827e+02
1.590000e-06	7.889531e-06	8.121595e-09	5.669580e+01	5.331171e+02
1.600000e-06	7.905046e-06	8.128221e-09	5.680730e+01	5.334856e+02
1.610000e-06	7.917500e-06	8.132676e-09	5.689679e+01	5.337794e+02
1.620000e-06	7.926832e-06	8.133523e-09	5.696386e+01	5.339881e+02
1.630000e-06	7.933215e-06	8.134868e-09	5.700973e+01	5.341020e+02
1.640000e-06	7.936832e-06	8.137272e-09	5.703572e+01	5.341139e+02
1.650000e-06	7.937637e-06	8.140198e-09	5.704150e+01	5.340206e+02
1.660000e-06	7.935759e-06	8.137479e-09	5.702801e+01	5.338237e+02
1.670000e-06	7.931273e-06	8.133118e-09	5.699577e+01	5.335299e+02
1.680000e-06	7.924078e-06	8.130221e-09	5.694406e+01	5.331501e+02
1.690000e-06	7.914244e-06	8.124441e-09	5.687339e+01	5.326979e+02
1.700000e-06	7.901627e-06	8.118415e-09	5.678273e+01	5.321885e+02
1.710000e-06	7.886232e-06	8.115104e-09	5.667210e+01	5.316359e+02
1.720000e-06	7.868456e-06	8.109910e-09	5.654436e+01	5.310513e+02
1.730000e-06	7.848473e-06	8.081083e-09	5.640075e+01	5.304417e+02
1.740000e-06	7.825869e-06	7.996000e-09	5.623831e+01	5.298087e+02
1.750000e-06	7.799984e-06	7.995942e-09	5.605230e+01	5.291486e+02
1.760000e-06	7.770467e-06	8.033847e-09	5.584019e+01	5.284528e+02
1.770000e-06	7.737760e-06	8.028415e-09	5.560514e+01	5.277087e+02
1.780000e-06	7.702671e-06	8.042258e-09	5.535299e+01	5.269018e+02
1.790000e-06	7.665236e-06	8.088036e-09	5.508397e+01	5.260172e+02
1.800000e-06	7.625593e-06	8.022198e-09	5.479909e+01	5.250413e+02
1.810000e-06	7.583934e-06	7.950063e-09	5.449972e+01	5.239637e+02
1.820000e-06	7.539755e-06	8.010574e-09	5.418224e+01	5.227777e+02
1.830000e-06	7.492919e-06	7.935905e-09	5.384567e+01	5.214810e+02
1.840000e-06	7.443337e-06	7.965876e-09	5.348936e+01	5.200754e+02
1.850000e-06	7.390696e-06	7.959585e-09	5.311107e+01	5.185660e+02
1.860000e-06	7.335171e-06	7.869153e-09	5.271206e+01	5.169599e+02
1.870000e-06	7.277022e-06	7.889749e-09	5.229419e+01	5.152652e+02
1.880000e-06	7.216388e-06	7.802926e-09	5.185846e+01	5.134893e+02
1.890000e-06	7.153058e-06	7.837617e-09	5.140335e+01	5.116383e+02
1.900000e-06	7.086898e-06	7.826960e-09	5.092792e+01	5.097155e+02
1.910000e-06	7.018009e-06	7.748149e-09	5.043286e+01	5.077219e+02
1.920000e-06	6.946283e-06	7.735493e-09	4.991743e+01	5.056557e+02
1.930000e-06	6.871897e-06	7.651760e-09	4.938287e+01	5.035133e+02
1.940000e-06	6.794804e-06	7.649992e-09	4.882887e+01	5.012894e+02
1.950000e-06	6.715002e-06	7.597287e-09	4.825540e+01	4.989787e+02
1.960000e-06	6.632757e-06	7.590478e-09	4.766437e+01	4.965756e+02
1.970000e-06	6.548076e-06	7.577067e-09	4.705583e+01	4.940759e+02
1.980000e-06	6.460958e-06	7.498098e-09	4.642978e+01	4.914763e+02
1.990000e-06	6.371455e-06	7.487028e-09	4.578659e+01	4.887745e+02
2.000000e-06	6.279784e-06	7.423197e-09	4.512783e+01	4.859693e+02
2.010000e-06	6.185882e-06	7.372452e-09	4.445303e+01	4.830600e+02
2.020000e-06	6.089712e-06	7.302761e-09	4.376193e+01	4.800457e+02
2.030000e-06	5.991420e-06	7.267755e-09	4.305559e+01	4.769251e+02
2.040000e-06	5.891028e-06	7.235239e-09	4.233415e+01	4.736962e+02
2.050000e-06	5.788495e-06	7.192521e-09	4.159732e+01	4.703559e+02
2.060000e-06	5.683832e-06	7.150276e-09	4.084519e+01	4.669001e+02
2.070000e-06	5.577284e-06	7.076180e-09	4.007952e+01	4.633246e+02
2.080000e-06	5.468876e-06	7.007888e-09	3.930048e+01	4.596246e+02
2.090000e-06	5.358542e-06	6.934854e-09	3.850759e+01	4.557957e+02
2.100000e-06	5.246257e-06	6.893128e-09	3.770069e+01	4.518342e+02
2.110000e-06	5.132006e-06	6.842273e-09	3.687966e+01	4.477369e+02
2.120000e-06	5.015775e-06	6.782981e-09	3.604440e+01	4.435014e+02
2.130000e-06	4.897501e-06	6.704505e-09	3.519446e+01	4.391253e+02
2.140000e-06	4.777294e-06	6.630699e-09	3.433063e+01	4.346064e+02
2.150000e-06	4.655413e-06	6.562424e-09	3.345476e+01	4.299416e+02
2.160000e-06	4.531857e-06	6.495361e-09	3.256686e+01	4.251267e+02
2.170000e-06	4.406619e-06	6.421904e-09	3.166688e+01	4.201557e+02
2.180000e-06	4.279748e-06	6.337205e-09	3.075515e+01	4.150211e+02
2.190000e-06	4.151216e-06	6.253297e-09	2.983150e+01	4.097140e+02
2.200000e-06	4.021208e-06	6.164243e-09	2.889723e+01	4.042244e+02
2.210000e-06	3.889753e-06	6.078781e-09	2.795257e+01	3.985423e+02
2.220000e-06	3.756849e-06	5.991855e-09	2.699749e+01	3.926582e+02
2.230000e-06	3.622540e-06	5.906400e-09	2.603232e+01	3.865643e+02
2.240000e-06	3.486850e-06	5.811111e-09	2.505723e+01	3.802549e+02
2.250000e-06	3.349800e-06	5.717741e-09	2.407236e+01	3.737266e+02
2.260000e-06	3.211557e-06	5.620573e-09	2.307892e+01	3.669782e+02
2.270000e-06	3.072133e-06	5.511405e-09	2.207698e+01	3.600103e+02
2.280000e-06	2.931448e-06	5.387959e-09	2.106599e+01	3.528234e+02
2.290000e-06	2.789605e-06	5.265989e-09	2.004668e+01	3.454174e+02
2.300000e-06	2.646694e-06	5.152070e-09	1.901969e+01	3.377897e+02
2.310000e-06	2.502825e-06	5.038772e-09	1.798582e+01	3.299342e+02
2.320000e-06	2.358075e-06	4.923543e-09	1.694562e+01	3.218404e+02
2.330000e-06	2.212560e-06	4.799450e-09	1.589991e+01	3.134931e+02
2.340000e-06	2.066275e-06	4.666007e-09	1.484868e+01	3.048731e+02
2.350000e-06	1.919228e-06	4.526078e-09	1.379197e+01	2.959584e+02
2.360000e-06	1.771581e-06	4.386560e-09	1.273095e+01	2.867255e+02
2.370000e-06	1.623393e-06	4.244501e-09	1.166604e+01	2.771520e+02
2.380000e-06	1.474644e-06	4.093224e-09	1.059710e+01	2.672178e+02
2.390000e-06	1.325437e-06	3.934277e-09	9.524863e+00	2.569073e+02
2.400000e-06	1.175852e-06	3.770036e-09	8.449913e+00	2.462098e+02
2.410000e-06	1.025886e-06	3.600169e-09	7.372230e+00	2.351198e+02
2.420000e-06	8.756452e-07	3.425616e-09	6.292568e+00	2.236351e+02
2.430000e-06	7.251788e-07	3.246490e-09	5.211285e+00	2.117554e+02
2.440000e-06	5.744282e-07	3.061457e-09	4.127960e+00	1.994789e+02
2.450000e-06	4.233962e-07	2.868913e-09	3.042613e+00	1.867992e+02
2.460000e-06	2.721718e-07	2.671117e-09	1.955883e+00	1.737021e+02
2.470000e-06	1.208042e-07	2.463656e-09	8.681243e-01	1.601635e+02
2.480000e-06	-3.059398e-08	2.245479e-09	-2.198547e-01	1.461483e+02
2.490000e-06	-1.819359e-07	2.016912e-09	-1.307429e+00	1.316107e+02
2.500000e-06	-3.332272e-07	1.779728e-09	-2.394639e+00	1.164976e+02
2.510000e-06	-4.844260e-07	1.538212e-09	-3.481186e+00	1.007523e+02
2.520000e-06	-6.354759e-07	1.289195e-09	-4.566661e+00	8.432112e+01
2.530000e-06	-7.862671e-07	1.031190e-09	-5.650278e+00	6.716057e+01
2.540000e-06	-9.367978e-07	7.593615e-10	-6.732023e+00	4.924497e+01
2.550000e-06	-1.087040e-06	4.742056e-10	-7.811696e+00	3.057368e+01
2.560000e-06	-1.236895e-06	1.790866e-10	-8.888583e+00	1.117687e+01
2.570000e-06	-1.386382e-06	-1.261317e-10	-9.962828e+00	-8.880776e+00
2.580000e-06	-1.535445e-06	-4.395422e-10	-1.103403e+01	-2.949915e+01
2.590000e-06	-1.683958e-06	-7.620384e-10	-1.210127e+01	-5.054483e+01
2.600000e-06	-1.831890e-06	-1.089382e-09	-1.316434e+01	-7.185624e+01
2.610000e-06	-1.979130e-06	-1.418863e-09	-1.422244e+01	-9.325154e+01
2.620000e-06	-2.125534e-06	-1.746798e-09	-1.527453e+01	-1.145385e+02
2.630000e-06	-2.271123e-06	-2.066679e-09	-1.632076e+01	-1.355256e+02
2.640000e-06	-2.415926e-06	-2.375700e-09	-1.736134e+01	-1.560328e+02
2.650000e-06	-2.559747e-06	-2.676424e-09	-1.839487e+01	-1.759019e+02
2.660000e-06	-2.702499e-06	-2.969536e-09	-1.942072e+01	-1.950047e+02
2.670000e-06	-2.844232e-06	-3.249054e-09	-2.043924e+01	-2.132479e+02
2.680000e-06	-2.984860e-06	-3.511807e-09	-2.144982e+01	-2.305760e+02
2.690000e-06	-3.124247e-06	-3.760949e-09	-2.245149e+01	-2.469696e+02
2.700000e-06	-3.262363e-06	-3.999558e-09	-2.344401e+01	-2.624421e+02
2.710000e-06	-3.399303e-06	-4.225043e-09	-2.442810e+01	-2.770330e+02
2.720000e-06	-3.534949e-06	-4.438339e-09	-2.540287e+01	-2.908004e+02
2.730000e-06	-3.669220e-06	-4.640699e-09	-2.636778e+01	-3.038122e+02
2.740000e-06	-3.802198e-06	-4.830599e-09	-2.732338e+01	-3.161384e+02
2.750000e-06	-3.933840e-06	-5.007873e-09	-2.826939e+01	-3.278441e+02
2.760000e-06	-4.064122e-06	-5.176105e-09	-2.920562e+01	-3.389845e+02
2.770000e-06	-4.193054e-06	-5.339290e-09	-3.013215e+01	-3.496025e+02
2.780000e-06	-4.320523e-06	-5.496412e-09	-3.104817e+01	-3.597277e+02
2.790000e-06	-4.446478e-06	-5.643558e-09	-3.195331e+01	-3.693785e+02
2.800000e-06	-4.570920e-06	-5.782878e-09	-3.284757e+01	-3.785647e+02
2.810000e-06	-4.693683e-06	-5.916691e-09	-3.372977e+01	-3.872920e+02
2.820000e-06	-4.814720e-06	-6.042807e-09	-3.459958e+01	-3.955655e+02
2.830000e-06	-4.933954e-06	-6.160484e-09	-3.545642e+01	-4.033940e+02
2.840000e-06	-5.051280e-06	-6.271457e-09	-3.629954e+01	-4.107923e+02
2.850000e-06	-5.166614e-06	-6.379241e-09	-3.712836e+01	-4.177825e+02
2.860000e-06	-5.279853e-06	-6.481886e-09	-3.794211e+01	-4.243938e+02
2.870000e-06	-5.390985e-06	-6.577388e-09	-3.874074e+01	-4.306608e+02
2.880000e-06	-5.500093e-06	-6.667964e-09	-3.952480e+01	-4.366207e+02
2.890000e-06	-5.607368e-06	-6.755234e-09	-4.029571e+01	-4.423105e+02
2.900000e-06	-5.712791e-06	-6.839840e-09	-4.105330e+01	-4.477637e+02
2.910000e-06	-5.816059e-06	-6.921135e-09	-4.179541e+01	-4.530071e+02
2.920000e-06	-5.917049e-06	-6.998948e-09	-4.252114e+01	-4.580595e+02
2.930000e-06	-6.015888e-06	-7.074547e-09	-4.323142e+01	-4.629309e+02
2.940000e-06	-6.112648e-06	-7.146527e-09	-4.392676e+01	-4.676228e+02
