# Temperatura_=_27.85
# Concentracion g/m^3_=_10000.0
# C_Vs_to_Am_M_A/Vsm_=_65563218390.804596
# pendiente_HvsI_1/m_=_3716.3
# ordenada_HvsI_A/m_=_1297.0
# frecuencia_Hz_=_302613.0571504869

Tiempo_(s)	Campo_(V.s)	Magnetizacion_(V.s)	Campo_(kA/m)	Magnetizacion_(A/m)
0.000000e+00	-7.872455e-06	-8.118509e-09	-5.684338e+01	-5.319140e+02
1.000000e-08	-7.870442e-06	-8.122062e-09	-5.682885e+01	-5.316975e+02
2.000000e-08	-7.865751e-06	-8.120809e-09	-5.679498e+01	-5.313678e+02
3.000000e-08	-7.858567e-06	-8.114690e-09	-5.674311e+01	-5.309396e+02
4.000000e-08	-7.848610e-06	-8.107878e-09	-5.667121e+01	-5.304328e+02
5.000000e-08	-7.835732e-06	-8.098071e-09	-5.657822e+01	-5.298701e+02
6.000000e-08	-7.819912e-06	-8.083890e-09	-5.646399e+01	-5.292745e+02
7.000000e-08	-7.801520e-06	-8.070807e-09	-5.633119e+01	-5.286655e+02
8.000000e-08	-7.780954e-06	-8.063581e-09	-5.618269e+01	-5.280573e+02
9.000000e-08	-7.757815e-06	-8.084584e-09	-5.601562e+01	-5.274564e+02
1.000000e-07	-7.731550e-06	-8.114603e-09	-5.582597e+01	-5.268607e+02
1.100000e-07	-7.702076e-06	-8.083548e-09	-5.561316e+01	-5.262595e+02
1.200000e-07	-7.669750e-06	-8.040680e-09	-5.537974e+01	-5.256349e+02
1.300000e-07	-7.634790e-06	-8.002928e-09	-5.512731e+01	-5.249636e+02
1.400000e-07	-7.597372e-06	-7.938636e-09	-5.485713e+01	-5.242199e+02
1.500000e-07	-7.557830e-06	-7.896445e-09	-5.457162e+01	-5.233785e+02
1.600000e-07	-7.516091e-06	-7.954696e-09	-5.427024e+01	-5.224170e+02
1.700000e-07	-7.471747e-06	-8.019070e-09	-5.395005e+01	-5.213188e+02
1.800000e-07	-7.424748e-06	-7.949712e-09	-5.361069e+01	-5.200740e+02
1.900000e-07	-7.374974e-06	-7.910653e-09	-5.325130e+01	-5.186804e+02
2.000000e-07	-7.322197e-06	-7.861394e-09	-5.287022e+01	-5.171431e+02
2.100000e-07	-7.266631e-06	-7.786843e-09	-5.246901e+01	-5.154727e+02
2.200000e-07	-7.208423e-06	-7.801187e-09	-5.204871e+01	-5.136842e+02
2.300000e-07	-7.147572e-06	-7.794596e-09	-5.160933e+01	-5.117942e+02
2.400000e-07	-7.084097e-06	-7.765063e-09	-5.115101e+01	-5.098188e+02
2.500000e-07	-7.017897e-06	-7.714229e-09	-5.067301e+01	-5.077716e+02
2.600000e-07	-6.949049e-06	-7.694017e-09	-5.017589e+01	-5.056624e+02
2.700000e-07	-6.877539e-06	-7.697793e-09	-4.965955e+01	-5.034961e+02
2.800000e-07	-6.803248e-06	-7.656498e-09	-4.912313e+01	-5.012725e+02
2.900000e-07	-6.726218e-06	-7.610505e-09	-4.856693e+01	-4.989873e+02
3.000000e-07	-6.646459e-06	-7.571627e-09	-4.799103e+01	-4.966327e+02
3.100000e-07	-6.564212e-06	-7.546043e-09	-4.739716e+01	-4.941990e+02
3.200000e-07	-6.479785e-06	-7.502623e-09	-4.678755e+01	-4.916756e+02
3.300000e-07	-6.393123e-06	-7.456589e-09	-4.616180e+01	-4.890530e+02
3.400000e-07	-6.304151e-06	-7.415787e-09	-4.551938e+01	-4.863230e+02
3.500000e-07	-6.212870e-06	-7.343922e-09	-4.486028e+01	-4.834796e+02
3.600000e-07	-6.119315e-06	-7.299121e-09	-4.418476e+01	-4.805194e+02
3.700000e-07	-6.023543e-06	-7.274517e-09	-4.349324e+01	-4.774407e+02
3.800000e-07	-5.925521e-06	-7.241537e-09	-4.278546e+01	-4.742437e+02
3.900000e-07	-5.825357e-06	-7.195828e-09	-4.206223e+01	-4.709291e+02
4.000000e-07	-5.723214e-06	-7.138075e-09	-4.132470e+01	-4.674979e+02
4.100000e-07	-5.619101e-06	-7.067948e-09	-4.057295e+01	-4.639506e+02
4.200000e-07	-5.512945e-06	-6.998191e-09	-3.980644e+01	-4.602866e+02
4.300000e-07	-5.404773e-06	-6.963990e-09	-3.902539e+01	-4.565045e+02
4.400000e-07	-5.294752e-06	-6.921396e-09	-3.823097e+01	-4.526015e+02
4.500000e-07	-5.182820e-06	-6.844806e-09	-3.742276e+01	-4.485741e+02
4.600000e-07	-5.068869e-06	-6.764276e-09	-3.659997e+01	-4.444180e+02
4.700000e-07	-4.952884e-06	-6.699720e-09	-3.576250e+01	-4.401285e+02
4.800000e-07	-4.835040e-06	-6.631464e-09	-3.491160e+01	-4.357008e+02
4.900000e-07	-4.715430e-06	-6.565458e-09	-3.404796e+01	-4.311298e+02
5.000000e-07	-4.594113e-06	-6.507711e-09	-3.317198e+01	-4.264103e+02
5.100000e-07	-4.471108e-06	-6.432788e-09	-3.228382e+01	-4.215367e+02
5.200000e-07	-4.346409e-06	-6.343488e-09	-3.138342e+01	-4.165030e+02
5.300000e-07	-4.220177e-06	-6.267408e-09	-3.047196e+01	-4.113027e+02
5.400000e-07	-4.092434e-06	-6.199480e-09	-2.954958e+01	-4.059287e+02
5.500000e-07	-3.963242e-06	-6.106797e-09	-2.861675e+01	-4.003733e+02
5.600000e-07	-3.832581e-06	-6.006171e-09	-2.767330e+01	-3.946289e+02
5.700000e-07	-3.700368e-06	-5.921890e-09	-2.671866e+01	-3.886881e+02
5.800000e-07	-3.566723e-06	-5.832597e-09	-2.575367e+01	-3.825442e+02
5.900000e-07	-3.431756e-06	-5.725449e-09	-2.477913e+01	-3.761916e+02
6.000000e-07	-3.295450e-06	-5.622713e-09	-2.379493e+01	-3.696258e+02
6.100000e-07	-3.157920e-06	-5.524863e-09	-2.280189e+01	-3.628437e+02
6.200000e-07	-3.019149e-06	-5.411495e-09	-2.179989e+01	-3.558429e+02
6.300000e-07	-2.879005e-06	-5.296508e-09	-2.078797e+01	-3.486215e+02
6.400000e-07	-2.737609e-06	-5.195482e-09	-1.976702e+01	-3.411766e+02
6.500000e-07	-2.595148e-06	-5.091598e-09	-1.873837e+01	-3.335040e+02
6.600000e-07	-2.451779e-06	-4.967269e-09	-1.770317e+01	-3.255970e+02
6.700000e-07	-2.307547e-06	-4.833162e-09	-1.666174e+01	-3.174458e+02
6.800000e-07	-2.162403e-06	-4.700989e-09	-1.561372e+01	-3.090372e+02
6.900000e-07	-2.016410e-06	-4.563306e-09	-1.455957e+01	-3.003551e+02
7.000000e-07	-1.869786e-06	-4.424082e-09	-1.350086e+01	-2.913809e+02
7.100000e-07	-1.722643e-06	-4.284382e-09	-1.243841e+01	-2.820949e+02
7.200000e-07	-1.574975e-06	-4.135786e-09	-1.137217e+01	-2.724778e+02
7.300000e-07	-1.426779e-06	-3.978757e-09	-1.030212e+01	-2.625120e+02
7.400000e-07	-1.278070e-06	-3.821135e-09	-9.228355e+00	-2.521831e+02
7.500000e-07	-1.129007e-06	-3.664951e-09	-8.152042e+00	-2.414807e+02
7.600000e-07	-9.796971e-07	-3.502171e-09	-7.073943e+00	-2.303979e+02
7.700000e-07	-8.301160e-07	-3.328987e-09	-5.993887e+00	-2.189315e+02
7.800000e-07	-6.802282e-07	-3.147082e-09	-4.911616e+00	-2.070793e+02
7.900000e-07	-5.300922e-07	-2.958768e-09	-3.827552e+00	-1.948385e+02
8.000000e-07	-3.797801e-07	-2.765169e-09	-2.742218e+00	-1.822027e+02
8.100000e-07	-2.292740e-07	-2.566754e-09	-1.655482e+00	-1.691592e+02
8.200000e-07	-7.862163e-08	-2.360270e-09	-5.676906e-01	-1.556871e+02
8.300000e-07	7.210057e-08	-2.145640e-09	5.206051e-01	-1.417560e+02
8.400000e-07	2.228632e-07	-1.925167e-09	1.609192e+00	-1.273263e+02
8.500000e-07	3.735725e-07	-1.697422e-09	2.697395e+00	-1.123513e+02
8.600000e-07	5.241611e-07	-1.461630e-09	3.784726e+00	-9.678074e+01
8.700000e-07	6.745502e-07	-1.217413e-09	4.870617e+00	-8.056622e+01
8.800000e-07	8.246586e-07	-9.634822e-10	5.954481e+00	-6.366751e+01
8.900000e-07	9.745132e-07	-6.967004e-10	7.036512e+00	-4.605955e+01
9.000000e-07	1.124078e-06	-4.197479e-10	8.116453e+00	-2.773919e+01
9.100000e-07	1.273335e-06	-1.362196e-10	9.194165e+00	-8.730932e+00
9.200000e-07	1.422280e-06	1.588114e-10	1.026963e+01	1.090917e+01
9.300000e-07	1.570734e-06	4.676330e-10	1.134155e+01	3.109197e+01
9.400000e-07	1.718514e-06	7.866747e-10	1.240860e+01	5.169649e+01
9.500000e-07	1.865572e-06	1.110159e-09	1.347044e+01	7.257412e+01
9.600000e-07	2.012049e-06	1.434437e-09	1.452808e+01	9.355539e+01
9.700000e-07	2.157885e-06	1.757296e-09	1.558109e+01	1.144589e+02
9.800000e-07	2.302808e-06	2.075218e-09	1.662752e+01	1.351018e+02
9.900000e-07	2.446823e-06	2.383013e-09	1.766738e+01	1.553097e+02
1.000000e-06	2.589857e-06	2.680520e-09	1.870017e+01	1.749275e+02
1.010000e-06	2.731900e-06	2.965234e-09	1.972580e+01	1.938271e+02
1.020000e-06	2.872970e-06	3.235146e-09	2.074439e+01	2.119130e+02
1.030000e-06	3.012756e-06	3.491702e-09	2.175373e+01	2.291259e+02
1.040000e-06	3.151279e-06	3.737599e-09	2.275394e+01	2.454417e+02
1.050000e-06	3.288680e-06	3.972779e-09	2.374605e+01	2.608688e+02
1.060000e-06	3.424795e-06	4.195423e-09	2.472887e+01	2.754420e+02
1.070000e-06	3.559575e-06	4.406115e-09	2.570205e+01	2.892153e+02
1.080000e-06	3.693178e-06	4.606689e-09	2.666674e+01	3.022536e+02
1.090000e-06	3.825456e-06	4.797009e-09	2.762186e+01	3.146245e+02
1.100000e-06	3.956202e-06	4.977133e-09	2.856592e+01	3.263914e+02
1.110000e-06	4.085556e-06	5.150300e-09	2.949992e+01	3.376081e+02
1.120000e-06	4.213534e-06	5.314185e-09	3.042399e+01	3.483156e+02
1.130000e-06	4.340057e-06	5.467981e-09	3.133756e+01	3.585416e+02
1.140000e-06	4.465147e-06	5.614819e-09	3.224078e+01	3.683015e+02
1.150000e-06	4.588664e-06	5.755468e-09	3.313263e+01	3.776015e+02
1.160000e-06	4.710532e-06	5.889553e-09	3.401259e+01	3.864433e+02
1.170000e-06	4.830743e-06	6.017394e-09	3.488058e+01	3.948276e+02
1.180000e-06	4.949194e-06	6.138490e-09	3.573586e+01	4.027590e+02
1.190000e-06	5.065788e-06	6.253290e-09	3.657773e+01	4.102490e+02
1.200000e-06	5.180417e-06	6.360761e-09	3.740541e+01	4.173172e+02
1.210000e-06	5.293077e-06	6.461073e-09	3.821887e+01	4.239919e+02
1.220000e-06	5.403764e-06	6.555803e-09	3.901810e+01	4.303083e+02
1.230000e-06	5.512558e-06	6.647144e-09	3.980365e+01	4.363060e+02
1.240000e-06	5.619385e-06	6.734740e-09	4.057500e+01	4.420253e+02
1.250000e-06	5.724135e-06	6.819950e-09	4.133135e+01	4.475038e+02
1.260000e-06	5.826786e-06	6.903759e-09	4.207255e+01	4.527726e+02
1.270000e-06	5.927262e-06	6.983825e-09	4.279804e+01	4.578547e+02
1.280000e-06	6.025573e-06	7.056794e-09	4.350790e+01	4.627631e+02
1.290000e-06	6.121657e-06	7.124962e-09	4.420167e+01	4.675011e+02
1.300000e-06	6.215522e-06	7.191709e-09	4.487943e+01	4.720640e+02
1.310000e-06	6.307110e-06	7.255734e-09	4.554074e+01	4.764416e+02
1.320000e-06	6.396369e-06	7.316492e-09	4.618524e+01	4.806209e+02
1.330000e-06	6.483360e-06	7.374589e-09	4.681336e+01	4.845899e+02
1.340000e-06	6.568101e-06	7.430080e-09	4.742524e+01	4.883399e+02
1.350000e-06	6.650544e-06	7.485137e-09	4.802052e+01	4.918681e+02
1.360000e-06	6.730584e-06	7.538542e-09	4.859845e+01	4.951784e+02
1.370000e-06	6.808158e-06	7.586870e-09	4.915858e+01	4.982812e+02
1.380000e-06	6.883162e-06	7.632175e-09	4.970015e+01	5.011922e+02
1.390000e-06	6.955555e-06	7.673828e-09	5.022286e+01	5.039304e+02
1.400000e-06	7.025486e-06	7.713059e-09	5.072781e+01	5.065154e+02
1.410000e-06	7.092978e-06	7.751479e-09	5.121514e+01	5.089651e+02
1.420000e-06	7.157897e-06	7.787125e-09	5.168389e+01	5.112931e+02
1.430000e-06	7.220283e-06	7.818946e-09	5.213434e+01	5.135075e+02
1.440000e-06	7.280178e-06	7.848091e-09	5.256682e+01	5.156105e+02
1.450000e-06	7.337551e-06	7.876599e-09	5.298108e+01	5.175989e+02
1.460000e-06	7.392343e-06	7.905748e-09	5.337671e+01	5.194652e+02
1.470000e-06	7.444274e-06	7.932921e-09	5.375168e+01	5.212001e+02
1.480000e-06	7.493152e-06	7.957337e-09	5.410461e+01	5.227948e+02
1.490000e-06	7.539196e-06	7.978798e-09	5.443707e+01	5.242433e+02
1.500000e-06	7.582589e-06	7.996680e-09	5.475039e+01	5.255439e+02
1.510000e-06	7.623226e-06	8.012634e-09	5.504382e+01	5.267007e+02
1.520000e-06	7.661150e-06	8.028612e-09	5.531765e+01	5.277232e+02
1.530000e-06	7.696465e-06	8.044911e-09	5.557264e+01	5.286255e+02
1.540000e-06	7.728975e-06	8.059994e-09	5.580737e+01	5.294248e+02
1.550000e-06	7.758727e-06	8.072830e-09	5.602220e+01	5.301388e+02
1.560000e-06	7.785776e-06	8.083328e-09	5.621751e+01	5.307832e+02
1.570000e-06	7.809957e-06	8.092360e-09	5.639211e+01	5.313698e+02
1.580000e-06	7.831337e-06	8.101332e-09	5.654649e+01	5.319047e+02
1.590000e-06	7.849974e-06	8.109286e-09	5.668106e+01	5.323874e+02
1.600000e-06	7.865753e-06	8.114295e-09	5.679499e+01	5.328112e+02
1.610000e-06	7.878499e-06	8.117140e-09	5.688702e+01	5.331644e+02
1.620000e-06	7.888104e-06	8.118962e-09	5.695637e+01	5.334325e+02
1.630000e-06	7.894762e-06	8.121254e-09	5.700445e+01	5.336005e+02
1.640000e-06	7.898726e-06	8.123740e-09	5.703307e+01	5.336558e+02
1.650000e-06	7.899893e-06	8.126501e-09	5.704150e+01	5.335906e+02
1.660000e-06	7.898295e-06	8.126559e-09	5.702996e+01	5.334035e+02
1.670000e-06	7.894187e-06	8.120452e-09	5.700030e+01	5.331006e+02
1.680000e-06	7.887402e-06	8.116141e-09	5.695131e+01	5.326950e+02
1.690000e-06	7.877956e-06	8.110615e-09	5.688310e+01	5.322053e+02
1.700000e-06	7.865821e-06	8.102835e-09	5.679548e+01	5.316541e+02
1.710000e-06	7.850859e-06	8.097730e-09	5.668744e+01	5.310643e+02
1.720000e-06	7.833376e-06	8.092888e-09	5.656121e+01	5.304566e+02
1.730000e-06	7.813678e-06	8.081466e-09	5.641898e+01	5.298469e+02
1.740000e-06	7.791456e-06	8.012943e-09	5.625853e+01	5.292437e+02
1.750000e-06	7.766003e-06	7.978810e-09	5.607474e+01	5.286470e+02
1.760000e-06	7.736962e-06	8.006502e-09	5.586505e+01	5.280482e+02
1.770000e-06	7.704682e-06	8.009176e-09	5.563197e+01	5.274311e+02
1.780000e-06	7.669944e-06	8.026185e-09	5.538114e+01	5.267734e+02
1.790000e-06	7.632917e-06	8.077075e-09	5.511379e+01	5.260499e+02
1.800000e-06	7.593679e-06	8.075965e-09	5.483047e+01	5.252348e+02
1.810000e-06	7.552404e-06	7.971747e-09	5.453244e+01	5.243048e+02
1.820000e-06	7.508674e-06	7.964744e-09	5.421669e+01	5.232415e+02
1.830000e-06	7.462387e-06	7.952765e-09	5.388247e+01	5.220335e+02
1.840000e-06	7.413477e-06	7.953677e-09	5.352932e+01	5.206766e+02
1.850000e-06	7.361586e-06	8.018935e-09	5.315463e+01	5.191740e+02
1.860000e-06	7.306827e-06	7.946092e-09	5.275924e+01	5.175352e+02
1.870000e-06	7.249348e-06	7.904848e-09	5.234421e+01	5.157743e+02
1.880000e-06	7.189280e-06	7.812423e-09	5.191049e+01	5.139077e+02
1.890000e-06	7.126535e-06	7.770580e-09	5.145743e+01	5.119519e+02
1.900000e-06	7.060998e-06	7.808512e-09	5.098423e+01	5.099212e+02
1.910000e-06	6.992727e-06	7.760939e-09	5.049127e+01	5.078265e+02
1.920000e-06	6.921660e-06	7.752351e-09	4.997812e+01	5.056738e+02
1.930000e-06	6.847966e-06	7.659487e-09	4.944602e+01	5.034645e+02
1.940000e-06	6.771552e-06	7.625274e-09	4.889427e+01	5.011949e+02
1.950000e-06	6.692328e-06	7.615792e-09	4.832223e+01	4.988582e+02
1.960000e-06	6.610631e-06	7.580356e-09	4.773233e+01	4.964448e+02
1.970000e-06	6.526615e-06	7.567496e-09	4.712569e+01	4.939444e+02
1.980000e-06	6.440225e-06	7.487136e-09	4.650190e+01	4.913471e+02
1.990000e-06	6.351393e-06	7.469024e-09	4.586049e+01	4.886441e+02
2.000000e-06	6.260368e-06	7.415787e-09	4.520324e+01	4.858292e+02
2.010000e-06	6.167197e-06	7.382463e-09	4.453050e+01	4.828980e+02
2.020000e-06	6.071709e-06	7.331865e-09	4.384102e+01	4.798486e+02
2.030000e-06	5.974030e-06	7.252487e-09	4.313572e+01	4.766807e+02
2.040000e-06	5.874279e-06	7.192441e-09	4.241547e+01	4.733950e+02
2.050000e-06	5.772527e-06	7.155266e-09	4.168076e+01	4.699925e+02
2.060000e-06	5.668703e-06	7.164265e-09	4.093110e+01	4.664739e+02
2.070000e-06	5.562891e-06	7.093403e-09	4.016708e+01	4.628388e+02
2.080000e-06	5.455183e-06	7.004851e-09	3.938937e+01	4.590861e+02
2.090000e-06	5.345558e-06	6.922149e-09	3.859782e+01	4.552132e+02
2.100000e-06	5.233972e-06	6.862094e-09	3.779211e+01	4.512169e+02
2.110000e-06	5.120430e-06	6.813476e-09	3.697227e+01	4.470930e+02
2.120000e-06	5.004944e-06	6.781858e-09	3.613840e+01	4.428369e+02
2.130000e-06	4.887482e-06	6.724367e-09	3.529026e+01	4.384439e+02
2.140000e-06	4.768095e-06	6.621240e-09	3.442823e+01	4.339088e+02
2.150000e-06	4.646892e-06	6.528472e-09	3.355307e+01	4.292265e+02
2.160000e-06	4.524024e-06	6.469417e-09	3.266590e+01	4.243916e+02
2.170000e-06	4.399505e-06	6.419446e-09	3.176680e+01	4.193981e+02
2.180000e-06	4.273402e-06	6.331002e-09	3.085627e+01	4.142398e+02
2.190000e-06	4.145683e-06	6.240263e-09	2.993407e+01	4.089095e+02
2.200000e-06	4.016426e-06	6.146796e-09	2.900076e+01	4.033997e+02
2.210000e-06	3.885765e-06	6.054160e-09	2.805733e+01	3.977029e+02
2.220000e-06	3.753648e-06	5.972372e-09	2.710337e+01	3.918115e+02
2.230000e-06	3.620161e-06	5.903282e-09	2.613952e+01	3.857186e+02
2.240000e-06	3.485394e-06	5.810025e-09	2.516643e+01	3.794182e+02
2.250000e-06	3.349243e-06	5.696148e-09	2.418335e+01	3.729057e+02
2.260000e-06	3.211811e-06	5.592964e-09	2.319101e+01	3.661775e+02
2.270000e-06	3.073174e-06	5.501421e-09	2.218998e+01	3.592312e+02
2.280000e-06	2.933300e-06	5.392558e-09	2.118001e+01	3.520648e+02
2.290000e-06	2.792277e-06	5.262540e-09	2.016175e+01	3.446757e+02
2.300000e-06	2.650226e-06	5.137416e-09	1.913606e+01	3.370602e+02
2.310000e-06	2.507189e-06	5.016885e-09	1.810326e+01	3.292122e+02
2.320000e-06	2.363127e-06	4.903657e-09	1.706305e+01	3.211227e+02
2.330000e-06	2.218181e-06	4.792328e-09	1.601647e+01	3.127795e+02
2.340000e-06	2.072572e-06	4.670144e-09	1.496509e+01	3.041671e+02
2.350000e-06	1.926363e-06	4.524754e-09	1.390938e+01	2.952674e+02
2.360000e-06	1.779507e-06	4.371240e-09	1.284900e+01	2.860608e+02
2.370000e-06	1.632054e-06	4.228250e-09	1.178432e+01	2.765278e+02
2.380000e-06	1.484073e-06	4.089278e-09	1.071581e+01	2.666503e+02
2.390000e-06	1.335636e-06	3.938577e-09	9.644015e+00	2.564130e+02
2.400000e-06	1.186741e-06	3.769964e-09	8.568910e+00	2.458043e+02
2.410000e-06	1.037364e-06	3.591939e-09	7.490330e+00	2.348167e+02
2.420000e-06	8.876538e-07	3.414366e-09	6.409340e+00	2.234460e+02
2.430000e-06	7.377499e-07	3.242021e-09	5.326953e+00	2.116901e+02
2.440000e-06	5.876985e-07	3.068287e-09	4.243501e+00	1.995464e+02
2.450000e-06	4.374710e-07	2.880450e-09	3.158777e+00	1.870099e+02
2.460000e-06	2.871132e-07	2.679139e-09	2.073112e+00	1.740695e+02
2.470000e-06	1.366648e-07	2.470261e-09	9.867941e-01	1.607067e+02
2.480000e-06	-1.386364e-08	2.256485e-09	-1.001030e-01	1.468933e+02
2.490000e-06	-1.643384e-07	2.035840e-09	-1.186612e+00	1.325920e+02
2.500000e-06	-3.147655e-07	1.804816e-09	-2.272777e+00	1.177576e+02
2.510000e-06	-4.651897e-07	1.564590e-09	-3.358921e+00	1.023403e+02
2.520000e-06	-6.155205e-07	1.317066e-09	-4.444391e+00	8.629059e+01
2.530000e-06	-7.657010e-07	1.065115e-09	-5.528775e+00	6.956561e+01
2.540000e-06	-9.156867e-07	8.050730e-10	-6.611753e+00	5.213584e+01
2.550000e-06	-1.065411e-06	5.308331e-10	-7.692847e+00	3.399206e+01
2.560000e-06	-1.214739e-06	2.402189e-10	-8.771072e+00	1.515142e+01
2.570000e-06	-1.363584e-06	-6.190471e-11	-9.845813e+00	-4.338172e+00
2.580000e-06	-1.511958e-06	-3.672293e-10	-1.091715e+01	-2.439582e+01
2.590000e-06	-1.659835e-06	-6.763243e-10	-1.198491e+01	-4.490825e+01
2.600000e-06	-1.807137e-06	-9.910817e-10	-1.304851e+01	-6.573319e+01
2.610000e-06	-1.953714e-06	-1.313753e-09	-1.410687e+01	-8.670564e+01
2.620000e-06	-2.099568e-06	-1.640336e-09	-1.516002e+01	-1.076463e+02
2.630000e-06	-2.244711e-06	-1.960787e-09	-1.620803e+01	-1.283715e+02
2.640000e-06	-2.388900e-06	-2.268353e-09	-1.724915e+01	-1.487040e+02
2.650000e-06	-2.532023e-06	-2.565212e-09	-1.828258e+01	-1.684830e+02
2.660000e-06	-2.674167e-06	-2.854455e-09	-1.930893e+01	-1.875727e+02
2.670000e-06	-2.815262e-06	-3.134468e-09	-2.032772e+01	-2.058694e+02
2.680000e-06	-2.955240e-06	-3.401791e-09	-2.133843e+01	-2.233046e+02
2.690000e-06	-3.094021e-06	-3.653636e-09	-2.234051e+01	-2.398454e+02
2.700000e-06	-3.231624e-06	-3.891854e-09	-2.333407e+01	-2.554927e+02
2.710000e-06	-3.368018e-06	-4.117921e-09	-2.431891e+01	-2.702754e+02
2.720000e-06	-3.503083e-06	-4.334033e-09	-2.529415e+01	-2.842432e+02
2.730000e-06	-3.636939e-06	-4.540298e-09	-2.626066e+01	-2.974593e+02
2.740000e-06	-3.769523e-06	-4.733443e-09	-2.721799e+01	-3.099912e+02
2.750000e-06	-3.900660e-06	-4.914888e-09	-2.816488e+01	-3.219040e+02
2.760000e-06	-4.030444e-06	-5.088038e-09	-2.910199e+01	-3.332543e+02
2.770000e-06	-4.158885e-06	-5.254769e-09	-3.002940e+01	-3.440864e+02
2.780000e-06	-4.285831e-06	-5.414699e-09	-3.094602e+01	-3.544312e+02
2.790000e-06	-4.411402e-06	-5.564473e-09	-3.185271e+01	-3.643071e+02
2.800000e-06	-4.535453e-06	-5.704190e-09	-3.274842e+01	-3.737223e+02
2.810000e-06	-4.657794e-06	-5.837572e-09	-3.363179e+01	-3.826789e+02
2.820000e-06	-4.778509e-06	-5.966584e-09	-3.450342e+01	-3.911777e+02
2.830000e-06	-4.897415e-06	-6.089568e-09	-3.536198e+01	-3.992220e+02
2.840000e-06	-5.014358e-06	-6.206372e-09	-3.620637e+01	-4.068212e+02
2.850000e-06	-5.129247e-06	-6.316021e-09	-3.703593e+01	-4.139929e+02
2.860000e-06	-5.242050e-06	-6.418991e-09	-3.785044e+01	-4.207633e+02
2.870000e-06	-5.352871e-06	-6.517252e-09	-3.865063e+01	-4.271661e+02
2.880000e-06	-5.461785e-06	-6.611901e-09	-3.943704e+01	-4.332401e+02
2.890000e-06	-5.568837e-06	-6.702206e-09	-4.021001e+01	-4.390257e+02
2.900000e-06	-5.673965e-06	-6.787852e-09	-4.096909e+01	-4.445615e+02
2.910000e-06	-5.776947e-06	-6.870751e-09	-4.171268e+01	-4.498806e+02
2.920000e-06	-5.877692e-06	-6.949505e-09	-4.244012e+01	-4.550082e+02
2.930000e-06	-5.976371e-06	-7.024832e-09	-4.315263e+01	-4.599597e+02
2.940000e-06	-6.072955e-06	-7.098300e-09	-4.385002e+01	-4.647408e+02
