# Temperatura_=_59.68
# Concentracion g/m^3_=_10000.0
# C_Vs_to_Am_M_A/Vsm_=_65563218390.804596
# pendiente_HvsI_1/m_=_3716.3
# ordenada_HvsI_A/m_=_1297.0
# frecuencia_Hz_=_302619.13738786

Tiempo_(s)	Campo_(V.s)	Magnetizacion_(V.s)	Campo_(kA/m)	Magnetizacion_(A/m)
0.000000e+00	-7.874671e-06	-9.676293e-09	-5.682041e+01	-6.334494e+02
1.000000e-08	-7.870248e-06	-9.673472e-09	-5.678849e+01	-6.330690e+02
2.000000e-08	-7.863305e-06	-9.663885e-09	-5.673840e+01	-6.325733e+02
3.000000e-08	-7.853658e-06	-9.654661e-09	-5.666879e+01	-6.319774e+02
4.000000e-08	-7.841123e-06	-9.644942e-09	-5.657834e+01	-6.312971e+02
5.000000e-08	-7.825647e-06	-9.632549e-09	-5.646667e+01	-6.305475e+02
6.000000e-08	-7.807525e-06	-9.619383e-09	-5.633591e+01	-6.297408e+02
7.000000e-08	-7.787155e-06	-9.609117e-09	-5.618893e+01	-6.288853e+02
8.000000e-08	-7.764276e-06	-9.613404e-09	-5.602384e+01	-6.279846e+02
9.000000e-08	-7.738337e-06	-9.651657e-09	-5.583668e+01	-6.270372e+02
1.000000e-07	-7.709218e-06	-9.613579e-09	-5.562657e+01	-6.260371e+02
1.100000e-07	-7.677234e-06	-9.543329e-09	-5.539578e+01	-6.249746e+02
1.200000e-07	-7.642571e-06	-9.510504e-09	-5.514567e+01	-6.238376e+02
1.300000e-07	-7.605379e-06	-9.469320e-09	-5.487730e+01	-6.226127e+02
1.400000e-07	-7.565982e-06	-9.424821e-09	-5.459303e+01	-6.212865e+02
1.500000e-07	-7.524428e-06	-9.433465e-09	-5.429320e+01	-6.198471e+02
1.600000e-07	-7.480348e-06	-9.479111e-09	-5.397513e+01	-6.182846e+02
1.700000e-07	-7.433637e-06	-9.386614e-09	-5.363809e+01	-6.165915e+02
1.800000e-07	-7.384225e-06	-9.351379e-09	-5.328155e+01	-6.147629e+02
1.900000e-07	-7.331825e-06	-9.353974e-09	-5.290345e+01	-6.127963e+02
2.000000e-07	-7.276540e-06	-9.257457e-09	-5.250454e+01	-6.106911e+02
2.100000e-07	-7.218497e-06	-9.253831e-09	-5.208573e+01	-6.084484e+02
2.200000e-07	-7.157829e-06	-9.223131e-09	-5.164797e+01	-6.060699e+02
2.300000e-07	-7.094642e-06	-9.161869e-09	-5.119204e+01	-6.035582e+02
2.400000e-07	-7.028708e-06	-9.141381e-09	-5.071628e+01	-6.009160e+02
2.500000e-07	-6.960078e-06	-9.104401e-09	-5.022108e+01	-5.981461e+02
2.600000e-07	-6.888863e-06	-9.071390e-09	-4.970722e+01	-5.952513e+02
2.700000e-07	-6.814868e-06	-9.014132e-09	-4.917331e+01	-5.922344e+02
2.800000e-07	-6.738101e-06	-8.973111e-09	-4.861938e+01	-5.890981e+02
2.900000e-07	-6.658611e-06	-8.916625e-09	-4.804581e+01	-5.858447e+02
3.000000e-07	-6.576552e-06	-8.872251e-09	-4.745371e+01	-5.824764e+02
3.100000e-07	-6.492235e-06	-8.830298e-09	-4.684532e+01	-5.789943e+02
3.200000e-07	-6.405674e-06	-8.747201e-09	-4.622073e+01	-5.753988e+02
3.300000e-07	-6.316827e-06	-8.696975e-09	-4.557964e+01	-5.716889e+02
3.400000e-07	-6.225658e-06	-8.634151e-09	-4.492180e+01	-5.678623e+02
3.500000e-07	-6.132233e-06	-8.576667e-09	-4.424769e+01	-5.639152e+02
3.600000e-07	-6.036624e-06	-8.525744e-09	-4.355781e+01	-5.598425e+02
3.700000e-07	-5.938764e-06	-8.467401e-09	-4.285169e+01	-5.556382e+02
3.800000e-07	-5.838736e-06	-8.399823e-09	-4.212993e+01	-5.512964e+02
3.900000e-07	-5.736703e-06	-8.321274e-09	-4.139370e+01	-5.468111e+02
4.000000e-07	-5.632677e-06	-8.254192e-09	-4.064309e+01	-5.421777e+02
4.100000e-07	-5.526614e-06	-8.179428e-09	-3.987779e+01	-5.373929e+02
4.200000e-07	-5.418588e-06	-8.113915e-09	-3.909832e+01	-5.324550e+02
4.300000e-07	-5.308732e-06	-8.035055e-09	-3.830564e+01	-5.273642e+02
4.400000e-07	-5.196952e-06	-7.953947e-09	-3.749908e+01	-5.221217e+02
4.500000e-07	-5.083085e-06	-7.870231e-09	-3.667746e+01	-5.167292e+02
4.600000e-07	-4.967234e-06	-7.781881e-09	-3.584153e+01	-5.111879e+02
4.700000e-07	-4.849514e-06	-7.695686e-09	-3.499211e+01	-5.054976e+02
4.800000e-07	-4.729977e-06	-7.611649e-09	-3.412958e+01	-4.996557e+02
4.900000e-07	-4.608708e-06	-7.525149e-09	-3.325456e+01	-4.936567e+02
5.000000e-07	-4.485738e-06	-7.425232e-09	-3.236725e+01	-4.874919e+02
5.100000e-07	-4.361135e-06	-7.326405e-09	-3.146817e+01	-4.811500e+02
5.200000e-07	-4.234985e-06	-7.226798e-09	-3.055792e+01	-4.746175e+02
5.300000e-07	-4.107261e-06	-7.122684e-09	-2.963631e+01	-4.678801e+02
5.400000e-07	-3.978062e-06	-7.009322e-09	-2.870407e+01	-4.609243e+02
5.500000e-07	-3.847392e-06	-6.901294e-09	-2.776121e+01	-4.537386e+02
5.600000e-07	-3.715192e-06	-6.795023e-09	-2.680731e+01	-4.463145e+02
5.700000e-07	-3.581586e-06	-6.679272e-09	-2.584326e+01	-4.386478e+02
5.800000e-07	-3.446651e-06	-6.554819e-09	-2.486962e+01	-4.307381e+02
5.900000e-07	-3.310395e-06	-6.428596e-09	-2.388646e+01	-4.225886e+02
6.000000e-07	-3.172863e-06	-6.301158e-09	-2.289409e+01	-4.142043e+02
6.100000e-07	-3.034109e-06	-6.165257e-09	-2.189289e+01	-4.055909e+02
6.200000e-07	-2.894026e-06	-6.031892e-09	-2.088211e+01	-3.967520e+02
6.300000e-07	-2.752608e-06	-5.898034e-09	-1.986169e+01	-3.876875e+02
6.400000e-07	-2.610087e-06	-5.757802e-09	-1.883332e+01	-3.783918e+02
6.500000e-07	-2.466628e-06	-5.609549e-09	-1.779818e+01	-3.688530e+02
6.600000e-07	-2.322244e-06	-5.457177e-09	-1.675637e+01	-3.590529e+02
6.700000e-07	-2.177034e-06	-5.301334e-09	-1.570859e+01	-3.489677e+02
6.800000e-07	-2.031068e-06	-5.139398e-09	-1.465536e+01	-3.385702e+02
6.900000e-07	-1.884388e-06	-4.974853e-09	-1.359697e+01	-3.278317e+02
7.000000e-07	-1.737193e-06	-4.804429e-09	-1.253487e+01	-3.167258e+02
7.100000e-07	-1.589526e-06	-4.625515e-09	-1.146937e+01	-3.052299e+02
7.200000e-07	-1.441344e-06	-4.440177e-09	-1.040015e+01	-2.933278e+02
7.300000e-07	-1.292709e-06	-4.254227e-09	-9.327657e+00	-2.810103e+02
7.400000e-07	-1.143714e-06	-4.063647e-09	-8.252574e+00	-2.682748e+02
7.500000e-07	-9.943949e-07	-3.867001e-09	-7.175147e+00	-2.551232e+02
7.600000e-07	-8.447930e-07	-3.665888e-09	-6.095681e+00	-2.415586e+02
7.700000e-07	-6.948988e-07	-3.456145e-09	-5.014106e+00	-2.275815e+02
7.800000e-07	-5.447238e-07	-3.236406e-09	-3.930505e+00	-2.131843e+02
7.900000e-07	-3.943433e-07	-3.008729e-09	-2.845420e+00	-1.983480e+02
8.000000e-07	-2.437931e-07	-2.772456e-09	-1.759112e+00	-1.830384e+02
8.100000e-07	-9.310973e-08	-2.527137e-09	-6.718417e-01	-1.672051e+02
8.200000e-07	5.764988e-08	-2.273227e-09	4.159780e-01	-1.507821e+02
8.300000e-07	2.084254e-07	-2.012266e-09	1.503912e+00	-1.336916e+02
8.400000e-07	3.591523e-07	-1.742250e-09	2.591496e+00	-1.158498e+02
8.500000e-07	5.098135e-07	-1.458416e-09	3.678606e+00	-9.717588e+01
8.600000e-07	6.603328e-07	-1.162070e-09	4.764692e+00	-7.760090e+01
8.700000e-07	8.105783e-07	-8.526192e-10	5.848802e+00	-5.707866e+01
8.800000e-07	9.605318e-07	-5.286618e-10	6.930805e+00	-3.559518e+01
8.900000e-07	1.110216e-06	-1.914911e-10	8.010862e+00	-1.317662e+01
9.000000e-07	1.259580e-06	1.585297e-10	9.088613e+00	1.010558e+01
9.100000e-07	1.408525e-06	5.228964e-10	1.016334e+01	3.413311e+01
9.200000e-07	1.556951e-06	9.015433e-10	1.123433e+01	5.874321e+01
9.300000e-07	1.704816e-06	1.288898e-09	1.230125e+01	8.373514e+01
9.400000e-07	1.852091e-06	1.676681e-09	1.336393e+01	1.088801e+02
9.500000e-07	1.998782e-06	2.061461e-09	1.442240e+01	1.339340e+02
9.600000e-07	2.144783e-06	2.441892e-09	1.547588e+01	1.586517e+02
9.700000e-07	2.289894e-06	2.811832e-09	1.652294e+01	1.828015e+02
9.800000e-07	2.434083e-06	3.165061e-09	1.756335e+01	2.061789e+02
9.900000e-07	2.577342e-06	3.500952e-09	1.859704e+01	2.286171e+02
1.000000e-06	2.719669e-06	3.821612e-09	1.962402e+01	2.499949e+02
1.010000e-06	2.860967e-06	4.125245e-09	2.064357e+01	2.702402e+02
1.020000e-06	3.001008e-06	4.409684e-09	2.165404e+01	2.893294e+02
1.030000e-06	3.139756e-06	4.679258e-09	2.265519e+01	3.072830e+02
1.040000e-06	3.277322e-06	4.936515e-09	2.364781e+01	3.241576e+02
1.050000e-06	3.413591e-06	5.178988e-09	2.463108e+01	3.400359e+02
1.060000e-06	3.548500e-06	5.408641e-09	2.560453e+01	3.550159e+02
1.070000e-06	3.682204e-06	5.628716e-09	2.656928e+01	3.691991e+02
1.080000e-06	3.814622e-06	5.836707e-09	2.752475e+01	3.826817e+02
1.090000e-06	3.945598e-06	6.031933e-09	2.846982e+01	3.955466e+02
1.100000e-06	4.075200e-06	6.218816e-09	2.940497e+01	4.078588e+02
1.110000e-06	4.203374e-06	6.398732e-09	3.032983e+01	4.196634e+02
1.120000e-06	4.330058e-06	6.569668e-09	3.124393e+01	4.309870e+02
1.130000e-06	4.455350e-06	6.732436e-09	3.214798e+01	4.418405e+02
1.140000e-06	4.579128e-06	6.887417e-09	3.304111e+01	4.522246e+02
1.150000e-06	4.701260e-06	7.035772e-09	3.392237e+01	4.621346e+02
1.160000e-06	4.821702e-06	7.177675e-09	3.479143e+01	4.715667e+02
1.170000e-06	4.940402e-06	7.313990e-09	3.564793e+01	4.805219e+02
1.180000e-06	5.057298e-06	7.444491e-09	3.649139e+01	4.890092e+02
1.190000e-06	5.172261e-06	7.568532e-09	3.732092e+01	4.970474e+02
1.200000e-06	5.285160e-06	7.685228e-09	3.813555e+01	5.046639e+02
1.210000e-06	5.396055e-06	7.795360e-09	3.893572e+01	5.118935e+02
1.220000e-06	5.505148e-06	7.901325e-09	3.972290e+01	5.187750e+02
1.230000e-06	5.612354e-06	8.002192e-09	4.049645e+01	5.253476e+02
1.240000e-06	5.717491e-06	8.097982e-09	4.125508e+01	5.316477e+02
1.250000e-06	5.820463e-06	8.190467e-09	4.199808e+01	5.377056e+02
1.260000e-06	5.921299e-06	8.280385e-09	4.272568e+01	5.435442e+02
1.270000e-06	6.019939e-06	8.365276e-09	4.343742e+01	5.491779e+02
1.280000e-06	6.116228e-06	8.445316e-09	4.413220e+01	5.546131e+02
1.290000e-06	6.210311e-06	8.522563e-09	4.481107e+01	5.598502e+02
1.300000e-06	6.302294e-06	8.597585e-09	4.547478e+01	5.648853e+02
1.310000e-06	6.391982e-06	8.669395e-09	4.612193e+01	5.697133e+02
1.320000e-06	6.479294e-06	8.738517e-09	4.675194e+01	5.743299e+02
1.330000e-06	6.564331e-06	8.805020e-09	4.736553e+01	5.787335e+02
1.340000e-06	6.647110e-06	8.869549e-09	4.796283e+01	5.829266e+02
1.350000e-06	6.727489e-06	8.931630e-09	4.854281e+01	5.869157e+02
1.360000e-06	6.805365e-06	8.989601e-09	4.910473e+01	5.907107e+02
1.370000e-06	6.880674e-06	9.045061e-09	4.964813e+01	5.943237e+02
1.380000e-06	6.953358e-06	9.098849e-09	5.017259e+01	5.977669e+02
1.390000e-06	7.023512e-06	9.150784e-09	5.067879e+01	6.010513e+02
1.400000e-06	7.091215e-06	9.200810e-09	5.116731e+01	6.041845e+02
1.410000e-06	7.156325e-06	9.246709e-09	5.163712e+01	6.071704e+02
1.420000e-06	7.218929e-06	9.288390e-09	5.208884e+01	6.100086e+02
1.430000e-06	7.279181e-06	9.327025e-09	5.252360e+01	6.126948e+02
1.440000e-06	7.336842e-06	9.363701e-09	5.293965e+01	6.152226e+02
1.450000e-06	7.391887e-06	9.399391e-09	5.333684e+01	6.175844e+02
1.460000e-06	7.444144e-06	9.431571e-09	5.371390e+01	6.197736e+02
1.470000e-06	7.493310e-06	9.460987e-09	5.406866e+01	6.217864e+02
1.480000e-06	7.539612e-06	9.488240e-09	5.440276e+01	6.236230e+02
1.490000e-06	7.583310e-06	9.513081e-09	5.471807e+01	6.252881e+02
1.500000e-06	7.624267e-06	9.537107e-09	5.501360e+01	6.267912e+02
1.510000e-06	7.662521e-06	9.560285e-09	5.528962e+01	6.281453e+02
1.520000e-06	7.698191e-06	9.581649e-09	5.554700e+01	6.293655e+02
1.530000e-06	7.731050e-06	9.600461e-09	5.578410e+01	6.304677e+02
1.540000e-06	7.761112e-06	9.616809e-09	5.600101e+01	6.314659e+02
1.550000e-06	7.788487e-06	9.630871e-09	5.619854e+01	6.323710e+02
1.560000e-06	7.812993e-06	9.642848e-09	5.637536e+01	6.331891e+02
1.570000e-06	7.834646e-06	9.653911e-09	5.653160e+01	6.339216e+02
1.580000e-06	7.853612e-06	9.664452e-09	5.666845e+01	6.345643e+02
1.590000e-06	7.869692e-06	9.673593e-09	5.678448e+01	6.351095e+02
1.600000e-06	7.882741e-06	9.679549e-09	5.687864e+01	6.355465e+02
1.610000e-06	7.892680e-06	9.682569e-09	5.695035e+01	6.358640e+02
1.620000e-06	7.899625e-06	9.685357e-09	5.700047e+01	6.360518e+02
1.630000e-06	7.903866e-06	9.687712e-09	5.703107e+01	6.361030e+02
1.640000e-06	7.905312e-06	9.689712e-09	5.704150e+01	6.360148e+02
1.650000e-06	7.904005e-06	9.691579e-09	5.703207e+01	6.357895e+02
1.660000e-06	7.900148e-06	9.684410e-09	5.700424e+01	6.354345e+02
1.670000e-06	7.893603e-06	9.678841e-09	5.695701e+01	6.349613e+02
1.680000e-06	7.884413e-06	9.672515e-09	5.689071e+01	6.343845e+02
1.690000e-06	7.872591e-06	9.664763e-09	5.680540e+01	6.337200e+02
1.700000e-06	7.857935e-06	9.656495e-09	5.669965e+01	6.329831e+02
1.710000e-06	7.840754e-06	9.644750e-09	5.657567e+01	6.321868e+02
1.720000e-06	7.821363e-06	9.629783e-09	5.643576e+01	6.313403e+02
1.730000e-06	7.799485e-06	9.566753e-09	5.627789e+01	6.304482e+02
1.740000e-06	7.774431e-06	9.500531e-09	5.609712e+01	6.295101e+02
1.750000e-06	7.745764e-06	9.534711e-09	5.589027e+01	6.285210e+02
1.760000e-06	7.713769e-06	9.551005e-09	5.565940e+01	6.274719e+02
1.770000e-06	7.679210e-06	9.542367e-09	5.541004e+01	6.263509e+02
1.780000e-06	7.642405e-06	9.562623e-09	5.514447e+01	6.251450e+02
1.790000e-06	7.603392e-06	9.567600e-09	5.486297e+01	6.238405e+02
1.800000e-06	7.562350e-06	9.468122e-09	5.456683e+01	6.224253e+02
1.810000e-06	7.518939e-06	9.466200e-09	5.425359e+01	6.208889e+02
1.820000e-06	7.472889e-06	9.485856e-09	5.392132e+01	6.192233e+02
1.830000e-06	7.424154e-06	9.416782e-09	5.356966e+01	6.174230e+02
1.840000e-06	7.372456e-06	9.464501e-09	5.319663e+01	6.154850e+02
1.850000e-06	7.317854e-06	9.361697e-09	5.280264e+01	6.134085e+02
1.860000e-06	7.260504e-06	9.338178e-09	5.238883e+01	6.111941e+02
1.870000e-06	7.200565e-06	9.322738e-09	5.195633e+01	6.088435e+02
1.880000e-06	7.137997e-06	9.234103e-09	5.150487e+01	6.063591e+02
1.890000e-06	7.072632e-06	9.259818e-09	5.103322e+01	6.037436e+02
1.900000e-06	7.004604e-06	9.165688e-09	5.054236e+01	6.009999e+02
1.910000e-06	6.933803e-06	9.147249e-09	5.003149e+01	5.981306e+02
1.920000e-06	6.860269e-06	9.091211e-09	4.950090e+01	5.951386e+02
1.930000e-06	6.784061e-06	9.036119e-09	4.895101e+01	5.920267e+02
1.940000e-06	6.705099e-06	9.017494e-09	4.838125e+01	5.887972e+02
1.950000e-06	6.623630e-06	8.917065e-09	4.779341e+01	5.854523e+02
1.960000e-06	6.539813e-06	8.912938e-09	4.718862e+01	5.819935e+02
1.970000e-06	6.453614e-06	8.831780e-09	4.656664e+01	5.784213e+02
1.980000e-06	6.364981e-06	8.792160e-09	4.592710e+01	5.747351e+02
1.990000e-06	6.274110e-06	8.738626e-09	4.527142e+01	5.709328e+02
2.000000e-06	6.181081e-06	8.654336e-09	4.460016e+01	5.670109e+02
2.010000e-06	6.085771e-06	8.597818e-09	4.391243e+01	5.629645e+02
2.020000e-06	5.988283e-06	8.513538e-09	4.320900e+01	5.587880e+02
2.030000e-06	5.888656e-06	8.472968e-09	4.249014e+01	5.544751e+02
2.040000e-06	5.786903e-06	8.401159e-09	4.175592e+01	5.500200e+02
2.050000e-06	5.683093e-06	8.347309e-09	4.100688e+01	5.454177e+02
2.060000e-06	5.577371e-06	8.253834e-09	4.024403e+01	5.406645e+02
2.070000e-06	5.469763e-06	8.167702e-09	3.946757e+01	5.357585e+02
2.080000e-06	5.360207e-06	8.088858e-09	3.867706e+01	5.306994e+02
2.090000e-06	5.248675e-06	8.016958e-09	3.787230e+01	5.254882e+02
2.100000e-06	5.135219e-06	7.951567e-09	3.705364e+01	5.201267e+02
2.110000e-06	5.019847e-06	7.866693e-09	3.622116e+01	5.146162e+02
2.120000e-06	4.902480e-06	7.779763e-09	3.537429e+01	5.089569e+02
2.130000e-06	4.783199e-06	7.678548e-09	3.451361e+01	5.031469e+02
2.140000e-06	4.662069e-06	7.591472e-09	3.363958e+01	4.971811e+02
2.150000e-06	4.539207e-06	7.495299e-09	3.275306e+01	4.910518e+02
2.160000e-06	4.414707e-06	7.404207e-09	3.185472e+01	4.847479e+02
2.170000e-06	4.288619e-06	7.303069e-09	3.094492e+01	4.782564e+02
2.180000e-06	4.160981e-06	7.205165e-09	3.002394e+01	4.715631e+02
2.190000e-06	4.031839e-06	7.096980e-09	2.909210e+01	4.646542e+02
2.200000e-06	3.901254e-06	6.985309e-09	2.814985e+01	4.575175e+02
2.210000e-06	3.769226e-06	6.872645e-09	2.719719e+01	4.501440e+02
2.220000e-06	3.635748e-06	6.757884e-09	2.623408e+01	4.425285e+02
2.230000e-06	3.500930e-06	6.640703e-09	2.526128e+01	4.346697e+02
2.240000e-06	3.364845e-06	6.520941e-09	2.427934e+01	4.265701e+02
2.250000e-06	3.227473e-06	6.403993e-09	2.328813e+01	4.182347e+02
2.260000e-06	3.088868e-06	6.272423e-09	2.228801e+01	4.096690e+02
2.270000e-06	2.949000e-06	6.129929e-09	2.127878e+01	4.008772e+02
2.280000e-06	2.807934e-06	5.983268e-09	2.026090e+01	3.918603e+02
2.290000e-06	2.665846e-06	5.844038e-09	1.923566e+01	3.826139e+02
2.300000e-06	2.522827e-06	5.704111e-09	1.820369e+01	3.731276e+02
2.310000e-06	2.378835e-06	5.562875e-09	1.716470e+01	3.633843e+02
2.320000e-06	2.233977e-06	5.414143e-09	1.611947e+01	3.533614e+02
2.330000e-06	2.088414e-06	5.254360e-09	1.506914e+01	3.430321e+02
2.340000e-06	1.942179e-06	5.085874e-09	1.401397e+01	3.323681e+02
2.350000e-06	1.795289e-06	4.914849e-09	1.295407e+01	3.213420e+02
2.360000e-06	1.647738e-06	4.743357e-09	1.188940e+01	3.099302e+02
2.370000e-06	1.499628e-06	4.565966e-09	1.082070e+01	2.981152e+02
2.380000e-06	1.351081e-06	4.382675e-09	9.748848e+00	2.858861e+02
2.390000e-06	1.202135e-06	4.190944e-09	8.674118e+00	2.732391e+02
2.400000e-06	1.052807e-06	3.988818e-09	7.596628e+00	2.601754e+02
2.410000e-06	9.031356e-07	3.779590e-09	6.516658e+00	2.466981e+02
2.420000e-06	7.531385e-07	3.567395e-09	5.434339e+00	2.328086e+02
2.430000e-06	6.028770e-07	3.351152e-09	4.350114e+00	2.185016e+02
2.440000e-06	4.524317e-07	3.128637e-09	3.264562e+00	2.037607e+02
2.450000e-06	3.018518e-07	2.898163e-09	2.178040e+00	1.885553e+02
2.460000e-06	1.511926e-07	2.657458e-09	1.090944e+00	1.728382e+02
2.470000e-06	4.915282e-10	2.403109e-09	3.546666e-03	1.565468e+02
2.480000e-06	-1.502328e-07	2.136141e-09	-1.084018e+00	1.396052e+02
2.490000e-06	-3.009292e-07	1.860780e-09	-2.171382e+00	1.219305e+02
2.500000e-06	-4.515326e-07	1.577795e-09	-3.258075e+00	1.034403e+02
2.510000e-06	-6.020092e-07	1.283715e-09	-4.343853e+00	8.406215e+01
2.520000e-06	-7.523316e-07	9.768467e-10	-5.428517e+00	6.374430e+01
2.530000e-06	-9.024271e-07	6.566414e-10	-6.511545e+00	4.246506e+01
2.540000e-06	-1.052255e-06	3.201213e-10	-7.592639e+00	2.024144e+01
2.550000e-06	-1.201790e-06	-3.003576e-11	-8.671624e+00	-2.865075e+00
2.560000e-06	-1.350889e-06	-3.926726e-10	-9.747463e+00	-2.674615e+01
2.570000e-06	-1.499467e-06	-7.679448e-10	-1.081954e+01	-5.124817e+01
2.580000e-06	-1.647481e-06	-1.150878e-09	-1.188755e+01	-7.617777e+01
2.590000e-06	-1.794838e-06	-1.537292e-09	-1.295082e+01	-1.013112e+02
2.600000e-06	-1.941506e-06	-1.924385e-09	-1.400911e+01	-1.264064e+02
2.610000e-06	-2.087504e-06	-2.309606e-09	-1.506258e+01	-1.512173e+02
2.620000e-06	-2.232799e-06	-2.686340e-09	-1.611096e+01	-1.755082e+02
2.630000e-06	-2.377223e-06	-3.046573e-09	-1.715307e+01	-1.990676e+02
2.640000e-06	-2.520565e-06	-3.389489e-09	-1.818737e+01	-2.217199e+02
2.650000e-06	-2.662880e-06	-3.715298e-09	-1.921425e+01	-2.433337e+02
2.660000e-06	-2.804252e-06	-4.024324e-09	-2.023434e+01	-2.638262e+02
2.670000e-06	-2.944523e-06	-4.317201e-09	-2.124647e+01	-2.831639e+02
2.680000e-06	-3.083569e-06	-4.594946e-09	-2.224977e+01	-3.013581e+02
2.690000e-06	-3.221423e-06	-4.857441e-09	-2.324447e+01	-3.184587e+02
2.700000e-06	-3.358016e-06	-5.104017e-09	-2.423007e+01	-3.345437e+02
2.710000e-06	-3.493259e-06	-5.339101e-09	-2.520593e+01	-3.497086e+02
2.720000e-06	-3.627283e-06	-5.565588e-09	-2.617299e+01	-3.640551e+02
2.730000e-06	-3.760052e-06	-5.781421e-09	-2.713100e+01	-3.776813e+02
2.740000e-06	-3.891474e-06	-5.983992e-09	-2.807928e+01	-3.906735e+02
2.750000e-06	-4.021544e-06	-6.173822e-09	-2.901782e+01	-4.031006e+02
2.760000e-06	-4.150206e-06	-6.353952e-09	-2.994619e+01	-4.150122e+02
2.770000e-06	-4.277417e-06	-6.526560e-09	-3.086409e+01	-4.264385e+02
2.780000e-06	-4.403182e-06	-6.691377e-09	-3.177156e+01	-4.373934e+02
2.790000e-06	-4.527410e-06	-6.847632e-09	-3.266794e+01	-4.478794e+02
2.800000e-06	-4.650057e-06	-6.996757e-09	-3.355291e+01	-4.578925e+02
2.810000e-06	-4.771098e-06	-7.140591e-09	-3.442629e+01	-4.674281e+02
2.820000e-06	-4.890292e-06	-7.279745e-09	-3.528635e+01	-4.764860e+02
2.830000e-06	-5.007498e-06	-7.413142e-09	-3.613206e+01	-4.850734e+02
2.840000e-06	-5.122670e-06	-7.539600e-09	-3.696309e+01	-4.932068e+02
2.850000e-06	-5.235774e-06	-7.659231e-09	-3.777920e+01	-5.009119e+02
2.860000e-06	-5.346811e-06	-7.771556e-09	-3.858040e+01	-5.082223e+02
2.870000e-06	-5.455909e-06	-7.878427e-09	-3.936761e+01	-5.151761e+02
2.880000e-06	-5.563208e-06	-7.981167e-09	-4.014183e+01	-5.218127e+02
2.890000e-06	-5.668587e-06	-8.078985e-09	-4.090221e+01	-5.281693e+02
2.900000e-06	-5.771862e-06	-8.172040e-09	-4.164740e+01	-5.342779e+02
2.910000e-06	-5.872950e-06	-8.259583e-09	-4.237681e+01	-5.401630e+02
2.920000e-06	-5.971887e-06	-8.345088e-09	-4.309070e+01	-5.458408e+02
2.930000e-06	-6.068696e-06	-8.429989e-09	-4.378923e+01	-5.513194e+02
2.940000e-06	-6.163309e-06	-8.512011e-09	-4.447192e+01	-5.566002e+02
