# Temperatura_=_26.45
# Concentracion g/m^3_=_10000.0
# C_Vs_to_Am_M_A/Vsm_=_65563218390.804596
# pendiente_HvsI_1/m_=_3716.3
# ordenada_HvsI_A/m_=_1297.0
# frecuencia_Hz_=_302613.15764459973

Tiempo_(s)	Campo_(V.s)	Magnetizacion_(V.s)	Campo_(kA/m)	Magnetizacion_(A/m)
0.000000e+00	-7.904295e-06	-8.050695e-09	-5.683987e+01	-5.279098e+02
1.000000e-08	-7.902179e-06	-8.055870e-09	-5.682466e+01	-5.276896e+02
2.000000e-08	-7.897343e-06	-8.054092e-09	-5.678988e+01	-5.273602e+02
3.000000e-08	-7.889985e-06	-8.046739e-09	-5.673697e+01	-5.269358e+02
4.000000e-08	-7.879890e-06	-8.039424e-09	-5.666438e+01	-5.264342e+02
5.000000e-08	-7.866903e-06	-8.028917e-09	-5.657099e+01	-5.258752e+02
6.000000e-08	-7.850944e-06	-8.013987e-09	-5.645623e+01	-5.252773e+02
7.000000e-08	-7.832381e-06	-8.001193e-09	-5.632274e+01	-5.246560e+02
8.000000e-08	-7.811690e-06	-7.986957e-09	-5.617396e+01	-5.240210e+02
9.000000e-08	-7.788401e-06	-8.020928e-09	-5.600648e+01	-5.233748e+02
1.000000e-07	-7.761910e-06	-8.064242e-09	-5.581598e+01	-5.227129e+02
1.100000e-07	-7.732260e-06	-8.007560e-09	-5.560277e+01	-5.220235e+02
1.200000e-07	-7.699836e-06	-7.954372e-09	-5.536961e+01	-5.212895e+02
1.300000e-07	-7.664717e-06	-7.934307e-09	-5.511707e+01	-5.204905e+02
1.400000e-07	-7.627043e-06	-7.892922e-09	-5.484615e+01	-5.196051e+02
1.500000e-07	-7.587307e-06	-7.837650e-09	-5.456041e+01	-5.186142e+02
1.600000e-07	-7.545444e-06	-7.873129e-09	-5.425937e+01	-5.175024e+02
1.700000e-07	-7.500926e-06	-7.956257e-09	-5.393925e+01	-5.162605e+02
1.800000e-07	-7.453707e-06	-7.821398e-09	-5.359970e+01	-5.148855e+02
1.900000e-07	-7.403684e-06	-7.817709e-09	-5.323997e+01	-5.133813e+02
2.000000e-07	-7.350646e-06	-7.827635e-09	-5.285858e+01	-5.117570e+02
2.100000e-07	-7.294852e-06	-7.717429e-09	-5.245736e+01	-5.100256e+02
2.200000e-07	-7.236355e-06	-7.746737e-09	-5.203671e+01	-5.082021e+02
2.300000e-07	-7.175210e-06	-7.726158e-09	-5.159701e+01	-5.063009e+02
2.400000e-07	-7.111526e-06	-7.705112e-09	-5.113907e+01	-5.043339e+02
2.500000e-07	-7.045094e-06	-7.638990e-09	-5.066135e+01	-5.023090e+02
2.600000e-07	-6.975960e-06	-7.616497e-09	-5.016421e+01	-5.002296e+02
2.700000e-07	-6.904167e-06	-7.621277e-09	-4.964794e+01	-4.980937e+02
2.800000e-07	-6.829599e-06	-7.564245e-09	-4.911173e+01	-4.958953e+02
2.900000e-07	-6.752261e-06	-7.531930e-09	-4.855558e+01	-4.936251e+02
3.000000e-07	-6.672145e-06	-7.500209e-09	-4.797947e+01	-4.912720e+02
3.100000e-07	-6.589531e-06	-7.485172e-09	-4.738540e+01	-4.888252e+02
3.200000e-07	-6.504724e-06	-7.428369e-09	-4.677554e+01	-4.862750e+02
3.300000e-07	-6.417680e-06	-7.369256e-09	-4.614961e+01	-4.836142e+02
3.400000e-07	-6.328271e-06	-7.339999e-09	-4.550667e+01	-4.808386e+02
3.500000e-07	-6.236536e-06	-7.277164e-09	-4.484700e+01	-4.779472e+02
3.600000e-07	-6.142595e-06	-7.235167e-09	-4.417147e+01	-4.749414e+02
3.700000e-07	-6.046401e-06	-7.203091e-09	-4.347974e+01	-4.718242e+02
3.800000e-07	-5.947946e-06	-7.167915e-09	-4.277175e+01	-4.685990e+02
3.900000e-07	-5.847359e-06	-7.110584e-09	-4.204843e+01	-4.652687e+02
4.000000e-07	-5.744739e-06	-7.042570e-09	-4.131048e+01	-4.618344e+02
4.100000e-07	-5.640102e-06	-6.984744e-09	-4.055804e+01	-4.582952e+02
4.200000e-07	-5.533428e-06	-6.926371e-09	-3.979094e+01	-4.546476e+02
4.300000e-07	-5.424803e-06	-6.889267e-09	-3.900982e+01	-4.508859e+02
4.400000e-07	-5.314291e-06	-6.838047e-09	-3.821512e+01	-4.470028e+02
4.500000e-07	-5.201829e-06	-6.767560e-09	-3.740642e+01	-4.429901e+02
4.600000e-07	-5.087291e-06	-6.692875e-09	-3.658277e+01	-4.388395e+02
4.700000e-07	-4.970684e-06	-6.623309e-09	-3.574425e+01	-4.345435e+02
4.800000e-07	-4.852286e-06	-6.551628e-09	-3.489285e+01	-4.300960e+02
4.900000e-07	-4.732186e-06	-6.485986e-09	-3.402920e+01	-4.254922e+02
5.000000e-07	-4.610355e-06	-6.427731e-09	-3.315312e+01	-4.207289e+02
5.100000e-07	-4.486818e-06	-6.350983e-09	-3.226476e+01	-4.158038e+02
5.200000e-07	-4.361652e-06	-6.265886e-09	-3.136469e+01	-4.107151e+02
5.300000e-07	-4.234907e-06	-6.189281e-09	-3.045326e+01	-4.054609e+02
5.400000e-07	-4.106588e-06	-6.111121e-09	-2.953052e+01	-4.000385e+02
5.500000e-07	-3.976775e-06	-6.014064e-09	-2.859704e+01	-3.944442e+02
5.600000e-07	-3.845441e-06	-5.917500e-09	-2.765261e+01	-3.886730e+02
5.700000e-07	-3.712567e-06	-5.837307e-09	-2.669711e+01	-3.827188e+02
5.800000e-07	-3.578327e-06	-5.747484e-09	-2.573179e+01	-3.765749e+02
5.900000e-07	-3.442810e-06	-5.641796e-09	-2.475729e+01	-3.702344e+02
6.000000e-07	-3.305984e-06	-5.538484e-09	-2.377337e+01	-3.636907e+02
6.100000e-07	-3.167837e-06	-5.437837e-09	-2.277995e+01	-3.569379e+02
6.200000e-07	-3.028338e-06	-5.325837e-09	-2.177681e+01	-3.499710e+02
6.300000e-07	-2.887512e-06	-5.214105e-09	-2.076413e+01	-3.427857e+02
6.400000e-07	-2.745509e-06	-5.111948e-09	-1.974298e+01	-3.353777e+02
6.500000e-07	-2.602419e-06	-5.001956e-09	-1.871402e+01	-3.277427e+02
6.600000e-07	-2.458328e-06	-4.876549e-09	-1.767786e+01	-3.198745e+02
6.700000e-07	-2.313325e-06	-4.745207e-09	-1.663514e+01	-3.117655e+02
6.800000e-07	-2.167495e-06	-4.616136e-09	-1.558648e+01	-3.034050e+02
6.900000e-07	-2.020905e-06	-4.481353e-09	-1.453235e+01	-2.947797e+02
7.000000e-07	-1.873686e-06	-4.345384e-09	-1.347370e+01	-2.858740e+02
7.100000e-07	-1.725952e-06	-4.207431e-09	-1.241134e+01	-2.766704e+02
7.200000e-07	-1.577710e-06	-4.060164e-09	-1.134533e+01	-2.671511e+02
7.300000e-07	-1.429016e-06	-3.905395e-09	-1.027607e+01	-2.572987e+02
7.400000e-07	-1.279884e-06	-3.747248e-09	-9.203657e+00	-2.470983e+02
7.500000e-07	-1.130354e-06	-3.587723e-09	-8.128391e+00	-2.365379e+02
7.600000e-07	-9.804483e-07	-3.422158e-09	-7.050415e+00	-2.256092e+02
7.700000e-07	-8.302052e-07	-3.250981e-09	-5.970015e+00	-2.143071e+02
7.800000e-07	-6.796549e-07	-3.072301e-09	-4.887406e+00	-2.026291e+02
7.900000e-07	-5.288395e-07	-2.887051e-09	-3.802891e+00	-1.905732e+02
8.000000e-07	-3.778621e-07	-2.697256e-09	-2.717211e+00	-1.781357e+02
8.100000e-07	-2.267269e-07	-2.503301e-09	-1.630396e+00	-1.653089e+02
8.200000e-07	-7.545417e-08	-2.300905e-09	-5.425918e-01	-1.520791e+02
8.300000e-07	7.587718e-08	-2.090484e-09	5.456336e-01	-1.384245e+02
8.400000e-07	2.272220e-07	-1.875708e-09	1.633956e+00	-1.243154e+02
8.500000e-07	3.784901e-07	-1.653360e-09	2.721727e+00	-1.097151e+02
8.600000e-07	5.296283e-07	-1.422428e-09	3.808563e+00	-9.458224e+01
8.700000e-07	6.806364e-07	-1.183402e-09	4.894464e+00	-7.887515e+01
8.800000e-07	8.314019e-07	-9.368302e-10	5.978621e+00	-6.255711e+01
8.900000e-07	9.819183e-07	-6.799023e-10	7.060986e+00	-4.560245e+01
9.000000e-07	1.132154e-06	-4.141310e-10	8.141335e+00	-2.800269e+01
9.100000e-07	1.281946e-06	-1.424035e-10	9.218491e+00	-9.772165e+00
9.200000e-07	1.431283e-06	1.398154e-10	1.029238e+01	9.047787e+00
9.300000e-07	1.580122e-06	4.359711e-10	1.136268e+01	2.838654e+01
9.400000e-07	1.728409e-06	7.410934e-10	1.242901e+01	4.814433e+01
9.500000e-07	1.876133e-06	1.048849e-09	1.349129e+01	6.819503e+01
9.600000e-07	2.023212e-06	1.358839e-09	1.454894e+01	8.839137e+01
9.700000e-07	2.169578e-06	1.671042e-09	1.560146e+01	1.085723e+02
9.800000e-07	2.315090e-06	1.980917e-09	1.664784e+01	1.285720e+02
9.900000e-07	2.459700e-06	2.279373e-09	1.768773e+01	1.482288e+02
1.000000e-06	2.603422e-06	2.569008e-09	1.872123e+01	1.673951e+02
1.010000e-06	2.746090e-06	2.848048e-09	1.974716e+01	1.859447e+02
1.020000e-06	2.887649e-06	3.115840e-09	2.076512e+01	2.037794e+02
1.030000e-06	3.028038e-06	3.371751e-09	2.177466e+01	2.208320e+02
1.040000e-06	3.167200e-06	3.616502e-09	2.277537e+01	2.370671e+02
1.050000e-06	3.305141e-06	3.850868e-09	2.376730e+01	2.524795e+02
1.060000e-06	3.441765e-06	4.071818e-09	2.474977e+01	2.670894e+02
1.070000e-06	3.577053e-06	4.283797e-09	2.572263e+01	2.809366e+02
1.080000e-06	3.711033e-06	4.486285e-09	2.668608e+01	2.940729e+02
1.090000e-06	3.843723e-06	4.676859e-09	2.764026e+01	3.065555e+02
1.100000e-06	3.975069e-06	4.856505e-09	2.858477e+01	3.184398e+02
1.110000e-06	4.105020e-06	5.029997e-09	2.951924e+01	3.297749e+02
1.120000e-06	4.233544e-06	5.197102e-09	3.044346e+01	3.405998e+02
1.130000e-06	4.360528e-06	5.354956e-09	3.135661e+01	3.509422e+02
1.140000e-06	4.485997e-06	5.504628e-09	3.225886e+01	3.608193e+02
1.150000e-06	4.609939e-06	5.647200e-09	3.315012e+01	3.702400e+02
1.160000e-06	4.732249e-06	5.783918e-09	3.402966e+01	3.792082e+02
1.170000e-06	4.852884e-06	5.913290e-09	3.489715e+01	3.877266e+02
1.180000e-06	4.971769e-06	6.035069e-09	3.575205e+01	3.958006e+02
1.190000e-06	5.088822e-06	6.150960e-09	3.659378e+01	4.034406e+02
1.200000e-06	5.203893e-06	6.260143e-09	3.742126e+01	4.106644e+02
1.210000e-06	5.316887e-06	6.364560e-09	3.823380e+01	4.174968e+02
1.220000e-06	5.427947e-06	6.464038e-09	3.903243e+01	4.239691e+02
1.230000e-06	5.537201e-06	6.559770e-09	3.981808e+01	4.301168e+02
1.240000e-06	5.644525e-06	6.649821e-09	4.058984e+01	4.359762e+02
1.250000e-06	5.749719e-06	6.735324e-09	4.134630e+01	4.415822e+02
1.260000e-06	5.852734e-06	6.818424e-09	4.208707e+01	4.469642e+02
1.270000e-06	5.953646e-06	6.898339e-09	4.281273e+01	4.521450e+02
1.280000e-06	6.052352e-06	6.973809e-09	4.352253e+01	4.571388e+02
1.290000e-06	6.148725e-06	7.044428e-09	4.421555e+01	4.619516e+02
1.300000e-06	6.242849e-06	7.111744e-09	4.489240e+01	4.665821e+02
1.310000e-06	6.334769e-06	7.176600e-09	4.555340e+01	4.710237e+02
1.320000e-06	6.424406e-06	7.238849e-09	4.619798e+01	4.752675e+02
1.330000e-06	6.511718e-06	7.298027e-09	4.682584e+01	4.793045e+02
1.340000e-06	6.596768e-06	7.354899e-09	4.743744e+01	4.831282e+02
1.350000e-06	6.679569e-06	7.410682e-09	4.803286e+01	4.867370e+02
1.360000e-06	6.759970e-06	7.463363e-09	4.861102e+01	4.901342e+02
1.370000e-06	6.837872e-06	7.511606e-09	4.917122e+01	4.933287e+02
1.380000e-06	6.913171e-06	7.557326e-09	4.971269e+01	4.963337e+02
1.390000e-06	6.985804e-06	7.600664e-09	5.023500e+01	4.991650e+02
1.400000e-06	7.055943e-06	7.641894e-09	5.073937e+01	5.018391e+02
1.410000e-06	7.123627e-06	7.682274e-09	5.122609e+01	5.043707e+02
1.420000e-06	7.188692e-06	7.719873e-09	5.169397e+01	5.067712e+02
1.430000e-06	7.251198e-06	7.754336e-09	5.214345e+01	5.090475e+02
1.440000e-06	7.311288e-06	7.785703e-09	5.257556e+01	5.112013e+02
1.450000e-06	7.368863e-06	7.815005e-09	5.298958e+01	5.132303e+02
1.460000e-06	7.423829e-06	7.843178e-09	5.338484e+01	5.151289e+02
1.470000e-06	7.475886e-06	7.867909e-09	5.375918e+01	5.168903e+02
1.480000e-06	7.524808e-06	7.891921e-09	5.411098e+01	5.185083e+02
1.490000e-06	7.570941e-06	7.915065e-09	5.444272e+01	5.199795e+02
1.500000e-06	7.614500e-06	7.934730e-09	5.475596e+01	5.213044e+02
1.510000e-06	7.655264e-06	7.952371e-09	5.504909e+01	5.224885e+02
1.520000e-06	7.693253e-06	7.969651e-09	5.532227e+01	5.235416e+02
1.530000e-06	7.728648e-06	7.986417e-09	5.557679e+01	5.244775e+02
1.540000e-06	7.761257e-06	8.001346e-09	5.581129e+01	5.253119e+02
1.550000e-06	7.791120e-06	8.013015e-09	5.602603e+01	5.260606e+02
1.560000e-06	7.818285e-06	8.022707e-09	5.622138e+01	5.267371e+02
1.570000e-06	7.842503e-06	8.032763e-09	5.639553e+01	5.273512e+02
1.580000e-06	7.863897e-06	8.042926e-09	5.654937e+01	5.279070e+02
1.590000e-06	7.882581e-06	8.052244e-09	5.668373e+01	5.284031e+02
1.600000e-06	7.898364e-06	8.059622e-09	5.679723e+01	5.288326e+02
1.610000e-06	7.911123e-06	8.063789e-09	5.688898e+01	5.291849e+02
1.620000e-06	7.920739e-06	8.065090e-09	5.695812e+01	5.294467e+02
1.630000e-06	7.927363e-06	8.066343e-09	5.700576e+01	5.296055e+02
1.640000e-06	7.931251e-06	8.068381e-09	5.703372e+01	5.296509e+02
1.650000e-06	7.932333e-06	8.070901e-09	5.704150e+01	5.295776e+02
1.660000e-06	7.930688e-06	8.069418e-09	5.702967e+01	5.293857e+02
1.670000e-06	7.926509e-06	8.062633e-09	5.699962e+01	5.290821e+02
1.680000e-06	7.919661e-06	8.060723e-09	5.695037e+01	5.286795e+02
1.690000e-06	7.910110e-06	8.056279e-09	5.688169e+01	5.281950e+02
1.700000e-06	7.897790e-06	8.048739e-09	5.679310e+01	5.276481e+02
1.710000e-06	7.882684e-06	8.045083e-09	5.668447e+01	5.270579e+02
1.720000e-06	7.865160e-06	8.041945e-09	5.655846e+01	5.264409e+02
1.730000e-06	7.845416e-06	8.032917e-09	5.641647e+01	5.258084e+02
1.740000e-06	7.823029e-06	7.931255e-09	5.625549e+01	5.251648e+02
1.750000e-06	7.797360e-06	7.903535e-09	5.607091e+01	5.245072e+02
1.760000e-06	7.768073e-06	7.959471e-09	5.586030e+01	5.238257e+02
1.770000e-06	7.735556e-06	7.955223e-09	5.562647e+01	5.231043e+02
1.780000e-06	7.700620e-06	7.951162e-09	5.537525e+01	5.223231e+02
1.790000e-06	7.663339e-06	8.015886e-09	5.510716e+01	5.214608e+02
1.800000e-06	7.623854e-06	8.016315e-09	5.482322e+01	5.204975e+02
1.810000e-06	7.582405e-06	7.850399e-09	5.452516e+01	5.194167e+02
1.820000e-06	7.538541e-06	7.923883e-09	5.420973e+01	5.182074e+02
1.830000e-06	7.492061e-06	7.887948e-09	5.387550e+01	5.168652e+02
1.840000e-06	7.442791e-06	7.848465e-09	5.352119e+01	5.153922e+02
1.850000e-06	7.390493e-06	7.928745e-09	5.314512e+01	5.137964e+02
1.860000e-06	7.335392e-06	7.792623e-09	5.274889e+01	5.120901e+02
1.870000e-06	7.277583e-06	7.812181e-09	5.233319e+01	5.102878e+02
1.880000e-06	7.217186e-06	7.705196e-09	5.189886e+01	5.084043e+02
1.890000e-06	7.154107e-06	7.690345e-09	5.144526e+01	5.064524e+02
1.900000e-06	7.088216e-06	7.758799e-09	5.097145e+01	5.044412e+02
1.910000e-06	7.019638e-06	7.645449e-09	5.047829e+01	5.023749e+02
1.920000e-06	6.948224e-06	7.663189e-09	4.996476e+01	5.002532e+02
1.930000e-06	6.874137e-06	7.566347e-09	4.943200e+01	4.980708e+02
1.940000e-06	6.797361e-06	7.547272e-09	4.887990e+01	4.958191e+02
1.950000e-06	6.717825e-06	7.515026e-09	4.830795e+01	4.934874e+02
1.960000e-06	6.635863e-06	7.469018e-09	4.771857e+01	4.910646e+02
1.970000e-06	6.551526e-06	7.489532e-09	4.711210e+01	4.885406e+02
1.980000e-06	6.464706e-06	7.387752e-09	4.648777e+01	4.859075e+02
1.990000e-06	6.375492e-06	7.383945e-09	4.584624e+01	4.831605e+02
2.000000e-06	6.284116e-06	7.322622e-09	4.518915e+01	4.802976e+02
2.010000e-06	6.190520e-06	7.288560e-09	4.451610e+01	4.773198e+02
2.020000e-06	6.094616e-06	7.218714e-09	4.382645e+01	4.742297e+02
2.030000e-06	5.996554e-06	7.151671e-09	4.312129e+01	4.710308e+02
2.040000e-06	5.896422e-06	7.124148e-09	4.240124e+01	4.677261e+02
2.050000e-06	5.794141e-06	7.077388e-09	4.166574e+01	4.643174e+02
2.060000e-06	5.689737e-06	7.063948e-09	4.091497e+01	4.608043e+02
2.070000e-06	5.583463e-06	6.978300e-09	4.015075e+01	4.571838e+02
2.080000e-06	5.475356e-06	6.908493e-09	3.937335e+01	4.534509e+02
2.090000e-06	5.365306e-06	6.830857e-09	3.858197e+01	4.495985e+02
2.100000e-06	5.253233e-06	6.780399e-09	3.777606e+01	4.456186e+02
2.110000e-06	5.139175e-06	6.731998e-09	3.695586e+01	4.415028e+02
2.120000e-06	5.023134e-06	6.689189e-09	3.612141e+01	4.372434e+02
2.130000e-06	4.905101e-06	6.615455e-09	3.527264e+01	4.328339e+02
2.140000e-06	4.785172e-06	6.517534e-09	3.441023e+01	4.282691e+02
2.150000e-06	4.663471e-06	6.439451e-09	3.353508e+01	4.235455e+02
2.160000e-06	4.540126e-06	6.379242e-09	3.264809e+01	4.186606e+02
2.170000e-06	4.415127e-06	6.320306e-09	3.174923e+01	4.136125e+02
2.180000e-06	4.288498e-06	6.229773e-09	3.083864e+01	4.083995e+02
2.190000e-06	4.160215e-06	6.148545e-09	2.991615e+01	4.030191e+02
2.200000e-06	4.030441e-06	6.058627e-09	2.898295e+01	3.974678e+02
2.210000e-06	3.899214e-06	5.968132e-09	2.803929e+01	3.917409e+02
2.220000e-06	3.766512e-06	5.879165e-09	2.708503e+01	3.858327e+02
2.230000e-06	3.632452e-06	5.799464e-09	2.612100e+01	3.797365e+02
2.240000e-06	3.497013e-06	5.702095e-09	2.514706e+01	3.734454e+02
2.250000e-06	3.360240e-06	5.598273e-09	2.416353e+01	3.669527e+02
2.260000e-06	3.222223e-06	5.503733e-09	2.317104e+01	3.602523e+02
2.270000e-06	3.082961e-06	5.409713e-09	2.216961e+01	3.533389e+02
2.280000e-06	2.942491e-06	5.294468e-09	2.115949e+01	3.462081e+02
2.290000e-06	2.800873e-06	5.164275e-09	2.014111e+01	3.388559e+02
2.300000e-06	2.658117e-06	5.045936e-09	1.911455e+01	3.312776e+02
2.310000e-06	2.514358e-06	4.932992e-09	1.808078e+01	3.234680e+02
2.320000e-06	2.369709e-06	4.822766e-09	1.704060e+01	3.154197e+02
2.330000e-06	2.224341e-06	4.705728e-09	1.599526e+01	3.071228e+02
2.340000e-06	2.078309e-06	4.575622e-09	1.494514e+01	2.985647e+02
2.350000e-06	1.931528e-06	4.430123e-09	1.388964e+01	2.897303e+02
2.360000e-06	1.784112e-06	4.284195e-09	1.282957e+01	2.806024e+02
2.370000e-06	1.636149e-06	4.146659e-09	1.176556e+01	2.711633e+02
2.380000e-06	1.487697e-06	4.006062e-09	1.069805e+01	2.613953e+02
2.390000e-06	1.338731e-06	3.853804e-09	9.626832e+00	2.512828e+02
2.400000e-06	1.189238e-06	3.689818e-09	8.551821e+00	2.408129e+02
2.410000e-06	1.039343e-06	3.520136e-09	7.473925e+00	2.299764e+02
2.420000e-06	8.891298e-07	3.350545e-09	6.393743e+00	2.187676e+02
2.430000e-06	7.386491e-07	3.180062e-09	5.311634e+00	2.071834e+02
2.440000e-06	5.879669e-07	3.002912e-09	4.228077e+00	1.952217e+02
2.450000e-06	4.371105e-07	2.814734e-09	3.143267e+00	1.828797e+02
2.460000e-06	2.860693e-07	2.621253e-09	2.057127e+00	1.701509e+02
2.470000e-06	1.348880e-07	2.422303e-09	9.699810e-01	1.570231e+02
2.480000e-06	-1.638452e-08	2.213277e-09	-1.178212e-01	1.434768e+02
2.490000e-06	-1.677371e-07	1.994562e-09	-1.206200e+00	1.294842e+02
2.500000e-06	-3.191001e-07	1.767061e-09	-2.294653e+00	1.150100e+02
2.510000e-06	-4.702974e-07	1.533861e-09	-3.381914e+00	1.000139e+02
2.520000e-06	-6.213103e-07	1.296146e-09	-4.467849e+00	8.445367e+01
2.530000e-06	-7.721367e-07	1.054304e-09	-5.552444e+00	6.829091e+01
2.540000e-06	-9.226958e-07	8.032351e-10	-6.635116e+00	5.149657e+01
2.550000e-06	-1.072952e-06	5.369608e-10	-7.715608e+00	3.405732e+01
2.560000e-06	-1.222852e-06	2.579862e-10	-8.793542e+00	1.598132e+01
2.570000e-06	-1.372354e-06	-2.880260e-11	-9.868617e+00	-2.697143e+00
2.580000e-06	-1.521333e-06	-3.210099e-10	-1.093992e+01	-2.191484e+01
2.590000e-06	-1.669764e-06	-6.201275e-10	-1.200729e+01	-4.157914e+01
2.600000e-06	-1.817639e-06	-9.249957e-10	-1.307066e+01	-6.157010e+01
2.610000e-06	-1.964829e-06	-1.234014e-09	-1.412911e+01	-8.174514e+01
2.620000e-06	-2.111251e-06	-1.545532e-09	-1.518203e+01	-1.019459e+02
2.630000e-06	-2.256931e-06	-1.854090e-09	-1.622962e+01	-1.220067e+02
2.640000e-06	-2.401808e-06	-2.153924e-09	-1.727143e+01	-1.417642e+02
2.650000e-06	-2.545695e-06	-2.446009e-09	-1.830612e+01	-1.610663e+02
2.660000e-06	-2.688518e-06	-2.732753e-09	-1.933317e+01	-1.797809e+02
2.670000e-06	-2.830242e-06	-3.010151e-09	-2.035231e+01	-1.978023e+02
2.680000e-06	-2.970812e-06	-3.273563e-09	-2.136315e+01	-2.150553e+02
2.690000e-06	-3.110163e-06	-3.522916e-09	-2.236522e+01	-2.314968e+02
2.700000e-06	-3.248320e-06	-3.760523e-09	-2.335871e+01	-2.471143e+02
2.710000e-06	-3.385293e-06	-3.987959e-09	-2.434368e+01	-2.619222e+02
2.720000e-06	-3.520976e-06	-4.205025e-09	-2.531938e+01	-2.759559e+02
2.730000e-06	-3.655306e-06	-4.412320e-09	-2.628535e+01	-2.892651e+02
2.740000e-06	-3.788308e-06	-4.607602e-09	-2.724176e+01	-3.019061e+02
2.750000e-06	-3.919933e-06	-4.790769e-09	-2.818828e+01	-3.139355e+02
2.760000e-06	-4.050228e-06	-4.965291e-09	-2.912524e+01	-3.254042e+02
2.770000e-06	-4.179234e-06	-5.133300e-09	-3.005292e+01	-3.363540e+02
2.780000e-06	-4.306761e-06	-5.294333e-09	-3.096997e+01	-3.468154e+02
2.790000e-06	-4.432773e-06	-5.445096e-09	-3.187612e+01	-3.568082e+02
2.800000e-06	-4.557249e-06	-5.587664e-09	-3.277123e+01	-3.663429e+02
2.810000e-06	-4.680107e-06	-5.725384e-09	-3.365470e+01	-3.754243e+02
2.820000e-06	-4.801345e-06	-5.857598e-09	-3.452652e+01	-3.840553e+02
2.830000e-06	-4.920810e-06	-5.983063e-09	-3.538560e+01	-3.922400e+02
2.840000e-06	-5.038313e-06	-6.101650e-09	-3.623057e+01	-3.999876e+02
2.850000e-06	-5.153760e-06	-6.212985e-09	-3.706075e+01	-4.073138e+02
2.860000e-06	-5.267057e-06	-6.317808e-09	-3.787547e+01	-4.142417e+02
2.870000e-06	-5.378248e-06	-6.416958e-09	-3.867504e+01	-4.208013e+02
2.880000e-06	-5.487482e-06	-6.512623e-09	-3.946055e+01	-4.270270e+02
2.890000e-06	-5.594871e-06	-6.604560e-09	-4.023278e+01	-4.329556e+02
2.900000e-06	-5.700390e-06	-6.692453e-09	-4.099157e+01	-4.386223e+02
2.910000e-06	-5.803792e-06	-6.777035e-09	-4.173514e+01	-4.440583e+02
2.920000e-06	-5.904901e-06	-6.856940e-09	-4.246221e+01	-4.492881e+02
2.930000e-06	-6.003834e-06	-6.933796e-09	-4.317364e+01	-4.543282e+02
2.940000e-06	-6.100714e-06	-7.008420e-09	-4.387030e+01	-4.591865e+02
