# Temperatura_=_72.15
# Concentracion g/m^3_=_10000.0
# C_Vs_to_Am_M_A/Vsm_=_65563218390.804596
# pendiente_HvsI_1/m_=_3716.3
# ordenada_HvsI_A/m_=_1297.0
# frecuencia_Hz_=_302626.698340938

Tiempo_(s)	Campo_(V.s)	Magnetizacion_(V.s)	Campo_(kA/m)	Magnetizacion_(A/m)
0.000000e+00	-7.915465e-06	-1.090929e-08	-5.681409e+01	-7.153377e+02
1.000000e-08	-7.910740e-06	-1.090724e-08	-5.678017e+01	-7.148562e+02
2.000000e-08	-7.903454e-06	-1.089956e-08	-5.672788e+01	-7.142588e+02
3.000000e-08	-7.893390e-06	-1.088717e-08	-5.665565e+01	-7.135606e+02
4.000000e-08	-7.880482e-06	-1.087106e-08	-5.656300e+01	-7.127751e+02
5.000000e-08	-7.864701e-06	-1.085403e-08	-5.644973e+01	-7.119123e+02
6.000000e-08	-7.846312e-06	-1.084032e-08	-5.631774e+01	-7.109780e+02
7.000000e-08	-7.825673e-06	-1.083463e-08	-5.616960e+01	-7.099728e+02
8.000000e-08	-7.802437e-06	-1.084786e-08	-5.600282e+01	-7.088931e+02
9.000000e-08	-7.776027e-06	-1.085520e-08	-5.581326e+01	-7.077312e+02
1.000000e-07	-7.746458e-06	-1.080760e-08	-5.560102e+01	-7.064769e+02
1.100000e-07	-7.714048e-06	-1.075526e-08	-5.536840e+01	-7.051191e+02
1.200000e-07	-7.678949e-06	-1.072038e-08	-5.511647e+01	-7.036467e+02
1.300000e-07	-7.641396e-06	-1.067207e-08	-5.484693e+01	-7.020501e+02
1.400000e-07	-7.601681e-06	-1.063112e-08	-5.456187e+01	-7.003217e+02
1.500000e-07	-7.559761e-06	-1.064516e-08	-5.426099e+01	-6.984566e+02
1.600000e-07	-7.515207e-06	-1.063391e-08	-5.394120e+01	-6.964518e+02
1.700000e-07	-7.467942e-06	-1.057192e-08	-5.360195e+01	-6.943063e+02
1.800000e-07	-7.417900e-06	-1.055547e-08	-5.324277e+01	-6.920201e+02
1.900000e-07	-7.364883e-06	-1.050038e-08	-5.286223e+01	-6.895934e+02
2.000000e-07	-7.309089e-06	-1.043059e-08	-5.246177e+01	-6.870264e+02
2.100000e-07	-7.250612e-06	-1.040770e-08	-5.204204e+01	-6.843183e+02
2.200000e-07	-7.189450e-06	-1.037632e-08	-5.160305e+01	-6.814681e+02
2.300000e-07	-7.125660e-06	-1.034264e-08	-5.114518e+01	-6.784739e+02
2.400000e-07	-7.059148e-06	-1.028771e-08	-5.066778e+01	-6.753342e+02
2.500000e-07	-6.990001e-06	-1.023008e-08	-5.017147e+01	-6.720480e+02
2.600000e-07	-6.918209e-06	-1.017822e-08	-4.965618e+01	-6.686155e+02
2.700000e-07	-6.843623e-06	-1.011809e-08	-4.912083e+01	-6.650381e+02
2.800000e-07	-6.766220e-06	-1.007401e-08	-4.856527e+01	-6.613188e+02
2.900000e-07	-6.686062e-06	-1.003528e-08	-4.798992e+01	-6.574616e+02
3.000000e-07	-6.603449e-06	-9.987168e-09	-4.739696e+01	-6.534711e+02
3.100000e-07	-6.518608e-06	-9.903930e-09	-4.678801e+01	-6.493512e+02
3.200000e-07	-6.431456e-06	-9.822161e-09	-4.616246e+01	-6.451047e+02
3.300000e-07	-6.341967e-06	-9.757987e-09	-4.552014e+01	-6.407322e+02
3.400000e-07	-6.250232e-06	-9.678887e-09	-4.486171e+01	-6.362319e+02
3.500000e-07	-6.156278e-06	-9.611975e-09	-4.418734e+01	-6.315989e+02
3.600000e-07	-6.060051e-06	-9.557249e-09	-4.349666e+01	-6.268263e+02
3.700000e-07	-5.961515e-06	-9.490686e-09	-4.278941e+01	-6.219054e+02
3.800000e-07	-5.860829e-06	-9.401691e-09	-4.206672e+01	-6.168269e+02
3.900000e-07	-5.758118e-06	-9.316655e-09	-4.132950e+01	-6.115824e+02
4.000000e-07	-5.653398e-06	-9.239283e-09	-4.057787e+01	-6.061651e+02
4.100000e-07	-5.546654e-06	-9.150108e-09	-3.981170e+01	-6.005710e+02
4.200000e-07	-5.437897e-06	-9.063692e-09	-3.903108e+01	-5.947993e+02
4.300000e-07	-5.327230e-06	-8.985039e-09	-3.823676e+01	-5.888520e+02
4.400000e-07	-5.214602e-06	-8.898577e-09	-3.742836e+01	-5.827331e+02
4.500000e-07	-5.099905e-06	-8.788702e-09	-3.660511e+01	-5.764478e+02
4.600000e-07	-4.983207e-06	-8.678193e-09	-3.576750e+01	-5.700005e+02
4.700000e-07	-4.864701e-06	-8.581427e-09	-3.491691e+01	-5.633932e+02
4.800000e-07	-4.744447e-06	-8.485798e-09	-3.405378e+01	-5.566248e+02
4.900000e-07	-4.622444e-06	-8.384678e-09	-3.317808e+01	-5.496894e+02
5.000000e-07	-4.498766e-06	-8.281181e-09	-3.229037e+01	-5.425766e+02
5.100000e-07	-4.373468e-06	-8.170086e-09	-3.139103e+01	-5.352722e+02
5.200000e-07	-4.246577e-06	-8.045905e-09	-3.048026e+01	-5.277589e+02
5.300000e-07	-4.118107e-06	-7.918644e-09	-2.955815e+01	-5.200189e+02
5.400000e-07	-3.988164e-06	-7.795836e-09	-2.862547e+01	-5.120353e+02
5.500000e-07	-3.856759e-06	-7.674449e-09	-2.768230e+01	-5.037943e+02
5.600000e-07	-3.723853e-06	-7.546990e-09	-2.672835e+01	-4.952869e+02
5.700000e-07	-3.589550e-06	-7.413655e-09	-2.576438e+01	-4.865095e+02
5.800000e-07	-3.453878e-06	-7.274297e-09	-2.479058e+01	-4.774638e+02
5.900000e-07	-3.316867e-06	-7.130526e-09	-2.380717e+01	-4.681556e+02
6.000000e-07	-3.178519e-06	-6.983366e-09	-2.281416e+01	-4.585931e+02
6.100000e-07	-3.038713e-06	-6.832684e-09	-2.181069e+01	-4.487839e+02
6.200000e-07	-2.897588e-06	-6.680736e-09	-2.079775e+01	-4.387326e+02
6.300000e-07	-2.755374e-06	-6.527839e-09	-1.977699e+01	-4.284379e+02
6.400000e-07	-2.612176e-06	-6.371369e-09	-1.874917e+01	-4.178913e+02
6.500000e-07	-2.467996e-06	-6.206314e-09	-1.771430e+01	-4.070758e+02
6.600000e-07	-2.322842e-06	-6.031468e-09	-1.667245e+01	-3.959669e+02
6.700000e-07	-2.176855e-06	-5.851255e-09	-1.562461e+01	-3.845339e+02
6.800000e-07	-2.030166e-06	-5.667750e-09	-1.457173e+01	-3.727432e+02
6.900000e-07	-1.882844e-06	-5.481206e-09	-1.351432e+01	-3.605616e+02
7.000000e-07	-1.734904e-06	-5.291602e-09	-1.245246e+01	-3.479597e+02
7.100000e-07	-1.586417e-06	-5.092865e-09	-1.138668e+01	-3.349150e+02
7.200000e-07	-1.437476e-06	-4.885148e-09	-1.031764e+01	-3.214141e+02
7.300000e-07	-1.288088e-06	-4.674307e-09	-9.245387e+00	-3.074524e+02
7.400000e-07	-1.138250e-06	-4.460316e-09	-8.169914e+00	-2.930329e+02
7.500000e-07	-9.880471e-07	-4.241301e-09	-7.091813e+00	-2.781623e+02
7.600000e-07	-8.375451e-07	-4.013655e-09	-6.011569e+00	-2.628467e+02
7.700000e-07	-6.867235e-07	-3.775544e-09	-4.929031e+00	-2.470851e+02
7.800000e-07	-5.356236e-07	-3.527471e-09	-3.844495e+00	-2.308638e+02
7.900000e-07	-3.843800e-07	-3.270209e-09	-2.758929e+00	-2.141514e+02
8.000000e-07	-2.330168e-07	-3.003586e-09	-1.672503e+00	-1.968958e+02
8.100000e-07	-8.149125e-08	-2.726313e-09	-5.849121e-01	-1.790238e+02
8.200000e-07	7.013996e-08	-2.437923e-09	5.034370e-01	-1.604436e+02
8.300000e-07	2.217616e-07	-2.138662e-09	1.591718e+00	-1.410514e+02
8.400000e-07	3.732753e-07	-1.827296e-09	2.679223e+00	-1.207399e+02
8.500000e-07	5.246665e-07	-1.502845e-09	3.765849e+00	-9.941018e+01
8.600000e-07	6.759228e-07	-1.163622e-09	4.851508e+00	-7.698434e+01
8.700000e-07	8.269692e-07	-8.090083e-10	5.935660e+00	-5.341792e+01
8.800000e-07	9.777161e-07	-4.380163e-10	7.017661e+00	-2.871108e+01
8.900000e-07	1.128157e-06	-4.989189e-11	8.097464e+00	-2.916770e+00
9.000000e-07	1.278273e-06	3.541218e-10	9.174939e+00	2.385517e+01
9.100000e-07	1.427989e-06	7.743312e-10	1.024955e+01	5.143855e+01
9.200000e-07	1.577195e-06	1.208392e-09	1.132049e+01	7.961640e+01
9.300000e-07	1.725811e-06	1.650425e-09	1.238719e+01	1.081312e+02
9.400000e-07	1.873842e-06	2.091609e-09	1.344970e+01	1.366990e+02
9.500000e-07	2.021160e-06	2.525602e-09	1.450709e+01	1.650259e+02
9.600000e-07	2.167689e-06	2.949188e-09	1.555882e+01	1.928259e+02
9.700000e-07	2.313433e-06	3.359186e-09	1.660491e+01	2.198379e+02
9.800000e-07	2.458326e-06	3.751229e-09	1.764489e+01	2.458401e+02
9.900000e-07	2.602313e-06	4.124385e-09	1.867838e+01	2.706617e+02
1.000000e-06	2.745321e-06	4.478245e-09	1.970483e+01	2.941888e+02
1.010000e-06	2.887254e-06	4.811950e-09	2.072357e+01	3.163666e+02
1.020000e-06	3.028027e-06	5.125454e-09	2.173398e+01	3.371955e+02
1.030000e-06	3.167509e-06	5.422968e-09	2.273513e+01	3.567241e+02
1.040000e-06	3.305685e-06	5.702344e-09	2.372691e+01	3.750378e+02
1.050000e-06	3.442590e-06	5.963602e-09	2.470956e+01	3.922467e+02
1.060000e-06	3.578169e-06	6.212578e-09	2.568269e+01	4.084721e+02
1.070000e-06	3.712464e-06	6.451223e-09	2.664661e+01	4.238346e+02
1.080000e-06	3.845509e-06	6.677725e-09	2.760155e+01	4.384440e+02
1.090000e-06	3.977189e-06	6.891842e-09	2.854670e+01	4.523920e+02
1.100000e-06	4.107381e-06	7.095883e-09	2.948117e+01	4.657487e+02
1.110000e-06	4.236113e-06	7.290828e-09	3.040515e+01	4.785619e+02
1.120000e-06	4.363342e-06	7.474541e-09	3.131836e+01	4.908597e+02
1.130000e-06	4.489112e-06	7.648163e-09	3.222108e+01	5.026549e+02
1.140000e-06	4.613408e-06	7.815735e-09	3.311322e+01	5.139504e+02
1.150000e-06	4.736047e-06	7.976408e-09	3.399348e+01	5.247459e+02
1.160000e-06	4.857039e-06	8.131722e-09	3.486191e+01	5.350424e+02
1.170000e-06	4.976281e-06	8.281898e-09	3.571778e+01	5.448465e+02
1.180000e-06	5.093643e-06	8.426492e-09	3.656016e+01	5.541728e+02
1.190000e-06	5.209025e-06	8.564456e-09	3.738833e+01	5.630440e+02
1.200000e-06	5.322388e-06	8.696926e-09	3.820201e+01	5.714896e+02
1.210000e-06	5.433767e-06	8.824856e-09	3.900144e+01	5.795436e+02
1.220000e-06	5.543202e-06	8.946176e-09	3.978692e+01	5.872413e+02
1.230000e-06	5.650689e-06	9.058147e-09	4.055842e+01	5.946157e+02
1.240000e-06	5.756168e-06	9.163227e-09	4.131551e+01	6.016955e+02
1.250000e-06	5.859512e-06	9.266709e-09	4.205727e+01	6.085025e+02
1.260000e-06	5.960694e-06	9.368981e-09	4.278351e+01	6.150515e+02
1.270000e-06	6.059663e-06	9.464623e-09	4.349388e+01	6.213508e+02
1.280000e-06	6.156295e-06	9.553830e-09	4.418746e+01	6.274036e+02
1.290000e-06	6.250706e-06	9.640593e-09	4.486511e+01	6.332102e+02
1.300000e-06	6.342934e-06	9.724788e-09	4.552709e+01	6.387706e+02
1.310000e-06	6.432903e-06	9.805169e-09	4.617285e+01	6.440864e+02
1.320000e-06	6.520517e-06	9.881376e-09	4.680171e+01	6.491626e+02
1.330000e-06	6.605842e-06	9.953371e-09	4.741414e+01	6.540081e+02
1.340000e-06	6.688867e-06	1.002351e-08	4.801005e+01	6.586356e+02
1.350000e-06	6.769419e-06	1.009256e-08	4.858822e+01	6.630601e+02
1.360000e-06	6.847475e-06	1.015925e-08	4.914848e+01	6.672975e+02
1.370000e-06	6.922974e-06	1.022317e-08	4.969038e+01	6.713622e+02
1.380000e-06	6.995844e-06	1.028425e-08	5.021341e+01	6.752656e+02
1.390000e-06	7.066202e-06	1.034317e-08	5.071842e+01	6.790138e+02
1.400000e-06	7.134104e-06	1.039975e-08	5.120579e+01	6.826075e+02
1.410000e-06	7.199458e-06	1.045340e-08	5.167488e+01	6.860417e+02
1.420000e-06	7.262255e-06	1.050229e-08	5.212561e+01	6.893072e+02
1.430000e-06	7.322573e-06	1.054737e-08	5.255854e+01	6.923917e+02
1.440000e-06	7.380367e-06	1.059119e-08	5.297337e+01	6.952828e+02
1.450000e-06	7.435466e-06	1.063284e-08	5.336885e+01	6.979696e+02
1.460000e-06	7.487701e-06	1.067059e-08	5.374377e+01	7.004457e+02
1.470000e-06	7.536906e-06	1.070604e-08	5.409694e+01	7.027098e+02
1.480000e-06	7.583238e-06	1.073786e-08	5.442950e+01	7.047669e+02
1.490000e-06	7.626950e-06	1.076620e-08	5.474325e+01	7.066279e+02
1.500000e-06	7.667952e-06	1.079393e-08	5.503754e+01	7.083085e+02
1.510000e-06	7.706201e-06	1.082070e-08	5.531208e+01	7.098271e+02
1.520000e-06	7.741805e-06	1.084593e-08	5.556763e+01	7.112027e+02
1.530000e-06	7.774640e-06	1.086737e-08	5.580331e+01	7.124522e+02
1.540000e-06	7.804688e-06	1.088561e-08	5.601898e+01	7.135891e+02
1.550000e-06	7.832018e-06	1.090166e-08	5.621514e+01	7.146210e+02
1.560000e-06	7.856382e-06	1.091537e-08	5.639002e+01	7.155498e+02
1.570000e-06	7.877831e-06	1.092764e-08	5.654397e+01	7.163717e+02
1.580000e-06	7.896614e-06	1.093887e-08	5.667879e+01	7.170782e+02
1.590000e-06	7.912563e-06	1.094903e-08	5.679326e+01	7.176582e+02
1.600000e-06	7.925493e-06	1.095546e-08	5.688607e+01	7.180996e+02
1.610000e-06	7.935216e-06	1.095788e-08	5.695586e+01	7.183923e+02
1.620000e-06	7.941896e-06	1.096014e-08	5.700380e+01	7.185292e+02
1.630000e-06	7.945911e-06	1.096346e-08	5.703262e+01	7.185083e+02
1.640000e-06	7.947148e-06	1.096340e-08	5.704150e+01	7.183328e+02
1.650000e-06	7.945590e-06	1.095860e-08	5.703032e+01	7.180110e+02
1.660000e-06	7.941415e-06	1.095097e-08	5.700035e+01	7.175550e+02
1.670000e-06	7.934570e-06	1.094605e-08	5.695122e+01	7.169798e+02
1.680000e-06	7.925111e-06	1.093974e-08	5.688333e+01	7.163006e+02
1.690000e-06	7.913012e-06	1.093013e-08	5.679649e+01	7.155315e+02
1.700000e-06	7.898083e-06	1.092061e-08	5.668933e+01	7.146833e+02
1.710000e-06	7.880594e-06	1.090654e-08	5.656380e+01	7.137627e+02
1.720000e-06	7.860877e-06	1.087323e-08	5.642228e+01	7.127715e+02
1.730000e-06	7.838545e-06	1.080404e-08	5.626199e+01	7.117069e+02
1.740000e-06	7.812918e-06	1.077295e-08	5.607805e+01	7.105621e+02
1.750000e-06	7.783717e-06	1.079449e-08	5.586846e+01	7.093272e+02
1.760000e-06	7.751292e-06	1.079604e-08	5.563572e+01	7.079912e+02
1.770000e-06	7.716395e-06	1.079907e-08	5.538525e+01	7.065428e+02
1.780000e-06	7.679175e-06	1.080295e-08	5.511810e+01	7.049722e+02
1.790000e-06	7.639721e-06	1.075583e-08	5.483491e+01	7.032712e+02
1.800000e-06	7.598261e-06	1.069373e-08	5.453733e+01	7.014343e+02
1.810000e-06	7.554343e-06	1.067736e-08	5.422210e+01	6.994582e+02
1.820000e-06	7.507751e-06	1.064705e-08	5.388768e+01	6.973416e+02
1.830000e-06	7.458475e-06	1.063834e-08	5.353400e+01	6.950841e+02
1.840000e-06	7.406233e-06	1.062846e-08	5.315902e+01	6.926862e+02
1.850000e-06	7.351099e-06	1.055903e-08	5.276330e+01	6.901479e+02
1.860000e-06	7.293244e-06	1.052817e-08	5.234803e+01	6.874688e+02
1.870000e-06	7.232754e-06	1.044989e-08	5.191386e+01	6.846478e+02
1.880000e-06	7.169597e-06	1.040406e-08	5.146055e+01	6.816832e+02
1.890000e-06	7.103668e-06	1.038349e-08	5.098733e+01	6.785735e+02
1.900000e-06	7.035003e-06	1.031653e-08	5.049448e+01	6.753174e+02
1.910000e-06	6.963508e-06	1.029280e-08	4.998132e+01	6.719148e+02
1.920000e-06	6.889352e-06	1.020896e-08	4.944906e+01	6.683668e+02
1.930000e-06	6.812563e-06	1.014052e-08	4.889790e+01	6.646763e+02
1.940000e-06	6.733020e-06	1.006791e-08	4.832696e+01	6.608470e+02
1.950000e-06	6.651023e-06	1.001536e-08	4.773842e+01	6.568833e+02
1.960000e-06	6.566582e-06	9.993866e-09	4.713234e+01	6.527895e+02
1.970000e-06	6.479591e-06	9.917737e-09	4.650796e+01	6.485686e+02
1.980000e-06	6.390224e-06	9.876081e-09	4.586652e+01	6.442219e+02
1.990000e-06	6.298762e-06	9.789703e-09	4.521004e+01	6.397479e+02
2.000000e-06	6.205135e-06	9.691342e-09	4.453802e+01	6.351425e+02
2.010000e-06	6.109135e-06	9.603029e-09	4.384897e+01	6.303992e+02
2.020000e-06	6.010950e-06	9.537289e-09	4.314423e+01	6.255094e+02
2.030000e-06	5.910700e-06	9.480266e-09	4.242468e+01	6.204641e+02
2.040000e-06	5.808340e-06	9.398941e-09	4.168998e+01	6.152544e+02
2.050000e-06	5.703853e-06	9.328413e-09	4.094001e+01	6.098732e+02
2.060000e-06	5.597403e-06	9.232064e-09	4.017596e+01	6.043159e+02
2.070000e-06	5.489071e-06	9.129174e-09	3.939839e+01	5.985808e+02
2.080000e-06	5.378814e-06	9.023761e-09	3.860701e+01	5.926695e+02
2.090000e-06	5.266535e-06	8.947381e-09	3.780112e+01	5.865856e+02
2.100000e-06	5.152346e-06	8.864860e-09	3.698151e+01	5.803342e+02
2.110000e-06	5.036243e-06	8.769758e-09	3.614817e+01	5.739199e+02
2.120000e-06	4.918075e-06	8.671017e-09	3.530001e+01	5.673456e+02
2.130000e-06	4.797992e-06	8.566474e-09	3.443809e+01	5.606107e+02
2.140000e-06	4.676107e-06	8.452552e-09	3.356325e+01	5.537104e+02
2.150000e-06	4.552566e-06	8.333340e-09	3.267652e+01	5.466354e+02
2.160000e-06	4.427403e-06	8.229816e-09	3.177815e+01	5.393720e+02
2.170000e-06	4.300603e-06	8.122750e-09	3.086804e+01	5.319037e+02
2.180000e-06	4.172149e-06	8.009660e-09	2.994604e+01	5.242124e+02
2.190000e-06	4.042191e-06	7.883252e-09	2.901325e+01	5.162809e+02
2.200000e-06	3.910785e-06	7.754440e-09	2.807008e+01	5.080947e+02
2.210000e-06	3.777916e-06	7.619837e-09	2.711639e+01	4.996435e+02
2.220000e-06	3.643648e-06	7.489306e-09	2.615267e+01	4.909226e+02
2.230000e-06	3.507978e-06	7.362651e-09	2.517888e+01	4.819327e+02
2.240000e-06	3.370933e-06	7.232008e-09	2.419523e+01	4.726787e+02
2.250000e-06	3.232645e-06	7.087965e-09	2.320266e+01	4.631687e+02
2.260000e-06	3.093212e-06	6.933301e-09	2.220186e+01	4.534104e+02
2.270000e-06	2.952603e-06	6.775131e-09	2.119262e+01	4.434095e+02
2.280000e-06	2.810796e-06	6.613839e-09	2.017479e+01	4.331661e+02
2.290000e-06	2.667792e-06	6.454872e-09	1.914836e+01	4.226732e+02
2.300000e-06	2.523787e-06	6.295428e-09	1.811475e+01	4.119159e+02
2.310000e-06	2.378930e-06	6.132134e-09	1.707502e+01	4.008709e+02
2.320000e-06	2.233269e-06	5.958682e-09	1.602953e+01	3.895087e+02
2.330000e-06	2.086895e-06	5.777974e-09	1.497891e+01	3.777963e+02
2.340000e-06	1.939889e-06	5.589793e-09	1.392376e+01	3.656997e+02
2.350000e-06	1.792242e-06	5.396632e-09	1.286401e+01	3.531886e+02
2.360000e-06	1.643931e-06	5.199189e-09	1.179949e+01	3.402389e+02
2.370000e-06	1.495058e-06	4.995841e-09	1.073094e+01	3.268351e+02
2.380000e-06	1.345750e-06	4.787615e-09	9.659260e+00	3.129708e+02
2.390000e-06	1.196084e-06	4.570086e-09	8.585018e+00	2.986475e+02
2.400000e-06	1.046014e-06	4.341479e-09	7.507879e+00	2.838716e+02
2.410000e-06	8.955568e-07	4.104302e-09	6.427954e+00	2.686498e+02
2.420000e-06	7.448531e-07	3.863665e-09	5.346262e+00	2.529830e+02
2.430000e-06	5.939105e-07	3.622220e-09	4.262856e+00	2.368608e+02
2.440000e-06	4.427305e-07	3.374120e-09	3.177745e+00	2.202559e+02
2.450000e-06	2.913703e-07	3.113343e-09	2.091341e+00	2.031209e+02
2.460000e-06	1.398531e-07	2.837729e-09	1.003811e+00	1.853868e+02
2.470000e-06	-1.175790e-08	2.549283e-09	-8.439358e-02	1.669655e+02
2.480000e-06	-1.634053e-07	2.250820e-09	-1.172859e+00	1.477550e+02
2.490000e-06	-3.150250e-07	1.942361e-09	-2.261126e+00	1.276479e+02
2.500000e-06	-4.665492e-07	1.622686e-09	-3.348707e+00	1.065425e+02
2.510000e-06	-6.178781e-07	1.287485e-09	-4.434885e+00	8.435524e+01
2.520000e-06	-7.689442e-07	9.344370e-10	-5.519179e+00	6.103353e+01
2.530000e-06	-9.197461e-07	5.646451e-10	-6.601575e+00	3.656715e+01
2.540000e-06	-1.070270e-06	1.800075e-10	-7.681980e+00	1.099723e+01
2.550000e-06	-1.220440e-06	-2.180293e-10	-8.759841e+00	-1.557869e+01
2.560000e-06	-1.370187e-06	-6.336620e-10	-9.834661e+00	-4.300621e+01
2.570000e-06	-1.519460e-06	-1.065083e-09	-1.090609e+01	-7.107851e+01
2.580000e-06	-1.668194e-06	-1.505952e-09	-1.197364e+01	-9.954572e+01
2.590000e-06	-1.816290e-06	-1.948656e-09	-1.303662e+01	-1.281282e+02
2.600000e-06	-1.963660e-06	-2.390158e-09	-1.409438e+01	-1.565326e+02
2.610000e-06	-2.110300e-06	-2.827621e-09	-1.514690e+01	-1.844700e+02
2.620000e-06	-2.256211e-06	-3.248478e-09	-1.619419e+01	-2.116724e+02
2.630000e-06	-2.401312e-06	-3.646274e-09	-1.723567e+01	-2.379086e+02
2.640000e-06	-2.545454e-06	-4.024543e-09	-1.827027e+01	-2.629961e+02
2.650000e-06	-2.688490e-06	-4.383618e-09	-1.929693e+01	-2.868086e+02
2.660000e-06	-2.830452e-06	-4.720097e-09	-2.031587e+01	-3.092786e+02
2.670000e-06	-2.971368e-06	-5.038215e-09	-2.132731e+01	-3.303954e+02
2.680000e-06	-3.111055e-06	-5.340917e-09	-2.232993e+01	-3.501978e+02
2.690000e-06	-3.249501e-06	-5.626874e-09	-2.332364e+01	-3.687646e+02
2.700000e-06	-3.386807e-06	-5.895540e-09	-2.430916e+01	-3.862015e+02
2.710000e-06	-3.522811e-06	-6.149341e-09	-2.528535e+01	-4.026287e+02
2.720000e-06	-3.657402e-06	-6.392929e-09	-2.625139e+01	-4.181678e+02
2.730000e-06	-3.790701e-06	-6.624846e-09	-2.720816e+01	-4.329315e+02
2.740000e-06	-3.922694e-06	-6.844549e-09	-2.815555e+01	-4.470159e+02
2.750000e-06	-4.053282e-06	-7.053301e-09	-2.909287e+01	-4.604959e+02
2.760000e-06	-4.182486e-06	-7.251684e-09	-3.002023e+01	-4.734239e+02
2.770000e-06	-4.310228e-06	-7.439288e-09	-3.093712e+01	-4.858320e+02
2.780000e-06	-4.436458e-06	-7.616330e-09	-3.184315e+01	-4.977357e+02
2.790000e-06	-4.561163e-06	-7.785846e-09	-3.273823e+01	-5.091397e+02
2.800000e-06	-4.684276e-06	-7.949743e-09	-3.362189e+01	-5.200437e+02
2.810000e-06	-4.805730e-06	-8.107749e-09	-3.449364e+01	-5.304481e+02
2.820000e-06	-4.925350e-06	-8.258864e-09	-3.535223e+01	-5.403582e+02
2.830000e-06	-5.043060e-06	-8.404161e-09	-3.619710e+01	-5.497866e+02
2.840000e-06	-5.158800e-06	-8.543292e-09	-3.702783e+01	-5.587544e+02
2.850000e-06	-5.272399e-06	-8.675106e-09	-3.784321e+01	-5.672898e+02
2.860000e-06	-5.383940e-06	-8.797627e-09	-3.864380e+01	-5.754261e+02
2.870000e-06	-5.493558e-06	-8.913761e-09	-3.943060e+01	-5.831985e+02
2.880000e-06	-5.601245e-06	-9.027408e-09	-4.020353e+01	-5.906410e+02
2.890000e-06	-5.707035e-06	-9.137487e-09	-4.096285e+01	-5.977832e+02
2.900000e-06	-5.810709e-06	-9.243982e-09	-4.170699e+01	-6.046485e+02
2.910000e-06	-5.912138e-06	-9.343926e-09	-4.243500e+01	-6.112532e+02
2.920000e-06	-6.011444e-06	-9.438574e-09	-4.314778e+01	-6.176070e+02
2.930000e-06	-6.108628e-06	-9.530157e-09	-4.384533e+01	-6.237139e+02
2.940000e-06	-6.203588e-06	-9.618123e-09	-4.452691e+01	-6.295746e+02
