# Temperatura_=_46.07
# Concentracion g/m^3_=_10000.0
# C_Vs_to_Am_M_A/Vsm_=_65563218390.804596
# pendiente_HvsI_1/m_=_3716.3
# ordenada_HvsI_A/m_=_1297.0
# frecuencia_Hz_=_302618.08982775855

Tiempo_(s)	Campo_(V.s)	Magnetizacion_(V.s)	Campo_(kA/m)	Magnetizacion_(A/m)
0.000000e+00	-7.879738e-06	-8.805130e-09	-5.683781e+01	-5.771252e+02
1.000000e-08	-7.877436e-06	-8.807590e-09	-5.682121e+01	-5.768921e+02
2.000000e-08	-7.872411e-06	-8.802879e-09	-5.678496e+01	-5.765516e+02
3.000000e-08	-7.864865e-06	-8.798461e-09	-5.673054e+01	-5.761167e+02
4.000000e-08	-7.854602e-06	-8.792658e-09	-5.665651e+01	-5.756028e+02
5.000000e-08	-7.841429e-06	-8.780689e-09	-5.656149e+01	-5.750251e+02
6.000000e-08	-7.825299e-06	-8.765069e-09	-5.644514e+01	-5.743970e+02
7.000000e-08	-7.806606e-06	-8.749050e-09	-5.631030e+01	-5.737285e+02
8.000000e-08	-7.785708e-06	-8.743425e-09	-5.615956e+01	-5.730248e+02
9.000000e-08	-7.762199e-06	-8.792453e-09	-5.598999e+01	-5.722856e+02
1.000000e-07	-7.735491e-06	-8.791844e-09	-5.579734e+01	-5.715061e+02
1.100000e-07	-7.705615e-06	-8.728437e-09	-5.558184e+01	-5.706771e+02
1.200000e-07	-7.672983e-06	-8.692239e-09	-5.534646e+01	-5.697869e+02
1.300000e-07	-7.637731e-06	-8.669561e-09	-5.509218e+01	-5.688226e+02
1.400000e-07	-7.600005e-06	-8.621025e-09	-5.482006e+01	-5.677715e+02
1.500000e-07	-7.560184e-06	-8.573230e-09	-5.453282e+01	-5.666230e+02
1.600000e-07	-7.518186e-06	-8.659290e-09	-5.422988e+01	-5.653689e+02
1.700000e-07	-7.473481e-06	-8.621993e-09	-5.390742e+01	-5.640045e+02
1.800000e-07	-7.426056e-06	-8.533987e-09	-5.356533e+01	-5.625277e+02
1.900000e-07	-7.375854e-06	-8.591075e-09	-5.320322e+01	-5.609394e+02
2.000000e-07	-7.322630e-06	-8.500535e-09	-5.281931e+01	-5.592418e+02
2.100000e-07	-7.266671e-06	-8.451694e-09	-5.241567e+01	-5.574381e+02
2.200000e-07	-7.208107e-06	-8.464663e-09	-5.199323e+01	-5.555312e+02
2.300000e-07	-7.146892e-06	-8.429320e-09	-5.155168e+01	-5.535235e+02
2.400000e-07	-7.083092e-06	-8.407706e-09	-5.109148e+01	-5.514159e+02
2.500000e-07	-7.016588e-06	-8.341063e-09	-5.061178e+01	-5.492083e+02
2.600000e-07	-6.947400e-06	-8.327483e-09	-5.011272e+01	-5.468994e+02
2.700000e-07	-6.875540e-06	-8.294292e-09	-4.959438e+01	-5.444877e+02
2.800000e-07	-6.800941e-06	-8.256757e-09	-4.905628e+01	-5.419716e+02
2.900000e-07	-6.723559e-06	-8.222422e-09	-4.849811e+01	-5.393501e+02
3.000000e-07	-6.643410e-06	-8.195794e-09	-4.791999e+01	-5.366229e+02
3.100000e-07	-6.560763e-06	-8.168515e-09	-4.732384e+01	-5.337908e+02
3.200000e-07	-6.475911e-06	-8.074814e-09	-4.671179e+01	-5.308551e+02
3.300000e-07	-6.388901e-06	-8.034040e-09	-4.608417e+01	-5.278172e+02
3.400000e-07	-6.299577e-06	-7.997314e-09	-4.543986e+01	-5.246783e+02
3.500000e-07	-6.207968e-06	-7.936217e-09	-4.477907e+01	-5.214384e+02
3.600000e-07	-6.114112e-06	-7.881955e-09	-4.410207e+01	-5.180959e+02
3.700000e-07	-6.017998e-06	-7.848122e-09	-4.340878e+01	-5.146475e+02
3.800000e-07	-5.919660e-06	-7.805319e-09	-4.269946e+01	-5.110880e+02
3.900000e-07	-5.819186e-06	-7.726735e-09	-4.197473e+01	-5.074111e+02
4.000000e-07	-5.716685e-06	-7.670939e-09	-4.123537e+01	-5.036094e+02
4.100000e-07	-5.612164e-06	-7.618153e-09	-4.048144e+01	-4.996758e+02
4.200000e-07	-5.505643e-06	-7.557608e-09	-3.971309e+01	-4.956040e+02
4.300000e-07	-5.397157e-06	-7.485467e-09	-3.893056e+01	-4.913895e+02
4.400000e-07	-5.286788e-06	-7.431346e-09	-3.813445e+01	-4.870295e+02
4.500000e-07	-5.174503e-06	-7.372295e-09	-3.732452e+01	-4.825231e+02
4.600000e-07	-5.060174e-06	-7.286089e-09	-3.649985e+01	-4.778711e+02
4.700000e-07	-4.943869e-06	-7.198491e-09	-3.566092e+01	-4.730750e+02
4.800000e-07	-4.825737e-06	-7.128758e-09	-3.480881e+01	-4.681359e+02
4.900000e-07	-4.705845e-06	-7.063125e-09	-3.394402e+01	-4.630536e+02
5.000000e-07	-4.584255e-06	-6.982120e-09	-3.306697e+01	-4.578256e+02
5.100000e-07	-4.460910e-06	-6.901932e-09	-3.217726e+01	-4.524461e+02
5.200000e-07	-4.335882e-06	-6.817525e-09	-3.127541e+01	-4.469066e+02
5.300000e-07	-4.209321e-06	-6.727745e-09	-3.036251e+01	-4.411956e+02
5.400000e-07	-4.081289e-06	-6.628931e-09	-2.943899e+01	-4.352998e+02
5.500000e-07	-3.951797e-06	-6.535587e-09	-2.850495e+01	-4.292051e+02
5.600000e-07	-3.820788e-06	-6.444070e-09	-2.755996e+01	-4.228986e+02
5.700000e-07	-3.688281e-06	-6.346822e-09	-2.660416e+01	-4.163693e+02
5.800000e-07	-3.554331e-06	-6.241063e-09	-2.563796e+01	-4.096098e+02
5.900000e-07	-3.419005e-06	-6.129113e-09	-2.466183e+01	-4.026163e+02
6.000000e-07	-3.282414e-06	-6.018290e-09	-2.367658e+01	-3.953888e+02
6.100000e-07	-3.144639e-06	-5.902467e-09	-2.268279e+01	-3.879299e+02
6.200000e-07	-3.005569e-06	-5.784832e-09	-2.167965e+01	-3.802436e+02
6.300000e-07	-2.865120e-06	-5.666064e-09	-2.066657e+01	-3.723332e+02
6.400000e-07	-2.723476e-06	-5.547315e-09	-1.964487e+01	-3.641990e+02
6.500000e-07	-2.580784e-06	-5.422409e-09	-1.861561e+01	-3.558369e+02
6.600000e-07	-2.437132e-06	-5.289886e-09	-1.757943e+01	-3.472372e+02
6.700000e-07	-2.292577e-06	-5.149590e-09	-1.653672e+01	-3.383835e+02
6.800000e-07	-2.147142e-06	-5.004951e-09	-1.548768e+01	-3.292540e+02
6.900000e-07	-2.000897e-06	-4.858915e-09	-1.443279e+01	-3.198226e+02
7.000000e-07	-1.853995e-06	-4.709794e-09	-1.337316e+01	-3.100613e+02
7.100000e-07	-1.706548e-06	-4.556564e-09	-1.230960e+01	-2.999426e+02
7.200000e-07	-1.558612e-06	-4.392650e-09	-1.124252e+01	-2.894426e+02
7.300000e-07	-1.410263e-06	-4.222887e-09	-1.017245e+01	-2.785427e+02
7.400000e-07	-1.261506e-06	-4.049735e-09	-9.099442e+00	-2.672313e+02
7.500000e-07	-1.112373e-06	-3.874484e-09	-8.023726e+00	-2.555033e+02
7.600000e-07	-9.628685e-07	-3.695653e-09	-6.945326e+00	-2.433588e+02
7.700000e-07	-8.130262e-07	-3.508973e-09	-5.864489e+00	-2.308004e+02
7.800000e-07	-6.629514e-07	-3.312000e-09	-4.781975e+00	-2.178291e+02
7.900000e-07	-5.126395e-07	-3.106931e-09	-3.697751e+00	-2.044397e+02
8.000000e-07	-3.620995e-07	-2.896234e-09	-2.611882e+00	-1.906171e+02
8.100000e-07	-2.113838e-07	-2.676090e-09	-1.524745e+00	-1.763324e+02
8.200000e-07	-6.053207e-08	-2.447121e-09	-4.366275e-01	-1.615415e+02
8.300000e-07	9.038621e-08	-2.209058e-09	6.519702e-01	-1.461853e+02
8.400000e-07	2.412539e-07	-1.963735e-09	1.740203e+00	-1.301931e+02
8.500000e-07	3.920234e-07	-1.709561e-09	2.827728e+00	-1.134880e+02
8.600000e-07	5.427141e-07	-1.445829e-09	3.914684e+00	-9.599453e+01
8.700000e-07	6.931871e-07	-1.172410e-09	5.000070e+00	-7.764811e+01
8.800000e-07	8.434479e-07	-8.842634e-10	6.083926e+00	-5.840498e+01
8.900000e-07	9.934682e-07	-5.797683e-10	7.166046e+00	-3.825163e+01
9.000000e-07	1.143135e-06	-2.602793e-10	8.245618e+00	-1.721255e+01
9.100000e-07	1.292443e-06	7.109638e-11	9.322600e+00	4.644576e+00
9.200000e-07	1.441316e-06	4.156939e-10	1.039645e+01	2.720726e+01
9.300000e-07	1.589719e-06	7.707779e-10	1.146690e+01	5.032044e+01
9.400000e-07	1.737570e-06	1.131201e-09	1.253337e+01	7.379266e+01
9.500000e-07	1.884824e-06	1.493471e-09	1.359554e+01	9.740582e+01
9.600000e-07	2.031451e-06	1.854519e-09	1.465318e+01	1.209275e+02
9.700000e-07	2.177289e-06	2.210292e-09	1.570513e+01	1.441248e+02
9.800000e-07	2.322238e-06	2.555914e-09	1.675068e+01	1.667785e+02
9.900000e-07	2.466315e-06	2.888077e-09	1.778993e+01	1.886960e+02
1.000000e-06	2.609441e-06	3.206676e-09	1.882232e+01	2.097218e+02
1.010000e-06	2.751526e-06	3.507926e-09	1.984720e+01	2.297440e+02
1.020000e-06	2.892582e-06	3.791123e-09	2.086466e+01	2.486982e+02
1.030000e-06	3.032496e-06	4.059819e-09	2.187388e+01	2.665657e+02
1.040000e-06	3.171063e-06	4.315164e-09	2.287339e+01	2.833687e+02
1.050000e-06	3.308294e-06	4.556277e-09	2.386325e+01	2.991625e+02
1.060000e-06	3.444381e-06	4.782520e-09	2.484487e+01	3.140252e+02
1.070000e-06	3.579221e-06	4.997652e-09	2.581750e+01	3.280469e+02
1.080000e-06	3.712731e-06	5.203460e-09	2.678053e+01	3.413191e+02
1.090000e-06	3.844965e-06	5.397555e-09	2.773435e+01	3.539261e+02
1.100000e-06	3.975781e-06	5.580199e-09	2.867795e+01	3.659380e+02
1.110000e-06	4.105146e-06	5.754666e-09	2.961108e+01	3.774073e+02
1.120000e-06	4.233075e-06	5.921410e-09	3.053385e+01	3.883680e+02
1.130000e-06	4.359473e-06	6.079981e-09	3.144558e+01	3.988377e+02
1.140000e-06	4.484440e-06	6.230895e-09	3.234699e+01	4.088220e+02
1.150000e-06	4.607945e-06	6.374253e-09	3.323785e+01	4.183191e+02
1.160000e-06	4.729699e-06	6.508870e-09	3.411608e+01	4.273265e+02
1.170000e-06	4.849759e-06	6.635574e-09	3.498209e+01	4.358453e+02
1.180000e-06	4.968140e-06	6.756552e-09	3.583600e+01	4.438850e+02
1.190000e-06	5.084644e-06	6.873684e-09	3.667635e+01	4.514648e+02
1.200000e-06	5.199106e-06	6.983791e-09	3.750199e+01	4.586146e+02
1.210000e-06	5.311620e-06	7.087161e-09	3.831357e+01	4.653728e+02
1.220000e-06	5.422256e-06	7.185740e-09	3.911160e+01	4.717836e+02
1.230000e-06	5.530992e-06	7.279880e-09	3.989594e+01	4.778924e+02
1.240000e-06	5.637754e-06	7.368407e-09	4.066602e+01	4.837423e+02
1.250000e-06	5.742406e-06	7.452513e-09	4.142090e+01	4.893697e+02
1.260000e-06	5.844949e-06	7.536232e-09	4.216055e+01	4.948017e+02
1.270000e-06	5.945365e-06	7.617620e-09	4.288488e+01	5.000546e+02
1.280000e-06	6.043537e-06	7.694309e-09	4.359300e+01	5.051340e+02
1.290000e-06	6.139365e-06	7.767138e-09	4.428422e+01	5.100365e+02
1.300000e-06	6.233014e-06	7.837008e-09	4.495973e+01	5.147520e+02
1.310000e-06	6.324495e-06	7.903461e-09	4.561960e+01	5.192675e+02
1.320000e-06	6.413664e-06	7.967359e-09	4.626279e+01	5.235700e+02
1.330000e-06	6.500515e-06	8.028926e-09	4.688926e+01	5.276502e+02
1.340000e-06	6.585131e-06	8.088279e-09	4.749961e+01	5.315041e+02
1.350000e-06	6.667450e-06	8.144380e-09	4.809339e+01	5.351346e+02
1.360000e-06	6.747265e-06	8.196152e-09	4.866910e+01	5.385512e+02
1.370000e-06	6.824584e-06	8.245130e-09	4.922682e+01	5.417686e+02
1.380000e-06	6.899381e-06	8.291708e-09	4.976634e+01	5.448050e+02
1.390000e-06	6.971546e-06	8.336172e-09	5.028688e+01	5.476792e+02
1.400000e-06	7.041196e-06	8.379647e-09	5.078928e+01	5.504083e+02
1.410000e-06	7.108348e-06	8.421730e-09	5.127366e+01	5.530052e+02
1.420000e-06	7.172919e-06	8.460244e-09	5.173942e+01	5.554778e+02
1.430000e-06	7.235031e-06	8.494584e-09	5.218744e+01	5.578281e+02
1.440000e-06	7.294726e-06	8.526550e-09	5.261803e+01	5.600529e+02
1.450000e-06	7.351847e-06	8.557363e-09	5.303006e+01	5.621453e+02
1.460000e-06	7.406307e-06	8.586905e-09	5.342288e+01	5.640967e+02
1.470000e-06	7.457878e-06	8.613709e-09	5.379487e+01	5.658990e+02
1.480000e-06	7.506401e-06	8.639025e-09	5.414488e+01	5.675470e+02
1.490000e-06	7.552144e-06	8.662371e-09	5.447483e+01	5.690397e+02
1.500000e-06	7.595260e-06	8.682284e-09	5.478583e+01	5.703815e+02
1.510000e-06	7.635625e-06	8.700577e-09	5.507699e+01	5.715816e+02
1.520000e-06	7.673300e-06	8.718391e-09	5.534875e+01	5.726540e+02
1.530000e-06	7.708333e-06	8.734639e-09	5.560145e+01	5.736148e+02
1.540000e-06	7.740595e-06	8.748546e-09	5.583416e+01	5.744810e+02
1.550000e-06	7.770135e-06	8.762018e-09	5.604723e+01	5.752675e+02
1.560000e-06	7.796915e-06	8.774588e-09	5.624040e+01	5.759857e+02
1.570000e-06	7.820731e-06	8.785493e-09	5.641219e+01	5.766420e+02
1.580000e-06	7.841781e-06	8.794665e-09	5.656403e+01	5.772368e+02
1.590000e-06	7.860161e-06	8.802864e-09	5.669660e+01	5.777653e+02
1.600000e-06	7.875582e-06	8.810301e-09	5.680784e+01	5.782180e+02
1.610000e-06	7.887942e-06	8.815412e-09	5.689699e+01	5.785829e+02
1.620000e-06	7.897198e-06	8.817572e-09	5.696376e+01	5.788475e+02
1.630000e-06	7.903554e-06	8.818796e-09	5.700960e+01	5.790008e+02
1.640000e-06	7.907181e-06	8.820132e-09	5.703577e+01	5.790353e+02
1.650000e-06	7.907976e-06	8.822615e-09	5.704150e+01	5.789487e+02
1.660000e-06	7.906076e-06	8.818962e-09	5.702780e+01	5.787437e+02
1.670000e-06	7.901646e-06	8.817069e-09	5.699585e+01	5.784285e+02
1.680000e-06	7.894538e-06	8.816531e-09	5.694457e+01	5.780154e+02
1.690000e-06	7.884755e-06	8.811025e-09	5.687401e+01	5.775192e+02
1.700000e-06	7.872258e-06	8.803072e-09	5.678387e+01	5.769557e+02
1.710000e-06	7.857017e-06	8.796653e-09	5.667392e+01	5.763387e+02
1.720000e-06	7.839314e-06	8.792468e-09	5.654623e+01	5.756792e+02
1.730000e-06	7.819333e-06	8.753089e-09	5.640211e+01	5.749836e+02
1.740000e-06	7.796736e-06	8.668603e-09	5.623911e+01	5.742531e+02
1.750000e-06	7.770871e-06	8.678659e-09	5.605254e+01	5.734839e+02
1.760000e-06	7.741401e-06	8.709890e-09	5.583997e+01	5.726679e+02
1.770000e-06	7.708762e-06	8.700121e-09	5.560454e+01	5.717938e+02
1.780000e-06	7.673748e-06	8.718956e-09	5.535198e+01	5.708488e+02
1.790000e-06	7.636476e-06	8.762639e-09	5.508313e+01	5.698200e+02
1.800000e-06	7.597053e-06	8.655251e-09	5.479876e+01	5.686963e+02
1.810000e-06	7.555550e-06	8.636789e-09	5.449940e+01	5.674688e+02
1.820000e-06	7.511459e-06	8.686601e-09	5.418136e+01	5.661317e+02
1.830000e-06	7.464738e-06	8.572972e-09	5.384435e+01	5.646827e+02
1.840000e-06	7.415335e-06	8.652646e-09	5.348800e+01	5.631216e+02
1.850000e-06	7.362962e-06	8.595814e-09	5.311023e+01	5.614506e+02
1.860000e-06	7.307748e-06	8.533775e-09	5.271196e+01	5.596726e+02
1.870000e-06	7.249843e-06	8.545521e-09	5.229428e+01	5.577909e+02
1.880000e-06	7.189425e-06	8.436646e-09	5.185848e+01	5.558078e+02
1.890000e-06	7.126287e-06	8.493596e-09	5.140306e+01	5.537247e+02
1.900000e-06	7.060281e-06	8.431568e-09	5.092694e+01	5.515417e+02
1.910000e-06	6.991559e-06	8.381285e-09	5.043124e+01	5.492579e+02
1.920000e-06	6.920084e-06	8.371601e-09	4.991568e+01	5.468716e+02
1.930000e-06	6.846006e-06	8.294897e-09	4.938135e+01	5.443813e+02
1.940000e-06	6.769215e-06	8.272550e-09	4.882744e+01	5.417857e+02
1.950000e-06	6.689699e-06	8.182637e-09	4.825388e+01	5.390845e+02
1.960000e-06	6.607726e-06	8.199059e-09	4.766259e+01	5.362780e+02
1.970000e-06	6.523332e-06	8.158401e-09	4.705384e+01	5.333676e+02
1.980000e-06	6.436498e-06	8.095161e-09	4.642749e+01	5.303547e+02
1.990000e-06	6.347301e-06	8.081569e-09	4.578410e+01	5.272406e+02
2.000000e-06	6.255968e-06	8.011192e-09	4.512531e+01	5.240255e+02
2.010000e-06	6.162419e-06	7.942855e-09	4.445052e+01	5.207085e+02
2.020000e-06	6.066560e-06	7.858934e-09	4.375907e+01	5.172865e+02
2.030000e-06	5.968539e-06	7.839098e-09	4.305203e+01	5.137549e+02
2.040000e-06	5.868509e-06	7.793846e-09	4.233050e+01	5.101076e+02
2.050000e-06	5.766399e-06	7.739656e-09	4.159396e+01	5.063373e+02
2.060000e-06	5.662183e-06	7.680320e-09	4.084223e+01	5.024369e+02
2.070000e-06	5.556023e-06	7.611988e-09	4.007649e+01	4.983997e+02
2.080000e-06	5.447949e-06	7.530495e-09	3.929693e+01	4.942208e+02
2.090000e-06	5.337928e-06	7.449363e-09	3.850333e+01	4.898968e+02
2.100000e-06	5.225956e-06	7.407153e-09	3.769566e+01	4.854266e+02
2.110000e-06	5.112062e-06	7.347567e-09	3.687413e+01	4.808104e+02
2.120000e-06	4.996185e-06	7.274061e-09	3.603828e+01	4.760498e+02
2.130000e-06	4.878349e-06	7.189730e-09	3.518831e+01	4.711459e+02
2.140000e-06	4.758601e-06	7.118584e-09	3.432455e+01	4.660991e+02
2.150000e-06	4.637087e-06	7.034496e-09	3.344805e+01	4.609075e+02
2.160000e-06	4.513953e-06	6.949281e-09	3.255987e+01	4.555661e+02
2.170000e-06	4.389232e-06	6.867830e-09	3.166024e+01	4.500672e+02
2.180000e-06	4.262860e-06	6.787576e-09	3.074870e+01	4.443998e+02
2.190000e-06	4.134821e-06	6.696562e-09	2.982513e+01	4.385510e+02
2.200000e-06	4.005298e-06	6.598791e-09	2.889086e+01	4.325069e+02
2.210000e-06	3.874303e-06	6.501158e-09	2.794597e+01	4.262540e+02
2.220000e-06	3.741910e-06	6.401169e-09	2.699100e+01	4.197808e+02
2.230000e-06	3.608068e-06	6.304466e-09	2.602557e+01	4.130789e+02
2.240000e-06	3.472782e-06	6.205130e-09	2.504973e+01	4.061436e+02
2.250000e-06	3.336215e-06	6.105855e-09	2.406465e+01	3.989740e+02
2.260000e-06	3.198448e-06	5.993692e-09	2.307092e+01	3.915722e+02
2.270000e-06	3.059570e-06	5.874028e-09	2.206917e+01	3.839420e+02
2.280000e-06	2.919497e-06	5.745982e-09	2.105880e+01	3.760869e+02
2.290000e-06	2.778188e-06	5.618709e-09	2.003952e+01	3.680084e+02
2.300000e-06	2.635743e-06	5.493613e-09	1.901204e+01	3.597035e+02
2.310000e-06	2.492332e-06	5.369689e-09	1.797759e+01	3.511640e+02
2.320000e-06	2.348024e-06	5.240842e-09	1.693668e+01	3.423752e+02
2.330000e-06	2.202963e-06	5.101585e-09	1.589032e+01	3.333166e+02
2.340000e-06	2.057227e-06	4.957212e-09	1.483911e+01	3.239628e+02
2.350000e-06	1.910775e-06	4.806869e-09	1.378273e+01	3.142862e+02
2.360000e-06	1.763694e-06	4.654609e-09	1.272181e+01	3.042588e+02
2.370000e-06	1.616117e-06	4.499491e-09	1.165731e+01	2.938556e+02
2.380000e-06	1.468061e-06	4.337448e-09	1.058936e+01	2.830567e+02
2.390000e-06	1.319484e-06	4.168221e-09	9.517653e+00	2.718484e+02
2.400000e-06	1.170443e-06	3.989337e-09	8.442591e+00	2.602242e+02
2.410000e-06	1.021035e-06	3.802447e-09	7.364889e+00	2.481832e+02
2.420000e-06	8.712835e-07	3.611562e-09	6.284708e+00	2.357277e+02
2.430000e-06	7.212252e-07	3.416419e-09	5.202313e+00	2.228593e+02
2.440000e-06	5.709267e-07	3.217956e-09	4.118186e+00	2.095750e+02
2.450000e-06	4.204549e-07	3.013457e-09	3.032809e+00	1.958624e+02
2.460000e-06	2.698331e-07	2.797869e-09	1.946350e+00	1.816963e+02
2.470000e-06	1.190092e-07	2.568942e-09	8.584324e-01	1.670364e+02
2.480000e-06	-3.190181e-08	2.329654e-09	-2.301129e-01	1.518273e+02
2.490000e-06	-1.828142e-07	2.083868e-09	-1.318668e+00	1.360008e+02
2.500000e-06	-3.336983e-07	1.828883e-09	-2.407019e+00	1.194808e+02
2.510000e-06	-4.844435e-07	1.562215e-09	-3.494369e+00	1.021906e+02
2.520000e-06	-6.349728e-07	1.284322e-09	-4.580161e+00	8.406203e+01
2.530000e-06	-7.852829e-07	9.957767e-10	-5.664372e+00	6.504524e+01
2.540000e-06	-9.353097e-07	6.956968e-10	-6.746540e+00	4.511830e+01
2.550000e-06	-1.084998e-06	3.831087e-10	-7.826265e+00	2.429561e+01
2.560000e-06	-1.234291e-06	5.858266e-11	-8.903137e+00	2.633743e+00
2.570000e-06	-1.383137e-06	-2.783782e-10	-9.976789e+00	-1.976595e+01
2.580000e-06	-1.531571e-06	-6.299204e-10	-1.104747e+01	-4.275861e+01
2.590000e-06	-1.679528e-06	-9.925251e-10	-1.211471e+01	-6.616112e+01
2.600000e-06	-1.826853e-06	-1.359868e-09	-1.317739e+01	-8.976095e+01
2.610000e-06	-1.973484e-06	-1.729607e-09	-1.423505e+01	-1.133280e+02
2.620000e-06	-2.119393e-06	-2.094129e-09	-1.528752e+01	-1.366281e+02
2.630000e-06	-2.264496e-06	-2.445368e-09	-1.633417e+01	-1.594375e+02
2.640000e-06	-2.408755e-06	-2.776613e-09	-1.737474e+01	-1.815557e+02
2.650000e-06	-2.552100e-06	-3.091589e-09	-1.840870e+01	-2.028171e+02
2.660000e-06	-2.694361e-06	-3.395671e-09	-1.943486e+01	-2.230986e+02
2.670000e-06	-2.835486e-06	-3.687918e-09	-2.045282e+01	-2.423237e+02
2.680000e-06	-2.975510e-06	-3.966057e-09	-2.146283e+01	-2.604627e+02
2.690000e-06	-3.114323e-06	-4.226308e-09	-2.246411e+01	-2.775283e+02
2.700000e-06	-3.251919e-06	-4.471156e-09	-2.345662e+01	-2.935682e+02
2.710000e-06	-3.388320e-06	-4.704205e-09	-2.444050e+01	-3.086559e+02
2.720000e-06	-3.523425e-06	-4.926508e-09	-2.541503e+01	-3.228796e+02
2.730000e-06	-3.657163e-06	-5.137548e-09	-2.637970e+01	-3.363313e+02
2.740000e-06	-3.789644e-06	-5.336009e-09	-2.733531e+01	-3.490979e+02
2.750000e-06	-3.920845e-06	-5.521944e-09	-2.828169e+01	-3.612534e+02
2.760000e-06	-4.050654e-06	-5.697034e-09	-2.921802e+01	-3.728548e+02
2.770000e-06	-4.179136e-06	-5.864699e-09	-3.014478e+01	-3.839409e+02
2.780000e-06	-4.306142e-06	-6.026084e-09	-3.106090e+01	-3.945329e+02
2.790000e-06	-4.431605e-06	-6.178762e-09	-3.196588e+01	-4.046390e+02
2.800000e-06	-4.555553e-06	-6.324054e-09	-3.285994e+01	-4.142586e+02
2.810000e-06	-4.677875e-06	-6.462677e-09	-3.374227e+01	-4.233890e+02
2.820000e-06	-4.798538e-06	-6.594010e-09	-3.461263e+01	-4.320299e+02
2.830000e-06	-4.917314e-06	-6.718983e-09	-3.546937e+01	-4.401884e+02
2.840000e-06	-5.034118e-06	-6.837986e-09	-3.631190e+01	-4.478812e+02
2.850000e-06	-5.148959e-06	-6.950125e-09	-3.714027e+01	-4.551356e+02
2.860000e-06	-5.261682e-06	-7.055109e-09	-3.795336e+01	-4.619882e+02
2.870000e-06	-5.372375e-06	-7.153872e-09	-3.875181e+01	-4.684820e+02
2.880000e-06	-5.481141e-06	-7.250022e-09	-3.953635e+01	-4.746626e+02
2.890000e-06	-5.588030e-06	-7.344012e-09	-4.030736e+01	-4.805739e+02
2.900000e-06	-5.693018e-06	-7.432743e-09	-4.106465e+01	-4.862545e+02
2.910000e-06	-5.795843e-06	-7.518067e-09	-4.180635e+01	-4.917338e+02
2.920000e-06	-5.896440e-06	-7.598285e-09	-4.253197e+01	-4.970309e+02
2.930000e-06	-5.994944e-06	-7.674550e-09	-4.324250e+01	-5.021542e+02
2.940000e-06	-6.091393e-06	-7.748158e-09	-4.393820e+01	-5.071021e+02
