# Temperatura_=_70.1
# Concentracion g/m^3_=_10000.0
# C_Vs_to_Am_M_A/Vsm_=_65563218390.804596
# pendiente_HvsI_1/m_=_3716.3
# ordenada_HvsI_A/m_=_1297.0
# frecuencia_Hz_=_302626.7961743742

Tiempo_(s)	Campo_(V.s)	Magnetizacion_(V.s)	Campo_(kA/m)	Magnetizacion_(A/m)
0.000000e+00	-7.935900e-06	-1.067257e-08	-5.681800e+01	-6.991033e+02
1.000000e-08	-7.931411e-06	-1.067042e-08	-5.678586e+01	-6.986906e+02
2.000000e-08	-7.924378e-06	-1.066256e-08	-5.673551e+01	-6.981547e+02
3.000000e-08	-7.914608e-06	-1.065281e-08	-5.666556e+01	-6.975076e+02
4.000000e-08	-7.901975e-06	-1.063763e-08	-5.657511e+01	-6.967610e+02
5.000000e-08	-7.886403e-06	-1.062053e-08	-5.646362e+01	-6.959256e+02
6.000000e-08	-7.868191e-06	-1.060802e-08	-5.633323e+01	-6.950096e+02
7.000000e-08	-7.847720e-06	-1.060022e-08	-5.618666e+01	-6.940181e+02
8.000000e-08	-7.824632e-06	-1.061286e-08	-5.602136e+01	-6.929530e+02
9.000000e-08	-7.798434e-06	-1.063963e-08	-5.583380e+01	-6.918130e+02
1.000000e-07	-7.769120e-06	-1.058746e-08	-5.562392e+01	-6.905941e+02
1.100000e-07	-7.736962e-06	-1.051756e-08	-5.539368e+01	-6.892901e+02
1.200000e-07	-7.701996e-06	-1.048762e-08	-5.514334e+01	-6.878937e+02
1.300000e-07	-7.664529e-06	-1.045293e-08	-5.487508e+01	-6.863968e+02
1.400000e-07	-7.624937e-06	-1.039980e-08	-5.459163e+01	-6.847915e+02
1.500000e-07	-7.583149e-06	-1.039258e-08	-5.429244e+01	-6.830698e+02
1.600000e-07	-7.538769e-06	-1.044149e-08	-5.397470e+01	-6.812248e+02
1.700000e-07	-7.491577e-06	-1.033546e-08	-5.363681e+01	-6.792496e+02
1.800000e-07	-7.441589e-06	-1.030018e-08	-5.327893e+01	-6.771381e+02
1.900000e-07	-7.388679e-06	-1.030156e-08	-5.290010e+01	-6.748849e+02
2.000000e-07	-7.332939e-06	-1.019295e-08	-5.250103e+01	-6.724849e+02
2.100000e-07	-7.274499e-06	-1.018261e-08	-5.208262e+01	-6.699339e+02
2.200000e-07	-7.213430e-06	-1.016523e-08	-5.164539e+01	-6.672288e+02
2.300000e-07	-7.149766e-06	-1.013425e-08	-5.118958e+01	-6.643679e+02
2.400000e-07	-7.083345e-06	-1.007736e-08	-5.071403e+01	-6.613512e+02
2.500000e-07	-7.014203e-06	-1.001381e-08	-5.021901e+01	-6.581807e+02
2.600000e-07	-6.942335e-06	-9.975384e-09	-4.970446e+01	-6.548604e+02
2.700000e-07	-6.867707e-06	-9.909931e-09	-4.917015e+01	-6.513960e+02
2.800000e-07	-6.790327e-06	-9.862796e-09	-4.861614e+01	-6.477944e+02
2.900000e-07	-6.710214e-06	-9.813508e-09	-4.804255e+01	-6.440628e+02
3.000000e-07	-6.627616e-06	-9.770087e-09	-4.745119e+01	-6.402079e+02
3.100000e-07	-6.542772e-06	-9.702016e-09	-4.684374e+01	-6.362349e+02
3.200000e-07	-6.455629e-06	-9.615499e-09	-4.621983e+01	-6.321462e+02
3.300000e-07	-6.366184e-06	-9.566939e-09	-4.557943e+01	-6.279412e+02
3.400000e-07	-6.274441e-06	-9.495982e-09	-4.492259e+01	-6.236158e+02
3.500000e-07	-6.180378e-06	-9.424766e-09	-4.424914e+01	-6.191627e+02
3.600000e-07	-6.084042e-06	-9.364753e-09	-4.355941e+01	-6.145722e+02
3.700000e-07	-5.985511e-06	-9.302989e-09	-4.285396e+01	-6.098330e+02
3.800000e-07	-5.884850e-06	-9.221055e-09	-4.213327e+01	-6.049337e+02
3.900000e-07	-5.782049e-06	-9.129001e-09	-4.139725e+01	-5.998645e+02
4.000000e-07	-5.677176e-06	-9.053370e-09	-4.064640e+01	-5.946176e+02
4.100000e-07	-5.570296e-06	-8.967953e-09	-3.988118e+01	-5.891891e+02
4.200000e-07	-5.461461e-06	-8.887648e-09	-3.910197e+01	-5.835783e+02
4.300000e-07	-5.350677e-06	-8.807387e-09	-3.830880e+01	-5.777881e+02
4.400000e-07	-5.237885e-06	-8.725566e-09	-3.750125e+01	-5.718238e+02
4.500000e-07	-5.123069e-06	-8.624392e-09	-3.667921e+01	-5.656918e+02
4.600000e-07	-5.006304e-06	-8.515456e-09	-3.584322e+01	-5.593980e+02
4.700000e-07	-4.887690e-06	-8.418462e-09	-3.499399e+01	-5.529458e+02
4.800000e-07	-4.767217e-06	-8.325294e-09	-3.413144e+01	-5.463356e+02
4.900000e-07	-4.645033e-06	-8.228786e-09	-3.325665e+01	-5.395628e+02
5.000000e-07	-4.521248e-06	-8.120940e-09	-3.237040e+01	-5.326184e+02
5.100000e-07	-4.395795e-06	-8.008668e-09	-3.147221e+01	-5.254893e+02
5.200000e-07	-4.268717e-06	-7.890530e-09	-3.056238e+01	-5.181596e+02
5.300000e-07	-4.140091e-06	-7.771867e-09	-2.964146e+01	-5.106120e+02
5.400000e-07	-4.010018e-06	-7.650094e-09	-2.871019e+01	-5.028302e+02
5.500000e-07	-3.878419e-06	-7.527362e-09	-2.776799e+01	-4.948006e+02
5.600000e-07	-3.745226e-06	-7.404117e-09	-2.681438e+01	-4.865137e+02
5.700000e-07	-3.610550e-06	-7.277812e-09	-2.585015e+01	-4.779650e+02
5.800000e-07	-3.474464e-06	-7.145765e-09	-2.487583e+01	-4.691551e+02
5.900000e-07	-3.337075e-06	-7.005663e-09	-2.389217e+01	-4.600880e+02
6.000000e-07	-3.198394e-06	-6.862504e-09	-2.289927e+01	-4.507702e+02
6.100000e-07	-3.058372e-06	-6.714418e-09	-2.189677e+01	-4.412078e+02
6.200000e-07	-2.917020e-06	-6.565420e-09	-2.088474e+01	-4.314040e+02
6.300000e-07	-2.774447e-06	-6.415920e-09	-1.986397e+01	-4.213571e+02
6.400000e-07	-2.630904e-06	-6.262625e-09	-1.883626e+01	-4.110587e+02
6.500000e-07	-2.486455e-06	-6.098725e-09	-1.780206e+01	-4.004929e+02
6.600000e-07	-2.341099e-06	-5.924735e-09	-1.676137e+01	-3.896370e+02
6.700000e-07	-2.194911e-06	-5.747606e-09	-1.571472e+01	-3.784630e+02
6.800000e-07	-2.047926e-06	-5.569208e-09	-1.466236e+01	-3.669402e+02
6.900000e-07	-1.900256e-06	-5.389461e-09	-1.360510e+01	-3.550384e+02
7.000000e-07	-1.752004e-06	-5.204701e-09	-1.254368e+01	-3.427310e+02
7.100000e-07	-1.603240e-06	-5.011942e-09	-1.147858e+01	-3.299974e+02
7.200000e-07	-1.454031e-06	-4.811199e-09	-1.041031e+01	-3.168253e+02
7.300000e-07	-1.304331e-06	-4.605852e-09	-9.338506e+00	-3.032100e+02
7.400000e-07	-1.154099e-06	-4.394491e-09	-8.262904e+00	-2.891536e+02
7.500000e-07	-1.003441e-06	-4.177167e-09	-7.184256e+00	-2.746610e+02
7.600000e-07	-8.524546e-07	-3.952661e-09	-6.103248e+00	-2.597359e+02
7.700000e-07	-7.012019e-07	-3.719029e-09	-5.020337e+00	-2.443751e+02
7.800000e-07	-5.497377e-07	-3.477883e-09	-3.935911e+00	-2.285636e+02
7.900000e-07	-3.981076e-07	-3.229117e-09	-2.850298e+00	-2.122694e+02
8.000000e-07	-2.463106e-07	-2.970996e-09	-1.763490e+00	-1.954415e+02
8.100000e-07	-9.435443e-08	-2.701082e-09	-6.755415e-01	-1.780092e+02
8.200000e-07	5.768612e-08	-2.421620e-09	4.130105e-01	-1.598848e+02
8.300000e-07	2.097476e-07	-2.132832e-09	1.501712e+00	-1.409697e+02
8.400000e-07	3.617473e-07	-1.831025e-09	2.589972e+00	-1.211623e+02
8.500000e-07	5.136449e-07	-1.513699e-09	3.677500e+00	-1.003695e+02
8.600000e-07	6.653949e-07	-1.181598e-09	4.763973e+00	-7.851770e+01
8.700000e-07	8.169330e-07	-8.350329e-10	5.848927e+00	-5.556501e+01
8.800000e-07	9.682382e-07	-4.710893e-10	6.932214e+00	-3.151152e+01
8.900000e-07	1.119243e-06	-9.085636e-11	8.013352e+00	-6.406940e+00
9.000000e-07	1.269837e-06	3.020273e-10	9.091548e+00	1.964537e+01
9.100000e-07	1.419945e-06	7.075888e-10	1.016626e+01	4.648881e+01
9.200000e-07	1.569552e-06	1.127000e-09	1.123739e+01	7.391853e+01
9.300000e-07	1.718564e-06	1.555737e-09	1.230426e+01	1.016908e+02
9.400000e-07	1.866937e-06	1.986073e-09	1.336655e+01	1.295360e+02
9.500000e-07	2.014668e-06	2.410684e-09	1.442425e+01	1.571742e+02
9.600000e-07	2.161629e-06	2.826821e-09	1.547643e+01	1.843312e+02
9.700000e-07	2.307775e-06	3.231628e-09	1.652279e+01	2.107553e+02
9.800000e-07	2.453118e-06	3.617203e-09	1.756338e+01	2.362307e+02
9.900000e-07	2.597584e-06	3.982265e-09	1.859771e+01	2.605885e+02
1.000000e-06	2.741022e-06	4.329041e-09	1.962467e+01	2.837134e+02
1.010000e-06	2.883351e-06	4.656824e-09	2.064369e+01	3.055453e+02
1.020000e-06	3.024573e-06	4.966285e-09	2.165478e+01	3.260774e+02
1.030000e-06	3.164552e-06	5.258369e-09	2.265698e+01	3.453489e+02
1.040000e-06	3.303212e-06	5.533814e-09	2.364973e+01	3.634355e+02
1.050000e-06	3.440604e-06	5.793030e-09	2.463340e+01	3.804379e+02
1.060000e-06	3.576666e-06	6.039187e-09	2.560755e+01	3.964694e+02
1.070000e-06	3.711352e-06	6.275141e-09	2.657186e+01	4.116445e+02
1.080000e-06	3.844741e-06	6.498764e-09	2.752687e+01	4.260688e+02
1.090000e-06	3.976807e-06	6.709793e-09	2.847241e+01	4.398325e+02
1.100000e-06	4.107407e-06	6.910204e-09	2.940746e+01	4.530055e+02
1.110000e-06	4.236584e-06	7.100931e-09	3.033231e+01	4.656372e+02
1.120000e-06	4.364243e-06	7.282081e-09	3.124631e+01	4.777579e+02
1.130000e-06	4.490361e-06	7.454225e-09	3.214926e+01	4.893825e+02
1.140000e-06	4.615059e-06	7.618537e-09	3.304205e+01	5.005157e+02
1.150000e-06	4.738176e-06	7.777507e-09	3.392352e+01	5.111580e+02
1.160000e-06	4.859583e-06	7.932115e-09	3.479275e+01	5.213099e+02
1.170000e-06	4.979185e-06	8.081981e-09	3.564905e+01	5.309767e+02
1.180000e-06	5.096983e-06	8.225236e-09	3.649244e+01	5.401707e+02
1.190000e-06	5.212885e-06	8.360684e-09	3.732225e+01	5.489118e+02
1.200000e-06	5.326754e-06	8.489289e-09	3.813752e+01	5.572271e+02
1.210000e-06	5.438564e-06	8.611245e-09	3.893803e+01	5.651484e+02
1.220000e-06	5.548412e-06	8.727696e-09	3.972450e+01	5.727098e+02
1.230000e-06	5.656387e-06	8.839486e-09	4.049756e+01	5.799447e+02
1.240000e-06	5.762374e-06	8.946389e-09	4.125639e+01	5.868826e+02
1.250000e-06	5.866195e-06	9.049470e-09	4.199971e+01	5.935480e+02
1.260000e-06	5.967835e-06	9.149208e-09	4.272741e+01	5.999587e+02
1.270000e-06	6.067300e-06	9.241841e-09	4.343954e+01	6.061262e+02
1.280000e-06	6.164390e-06	9.328540e-09	4.413467e+01	6.120568e+02
1.290000e-06	6.259164e-06	9.412322e-09	4.481321e+01	6.177534e+02
1.300000e-06	6.351757e-06	9.493072e-09	4.547614e+01	6.232172e+02
1.310000e-06	6.442118e-06	9.571352e-09	4.612309e+01	6.284502e+02
1.320000e-06	6.530115e-06	9.648007e-09	4.675312e+01	6.334561e+02
1.330000e-06	6.615794e-06	9.721948e-09	4.736654e+01	6.382420e+02
1.340000e-06	6.699189e-06	9.792712e-09	4.796363e+01	6.428177e+02
1.350000e-06	6.780155e-06	9.859294e-09	4.854331e+01	6.471952e+02
1.360000e-06	6.858612e-06	9.922880e-09	4.910503e+01	6.513878e+02
1.370000e-06	6.934530e-06	9.986266e-09	4.964857e+01	6.554077e+02
1.380000e-06	7.007769e-06	1.004813e-08	5.017294e+01	6.592648e+02
1.390000e-06	7.078448e-06	1.010660e-08	5.067897e+01	6.629653e+02
1.400000e-06	7.146752e-06	1.016108e-08	5.116800e+01	6.665104e+02
1.410000e-06	7.212479e-06	1.021174e-08	5.163858e+01	6.698968e+02
1.420000e-06	7.275585e-06	1.025874e-08	5.209040e+01	6.731170e+02
1.430000e-06	7.336269e-06	1.030264e-08	5.252488e+01	6.761608e+02
1.440000e-06	7.394407e-06	1.034461e-08	5.294112e+01	6.790169e+02
1.450000e-06	7.449892e-06	1.038447e-08	5.333837e+01	6.816755e+02
1.460000e-06	7.502582e-06	1.042133e-08	5.371561e+01	6.841295e+02
1.470000e-06	7.552106e-06	1.045646e-08	5.407018e+01	6.863766e+02
1.480000e-06	7.598684e-06	1.048864e-08	5.440366e+01	6.884196e+02
1.490000e-06	7.642724e-06	1.051655e-08	5.471898e+01	6.902671e+02
1.500000e-06	7.684081e-06	1.054248e-08	5.501507e+01	6.919319e+02
1.510000e-06	7.722628e-06	1.056759e-08	5.529105e+01	6.934306e+02
1.520000e-06	7.758533e-06	1.059097e-08	5.554812e+01	6.947807e+02
1.530000e-06	7.791666e-06	1.061108e-08	5.578534e+01	6.959993e+02
1.540000e-06	7.821935e-06	1.062769e-08	5.600205e+01	6.971011e+02
1.550000e-06	7.849455e-06	1.064289e-08	5.619909e+01	6.980964e+02
1.560000e-06	7.874092e-06	1.065702e-08	5.637548e+01	6.989907e+02
1.570000e-06	7.895889e-06	1.067063e-08	5.653153e+01	6.997843e+02
1.580000e-06	7.915018e-06	1.068374e-08	5.666849e+01	7.004729e+02
1.590000e-06	7.931232e-06	1.069480e-08	5.678458e+01	7.010487e+02
1.600000e-06	7.944366e-06	1.070139e-08	5.687861e+01	7.015023e+02
1.610000e-06	7.954416e-06	1.070245e-08	5.695057e+01	7.018241e+02
1.620000e-06	7.961439e-06	1.070208e-08	5.700085e+01	7.020061e+02
1.630000e-06	7.965699e-06	1.070304e-08	5.703135e+01	7.020435e+02
1.640000e-06	7.967117e-06	1.070575e-08	5.704150e+01	7.019353e+02
1.650000e-06	7.965739e-06	1.070850e-08	5.703164e+01	7.016846e+02
1.660000e-06	7.961842e-06	1.070243e-08	5.700373e+01	7.012986e+02
1.670000e-06	7.955283e-06	1.069862e-08	5.695677e+01	7.007870e+02
1.680000e-06	7.946012e-06	1.069255e-08	5.689040e+01	7.001616e+02
1.690000e-06	7.934042e-06	1.068155e-08	5.680469e+01	6.994343e+02
1.700000e-06	7.919301e-06	1.066952e-08	5.669915e+01	6.986160e+02
1.710000e-06	7.902004e-06	1.065389e-08	5.657532e+01	6.977156e+02
1.720000e-06	7.882424e-06	1.062959e-08	5.643514e+01	6.967389e+02
1.730000e-06	7.860328e-06	1.055356e-08	5.627694e+01	6.956885e+02
1.740000e-06	7.835030e-06	1.050641e-08	5.609581e+01	6.945637e+02
1.750000e-06	7.806107e-06	1.054570e-08	5.588873e+01	6.933611e+02
1.760000e-06	7.773894e-06	1.055458e-08	5.565810e+01	6.920748e+02
1.770000e-06	7.739152e-06	1.053886e-08	5.540936e+01	6.906977e+02
1.780000e-06	7.702084e-06	1.055519e-08	5.514397e+01	6.892220e+02
1.790000e-06	7.662729e-06	1.054787e-08	5.486220e+01	6.876394e+02
1.800000e-06	7.621372e-06	1.042458e-08	5.456610e+01	6.859422e+02
1.810000e-06	7.577611e-06	1.044438e-08	5.425279e+01	6.841231e+02
1.820000e-06	7.531178e-06	1.044225e-08	5.392035e+01	6.821752e+02
1.830000e-06	7.482051e-06	1.037640e-08	5.356862e+01	6.800924e+02
1.840000e-06	7.429891e-06	1.042626e-08	5.319517e+01	6.778688e+02
1.850000e-06	7.374829e-06	1.032248e-08	5.280095e+01	6.754995e+02
1.860000e-06	7.317070e-06	1.029992e-08	5.238742e+01	6.729801e+02
1.870000e-06	7.256675e-06	1.023166e-08	5.195501e+01	6.703071e+02
1.880000e-06	7.193598e-06	1.016024e-08	5.150340e+01	6.674786e+02
1.890000e-06	7.127732e-06	1.018788e-08	5.103183e+01	6.644941e+02
1.900000e-06	7.059153e-06	1.009679e-08	5.054082e+01	6.613552e+02
1.910000e-06	6.987771e-06	1.008212e-08	5.002976e+01	6.580654e+02
1.920000e-06	6.913653e-06	1.000523e-08	4.949910e+01	6.546302e+02
1.930000e-06	6.836812e-06	9.935525e-09	4.894895e+01	6.510563e+02
1.940000e-06	6.757235e-06	9.873483e-09	4.837921e+01	6.473508e+02
1.950000e-06	6.675208e-06	9.793271e-09	4.779193e+01	6.435208e+02
1.960000e-06	6.590710e-06	9.800036e-09	4.718695e+01	6.395717e+02
1.970000e-06	6.503710e-06	9.714340e-09	4.656407e+01	6.355066e+02
1.980000e-06	6.414377e-06	9.666678e-09	4.592448e+01	6.313256e+02
1.990000e-06	6.322820e-06	9.597172e-09	4.526897e+01	6.270254e+02
2.000000e-06	6.229055e-06	9.505309e-09	4.459765e+01	6.225994e+02
2.010000e-06	6.133009e-06	9.419500e-09	4.390999e+01	6.180381e+02
2.020000e-06	6.034762e-06	9.340651e-09	4.320658e+01	6.133306e+02
2.030000e-06	5.934413e-06	9.296380e-09	4.248812e+01	6.084655e+02
2.040000e-06	5.831947e-06	9.219480e-09	4.175450e+01	6.034323e+02
2.050000e-06	5.727391e-06	9.152833e-09	4.100592e+01	5.982228e+02
2.060000e-06	5.620886e-06	9.057406e-09	4.024339e+01	5.928323e+02
2.070000e-06	5.512476e-06	8.961512e-09	3.946721e+01	5.872593e+02
2.080000e-06	5.402104e-06	8.857096e-09	3.867699e+01	5.815061e+02
2.090000e-06	5.289731e-06	8.773567e-09	3.787244e+01	5.755775e+02
2.100000e-06	5.175317e-06	8.697366e-09	3.705329e+01	5.694798e+02
2.110000e-06	5.058915e-06	8.605513e-09	3.621989e+01	5.632191e+02
2.120000e-06	4.940618e-06	8.506490e-09	3.537293e+01	5.567996e+02
2.130000e-06	4.820440e-06	8.397989e-09	3.451250e+01	5.502224e+02
2.140000e-06	4.698403e-06	8.292448e-09	3.363876e+01	5.434839e+02
2.150000e-06	4.574645e-06	8.181779e-09	3.275270e+01	5.365761e+02
2.160000e-06	4.449224e-06	8.082418e-09	3.185474e+01	5.294868e+02
2.170000e-06	4.322203e-06	7.976971e-09	3.094531e+01	5.222004e+02
2.180000e-06	4.193626e-06	7.866001e-09	3.002475e+01	5.146998e+02
2.190000e-06	4.063530e-06	7.740940e-09	2.909331e+01	5.069684e+02
2.200000e-06	3.931891e-06	7.612649e-09	2.815083e+01	4.989917e+02
2.210000e-06	3.798789e-06	7.480937e-09	2.719787e+01	4.907594e+02
2.220000e-06	3.664330e-06	7.352377e-09	2.623520e+01	4.822659e+02
2.230000e-06	3.528509e-06	7.226855e-09	2.526277e+01	4.735105e+02
2.240000e-06	3.391286e-06	7.097550e-09	2.428030e+01	4.644970e+02
2.250000e-06	3.252693e-06	6.962649e-09	2.328804e+01	4.552312e+02
2.260000e-06	3.112916e-06	6.816753e-09	2.228728e+01	4.457197e+02
2.270000e-06	2.971935e-06	6.662322e-09	2.127791e+01	4.359665e+02
2.280000e-06	2.829762e-06	6.501609e-09	2.026001e+01	4.259711e+02
2.290000e-06	2.686519e-06	6.346080e-09	1.923445e+01	4.157265e+02
2.300000e-06	2.542331e-06	6.190850e-09	1.820211e+01	4.052186e+02
2.310000e-06	2.397302e-06	6.032662e-09	1.716376e+01	3.944259e+02
2.320000e-06	2.251428e-06	5.864937e-09	1.611936e+01	3.833215e+02
2.330000e-06	2.104754e-06	5.689073e-09	1.506923e+01	3.718750e+02
2.340000e-06	1.957376e-06	5.506032e-09	1.401406e+01	3.600558e+02
2.350000e-06	1.809314e-06	5.316085e-09	1.295399e+01	3.478361e+02
2.360000e-06	1.660635e-06	5.123014e-09	1.188951e+01	3.351941e+02
2.370000e-06	1.511446e-06	4.925235e-09	1.082138e+01	3.221155e+02
2.380000e-06	1.361817e-06	4.723111e-09	9.750087e+00	3.085941e+02
2.390000e-06	1.211777e-06	4.512636e-09	8.675857e+00	2.946307e+02
2.400000e-06	1.061295e-06	4.290661e-09	7.598463e+00	2.802300e+02
2.410000e-06	9.104928e-07	4.061254e-09	6.518779e+00	2.653964e+02
2.420000e-06	7.594165e-07	3.827019e-09	5.437131e+00	2.501287e+02
2.430000e-06	6.080205e-07	3.588614e-09	4.353193e+00	2.344147e+02
2.440000e-06	4.564024e-07	3.344194e-09	3.267666e+00	2.182265e+02
2.450000e-06	3.046165e-07	3.090327e-09	2.180937e+00	2.015172e+02
2.460000e-06	1.527062e-07	2.824300e-09	1.093318e+00	1.842201e+02
2.470000e-06	7.141820e-10	2.543554e-09	5.113269e-03	1.662510e+02
2.480000e-06	-1.512885e-07	2.252421e-09	-1.083168e+00	1.475127e+02
2.490000e-06	-3.032249e-07	1.948875e-09	-2.170974e+00	1.279038e+02
2.500000e-06	-4.550647e-07	1.633106e-09	-3.258089e+00	1.073281e+02
2.510000e-06	-6.067630e-07	1.304929e-09	-4.344190e+00	8.570688e+01
2.520000e-06	-7.582864e-07	9.612711e-10	-5.429040e+00	6.299054e+01
2.530000e-06	-9.096127e-07	6.024954e-10	-6.512478e+00	3.916943e+01
2.540000e-06	-1.060613e-06	2.289731e-10	-7.593580e+00	1.428213e+01
2.550000e-06	-1.211231e-06	-1.582009e-10	-8.671951e+00	-1.157962e+01
2.560000e-06	-1.361389e-06	-5.619701e-10	-9.747026e+00	-3.827035e+01
2.570000e-06	-1.510984e-06	-9.821398e-10	-1.081806e+01	-6.559492e+01
2.580000e-06	-1.660089e-06	-1.413660e-09	-1.188560e+01	-9.331693e+01
2.590000e-06	-1.808680e-06	-1.848388e-09	-1.294946e+01	-1.211711e+02
2.600000e-06	-1.956607e-06	-2.279587e-09	-1.400856e+01	-1.488782e+02
2.610000e-06	-2.103738e-06	-2.702486e-09	-1.506196e+01	-1.761617e+02
2.620000e-06	-2.250024e-06	-3.110713e-09	-1.610931e+01	-2.027635e+02
2.630000e-06	-2.395495e-06	-3.500135e-09	-1.715083e+01	-2.284592e+02
2.640000e-06	-2.540144e-06	-3.871004e-09	-1.818645e+01	-2.530692e+02
2.650000e-06	-2.683744e-06	-4.222987e-09	-1.921458e+01	-2.764663e+02
2.660000e-06	-2.826192e-06	-4.556183e-09	-2.023445e+01	-2.985788e+02
2.670000e-06	-2.967540e-06	-4.871784e-09	-2.124645e+01	-3.193886e+02
2.680000e-06	-3.107692e-06	-5.172527e-09	-2.224988e+01	-3.389260e+02
2.690000e-06	-3.246597e-06	-5.456098e-09	-2.324439e+01	-3.572598e+02
2.700000e-06	-3.384269e-06	-5.720210e-09	-2.423006e+01	-3.744864e+02
2.710000e-06	-3.520656e-06	-5.969242e-09	-2.520655e+01	-3.907173e+02
2.720000e-06	-3.655674e-06	-6.208182e-09	-2.617322e+01	-4.060677e+02
2.730000e-06	-3.789411e-06	-6.437354e-09	-2.713073e+01	-4.206458e+02
2.740000e-06	-3.921862e-06	-6.654325e-09	-2.807903e+01	-4.345455e+02
2.750000e-06	-4.052849e-06	-6.860086e-09	-2.901685e+01	-4.478413e+02
2.760000e-06	-4.182459e-06	-7.056052e-09	-2.994480e+01	-4.605870e+02
2.770000e-06	-4.310688e-06	-7.242782e-09	-3.086287e+01	-4.728166e+02
2.780000e-06	-4.437349e-06	-7.419334e-09	-3.176972e+01	-4.845479e+02
2.790000e-06	-4.562492e-06	-7.585717e-09	-3.266570e+01	-4.957875e+02
2.800000e-06	-4.686040e-06	-7.745467e-09	-3.355025e+01	-5.065361e+02
2.810000e-06	-4.807964e-06	-7.901284e-09	-3.442317e+01	-5.167939e+02
2.820000e-06	-4.928208e-06	-8.050930e-09	-3.528408e+01	-5.265650e+02
2.830000e-06	-5.046504e-06	-8.192656e-09	-3.613103e+01	-5.358600e+02
2.840000e-06	-5.162710e-06	-8.328513e-09	-3.696302e+01	-5.446972e+02
2.850000e-06	-5.276798e-06	-8.460642e-09	-3.777985e+01	-5.531023e+02
2.860000e-06	-5.388758e-06	-8.584256e-09	-3.858144e+01	-5.611063e+02
2.870000e-06	-5.498643e-06	-8.698630e-09	-3.936817e+01	-5.687431e+02
2.880000e-06	-5.606665e-06	-8.809099e-09	-4.014157e+01	-5.760463e+02
2.890000e-06	-5.712829e-06	-8.917174e-09	-4.090167e+01	-5.830468e+02
2.900000e-06	-5.816976e-06	-9.021454e-09	-4.164731e+01	-5.897700e+02
2.910000e-06	-5.918929e-06	-9.118432e-09	-4.237726e+01	-5.962351e+02
2.920000e-06	-6.018611e-06	-9.210927e-09	-4.309095e+01	-6.024552e+02
2.930000e-06	-6.116154e-06	-9.301014e-09	-4.378932e+01	-6.084373e+02
2.940000e-06	-6.211531e-06	-9.388764e-09	-4.447218e+01	-6.141850e+02
