# Temperatura_=_59.78
# Concentracion g/m^3_=_10000.0
# C_Vs_to_Am_M_A/Vsm_=_65563218390.804596
# pendiente_HvsI_1/m_=_3716.3
# ordenada_HvsI_A/m_=_1297.0
# frecuencia_Hz_=_302620.4782869609

Tiempo_(s)	Campo_(V.s)	Magnetizacion_(V.s)	Campo_(kA/m)	Magnetizacion_(A/m)
0.000000e+00	-7.912771e-06	-9.691758e-09	-5.683575e+01	-6.352607e+02
1.000000e-08	-7.910617e-06	-9.690686e-09	-5.682028e+01	-6.349794e+02
2.000000e-08	-7.905777e-06	-9.688050e-09	-5.678551e+01	-6.345733e+02
3.000000e-08	-7.898440e-06	-9.680907e-09	-5.673281e+01	-6.340547e+02
4.000000e-08	-7.888368e-06	-9.672597e-09	-5.666047e+01	-6.334380e+02
5.000000e-08	-7.875390e-06	-9.660440e-09	-5.656725e+01	-6.327383e+02
6.000000e-08	-7.859479e-06	-9.646785e-09	-5.645296e+01	-6.319696e+02
7.000000e-08	-7.840956e-06	-9.636713e-09	-5.631992e+01	-6.311434e+02
8.000000e-08	-7.820193e-06	-9.634592e-09	-5.617078e+01	-6.302673e+02
9.000000e-08	-7.796816e-06	-9.647252e-09	-5.600287e+01	-6.293446e+02
1.000000e-07	-7.770297e-06	-9.655540e-09	-5.581239e+01	-6.283741e+02
1.100000e-07	-7.740634e-06	-9.610524e-09	-5.559933e+01	-6.273505e+02
1.200000e-07	-7.708189e-06	-9.559759e-09	-5.536628e+01	-6.262650e+02
1.300000e-07	-7.673029e-06	-9.527448e-09	-5.511374e+01	-6.251066e+02
1.400000e-07	-7.635353e-06	-9.484557e-09	-5.484312e+01	-6.238628e+02
1.500000e-07	-7.595555e-06	-9.454187e-09	-5.455726e+01	-6.225213e+02
1.600000e-07	-7.553530e-06	-9.479382e-09	-5.425540e+01	-6.210703e+02
1.700000e-07	-7.508911e-06	-9.472954e-09	-5.393491e+01	-6.194996e+02
1.800000e-07	-7.461619e-06	-9.410842e-09	-5.359522e+01	-6.178007e+02
1.900000e-07	-7.411508e-06	-9.399762e-09	-5.323528e+01	-6.159673e+02
2.000000e-07	-7.358389e-06	-9.346716e-09	-5.285374e+01	-6.139948e+02
2.100000e-07	-7.302449e-06	-9.279374e-09	-5.245194e+01	-6.118806e+02
2.200000e-07	-7.243791e-06	-9.262368e-09	-5.203061e+01	-6.096237e+02
2.300000e-07	-7.182522e-06	-9.228528e-09	-5.159053e+01	-6.072246e+02
2.400000e-07	-7.118632e-06	-9.195306e-09	-5.113162e+01	-6.046850e+02
2.500000e-07	-7.051974e-06	-9.160815e-09	-5.065283e+01	-6.020078e+02
2.600000e-07	-6.982679e-06	-9.127723e-09	-5.015510e+01	-5.991969e+02
2.700000e-07	-6.910718e-06	-9.085457e-09	-4.963822e+01	-5.962571e+02
2.800000e-07	-6.835959e-06	-9.024634e-09	-4.910124e+01	-5.931937e+02
2.900000e-07	-6.758429e-06	-8.981022e-09	-4.854436e+01	-5.900123e+02
3.000000e-07	-6.678177e-06	-8.940746e-09	-4.796792e+01	-5.867181e+02
3.100000e-07	-6.595445e-06	-8.893224e-09	-4.737367e+01	-5.833156e+02
3.200000e-07	-6.510517e-06	-8.831272e-09	-4.676366e+01	-5.798077e+02
3.300000e-07	-6.423365e-06	-8.772941e-09	-4.613767e+01	-5.761954e+02
3.400000e-07	-6.333914e-06	-8.719696e-09	-4.549516e+01	-5.724772e+02
3.500000e-07	-6.242162e-06	-8.650470e-09	-4.483612e+01	-5.686493e+02
3.600000e-07	-6.148144e-06	-8.594794e-09	-4.416081e+01	-5.647055e+02
3.700000e-07	-6.051844e-06	-8.543838e-09	-4.346911e+01	-5.606379e+02
3.800000e-07	-5.953289e-06	-8.480482e-09	-4.276121e+01	-5.564375e+02
3.900000e-07	-5.852589e-06	-8.407836e-09	-4.203790e+01	-5.520953e+02
4.000000e-07	-5.749802e-06	-8.339167e-09	-4.129960e+01	-5.476030e+02
4.100000e-07	-5.645021e-06	-8.270997e-09	-4.054698e+01	-5.429542e+02
4.200000e-07	-5.538267e-06	-8.190120e-09	-3.978020e+01	-5.381450e+02
4.300000e-07	-5.429513e-06	-8.116321e-09	-3.899904e+01	-5.331737e+02
4.400000e-07	-5.318841e-06	-8.046625e-09	-3.820410e+01	-5.280414e+02
4.500000e-07	-5.206226e-06	-7.970325e-09	-3.739522e+01	-5.227507e+02
4.600000e-07	-5.091538e-06	-7.881113e-09	-3.657143e+01	-5.173052e+02
4.700000e-07	-4.974870e-06	-7.792003e-09	-3.573343e+01	-5.117076e+02
4.800000e-07	-4.856352e-06	-7.708048e-09	-3.488215e+01	-5.059594e+02
4.900000e-07	-4.736043e-06	-7.619872e-09	-3.401799e+01	-5.000589e+02
5.000000e-07	-4.614068e-06	-7.526275e-09	-3.314187e+01	-4.940014e+02
5.100000e-07	-4.490393e-06	-7.427737e-09	-3.225354e+01	-4.877783e+02
5.200000e-07	-4.365066e-06	-7.327482e-09	-3.135334e+01	-4.813782e+02
5.300000e-07	-4.238147e-06	-7.224365e-09	-3.044171e+01	-4.747874e+02
5.400000e-07	-4.109665e-06	-7.118743e-09	-2.951885e+01	-4.679915e+02
5.500000e-07	-3.979719e-06	-7.011180e-09	-2.858548e+01	-4.609771e+02
5.600000e-07	-3.848289e-06	-6.903862e-09	-2.764144e+01	-4.537331e+02
5.700000e-07	-3.715378e-06	-6.792940e-09	-2.668677e+01	-4.462519e+02
5.800000e-07	-3.581005e-06	-6.673672e-09	-2.572160e+01	-4.385304e+02
5.900000e-07	-3.445241e-06	-6.548548e-09	-2.474644e+01	-4.305693e+02
6.000000e-07	-3.308203e-06	-6.423799e-09	-2.376212e+01	-4.223728e+02
6.100000e-07	-3.169895e-06	-6.295589e-09	-2.276868e+01	-4.139466e+02
6.200000e-07	-3.030237e-06	-6.160366e-09	-2.176555e+01	-4.052959e+02
6.300000e-07	-2.889205e-06	-6.025515e-09	-2.075254e+01	-3.964235e+02
6.400000e-07	-2.746963e-06	-5.890277e-09	-1.973085e+01	-3.873272e+02
6.500000e-07	-2.603704e-06	-5.749505e-09	-1.870185e+01	-3.779989e+02
6.600000e-07	-2.459515e-06	-5.602852e-09	-1.766617e+01	-3.684233e+02
6.700000e-07	-2.314498e-06	-5.451019e-09	-1.662455e+01	-3.585788e+02
6.800000e-07	-2.168679e-06	-5.293071e-09	-1.557716e+01	-3.484383e+02
6.900000e-07	-2.022026e-06	-5.128239e-09	-1.452378e+01	-3.379719e+02
7.000000e-07	-1.874687e-06	-4.961343e-09	-1.346547e+01	-3.271497e+02
7.100000e-07	-1.726794e-06	-4.792128e-09	-1.240319e+01	-3.159444e+02
7.200000e-07	-1.578425e-06	-4.613620e-09	-1.133749e+01	-3.043345e+02
7.300000e-07	-1.429651e-06	-4.428031e-09	-1.026888e+01	-2.923058e+02
7.400000e-07	-1.280417e-06	-4.241539e-09	-9.196961e+00	-2.798516e+02
7.500000e-07	-1.130695e-06	-4.050882e-09	-8.121544e+00	-2.669724e+02
7.600000e-07	-9.804752e-07	-3.854943e-09	-7.042544e+00	-2.536727e+02
7.700000e-07	-8.298639e-07	-3.652332e-09	-5.960736e+00	-2.399576e+02
7.800000e-07	-6.790171e-07	-3.438191e-09	-4.877236e+00	-2.258280e+02
7.900000e-07	-5.279594e-07	-3.214462e-09	-3.792220e+00	-2.112755e+02
8.000000e-07	-3.766853e-07	-2.983270e-09	-2.705650e+00	-1.962786e+02
8.100000e-07	-2.252827e-07	-2.743884e-09	-1.618157e+00	-1.807993e+02
8.200000e-07	-7.380882e-08	-2.495962e-09	-5.301531e-01	-1.647823e+02
8.300000e-07	7.771944e-08	-2.239717e-09	5.582422e-01	-1.481568e+02
8.400000e-07	2.292729e-07	-1.975833e-09	1.646818e+00	-1.308408e+02
8.500000e-07	3.807910e-07	-1.701923e-09	2.735141e+00	-1.127481e+02
8.600000e-07	5.322172e-07	-1.416011e-09	3.822803e+00	-9.379699e+01
8.700000e-07	6.834904e-07	-1.118767e-09	4.909366e+00	-7.392111e+01
8.800000e-07	8.345522e-07	-8.071389e-10	5.994411e+00	-5.307957e+01
8.900000e-07	9.853586e-07	-4.778541e-10	7.077621e+00	-3.126658e+01
9.000000e-07	1.135827e-06	-1.328070e-10	8.158404e+00	-8.518932e+00
9.100000e-07	1.285915e-06	2.238567e-10	9.236457e+00	1.507972e+01
9.200000e-07	1.435510e-06	5.927877e-10	1.031097e+01	3.939829e+01
9.300000e-07	1.584527e-06	9.747193e-10	1.138132e+01	6.426190e+01
9.400000e-07	1.732965e-06	1.364203e-09	1.244752e+01	8.945941e+01
9.500000e-07	1.880808e-06	1.753544e-09	1.350944e+01	1.147544e+02
9.600000e-07	2.028057e-06	2.140186e-09	1.456710e+01	1.398987e+02
9.700000e-07	2.174534e-06	2.521612e-09	1.561921e+01	1.646470e+02
9.800000e-07	2.320099e-06	2.889927e-09	1.666478e+01	1.887713e+02
9.900000e-07	2.464795e-06	3.240915e-09	1.770409e+01	2.120739e+02
1.000000e-06	2.608597e-06	3.576927e-09	1.873699e+01	2.343978e+02
1.010000e-06	2.751406e-06	3.896618e-09	1.976277e+01	2.556329e+02
1.020000e-06	2.893187e-06	4.199291e-09	2.078114e+01	2.757188e+02
1.030000e-06	3.033842e-06	4.483846e-09	2.179144e+01	2.946429e+02
1.040000e-06	3.173178e-06	4.753370e-09	2.279226e+01	3.124349e+02
1.050000e-06	3.311146e-06	5.009024e-09	2.378326e+01	3.291582e+02
1.060000e-06	3.447891e-06	5.248489e-09	2.476547e+01	3.448994e+02
1.070000e-06	3.583456e-06	5.475178e-09	2.573920e+01	3.597577e+02
1.080000e-06	3.717683e-06	5.692429e-09	2.670333e+01	3.738334e+02
1.090000e-06	3.850499e-06	5.898775e-09	2.765732e+01	3.872193e+02
1.100000e-06	3.981863e-06	6.093820e-09	2.860087e+01	3.999941e+02
1.110000e-06	4.111744e-06	6.281124e-09	2.953378e+01	4.122180e+02
1.120000e-06	4.240252e-06	6.459548e-09	3.045683e+01	4.239323e+02
1.130000e-06	4.367371e-06	6.627318e-09	3.136990e+01	4.351606e+02
1.140000e-06	4.493011e-06	6.787062e-09	3.227234e+01	4.459125e+02
1.150000e-06	4.617117e-06	6.940932e-09	3.316377e+01	4.561891e+02
1.160000e-06	4.739579e-06	7.088622e-09	3.404339e+01	4.659879e+02
1.170000e-06	4.860390e-06	7.229016e-09	3.491114e+01	4.753080e+02
1.180000e-06	4.979425e-06	7.362817e-09	3.576615e+01	4.841545e+02
1.190000e-06	5.096550e-06	7.492347e-09	3.660744e+01	4.925402e+02
1.200000e-06	5.211696e-06	7.615877e-09	3.743450e+01	5.004872e+02
1.210000e-06	5.324837e-06	7.731744e-09	3.824717e+01	5.080252e+02
1.220000e-06	5.436037e-06	7.840365e-09	3.904590e+01	5.151900e+02
1.230000e-06	5.545358e-06	7.945746e-09	3.983113e+01	5.220197e+02
1.240000e-06	5.652698e-06	8.047272e-09	4.060213e+01	5.285519e+02
1.250000e-06	5.757903e-06	8.144133e-09	4.135779e+01	5.348200e+02
1.260000e-06	5.860982e-06	8.237196e-09	4.209819e+01	5.408511e+02
1.270000e-06	5.961985e-06	8.325543e-09	4.282367e+01	5.466646e+02
1.280000e-06	6.060759e-06	8.409292e-09	4.353314e+01	5.522719e+02
1.290000e-06	6.157195e-06	8.489386e-09	4.422582e+01	5.576774e+02
1.300000e-06	6.251411e-06	8.567501e-09	4.490256e+01	5.628802e+02
1.310000e-06	6.343416e-06	8.642186e-09	4.556341e+01	5.678764e+02
1.320000e-06	6.433127e-06	8.713431e-09	4.620778e+01	5.726619e+02
1.330000e-06	6.520490e-06	8.782370e-09	4.683529e+01	5.772338e+02
1.340000e-06	6.605610e-06	8.849052e-09	4.744669e+01	5.815926e+02
1.350000e-06	6.688434e-06	8.914935e-09	4.804160e+01	5.857425e+02
1.360000e-06	6.768813e-06	8.975149e-09	4.861895e+01	5.896915e+02
1.370000e-06	6.846687e-06	9.030179e-09	4.917829e+01	5.934501e+02
1.380000e-06	6.921931e-06	9.083709e-09	4.971876e+01	5.970300e+02
1.390000e-06	6.994581e-06	9.136334e-09	5.024058e+01	6.004423e+02
1.400000e-06	7.064780e-06	9.189944e-09	5.074481e+01	6.036960e+02
1.410000e-06	7.132514e-06	9.240080e-09	5.123133e+01	6.067965e+02
1.420000e-06	7.197665e-06	9.285154e-09	5.169929e+01	6.097451e+02
1.430000e-06	7.260264e-06	9.324853e-09	5.214893e+01	6.125392e+02
1.440000e-06	7.320392e-06	9.360599e-09	5.258082e+01	6.151732e+02
1.450000e-06	7.378028e-06	9.397070e-09	5.299480e+01	6.176395e+02
1.460000e-06	7.433017e-06	9.432896e-09	5.338978e+01	6.199309e+02
1.470000e-06	7.485060e-06	9.464275e-09	5.376359e+01	6.220421e+02
1.480000e-06	7.534008e-06	9.492138e-09	5.411518e+01	6.239712e+02
1.490000e-06	7.580130e-06	9.518670e-09	5.444646e+01	6.257207e+02
1.500000e-06	7.623677e-06	9.544434e-09	5.475925e+01	6.272984e+02
1.510000e-06	7.664460e-06	9.567989e-09	5.505219e+01	6.287161e+02
1.520000e-06	7.702481e-06	9.589530e-09	5.532528e+01	6.299892e+02
1.530000e-06	7.737843e-06	9.609582e-09	5.557928e+01	6.311345e+02
1.540000e-06	7.770423e-06	9.627872e-09	5.581329e+01	6.321687e+02
1.550000e-06	7.800304e-06	9.644567e-09	5.602792e+01	6.331061e+02
1.560000e-06	7.827434e-06	9.657675e-09	5.622280e+01	6.339571e+02
1.570000e-06	7.851619e-06	9.667807e-09	5.639651e+01	6.347272e+02
1.580000e-06	7.872978e-06	9.678177e-09	5.654993e+01	6.354162e+02
1.590000e-06	7.891633e-06	9.688075e-09	5.668392e+01	6.360193e+02
1.600000e-06	7.907412e-06	9.697512e-09	5.679726e+01	6.365275e+02
1.610000e-06	7.920154e-06	9.704340e-09	5.688878e+01	6.369297e+02
1.620000e-06	7.929787e-06	9.707668e-09	5.695797e+01	6.372143e+02
1.630000e-06	7.936458e-06	9.709639e-09	5.700589e+01	6.373711e+02
1.640000e-06	7.940363e-06	9.710710e-09	5.703394e+01	6.373934e+02
1.650000e-06	7.941416e-06	9.712744e-09	5.704150e+01	6.372786e+02
1.660000e-06	7.939728e-06	9.711943e-09	5.702938e+01	6.370294e+02
1.670000e-06	7.935466e-06	9.703961e-09	5.699876e+01	6.366529e+02
1.680000e-06	7.928534e-06	9.697379e-09	5.694897e+01	6.361606e+02
1.690000e-06	7.918934e-06	9.691525e-09	5.688002e+01	6.355665e+02
1.700000e-06	7.906546e-06	9.683348e-09	5.679104e+01	6.348856e+02
1.710000e-06	7.891362e-06	9.672722e-09	5.668197e+01	6.341324e+02
1.720000e-06	7.873755e-06	9.659183e-09	5.655551e+01	6.333191e+02
1.730000e-06	7.853918e-06	9.630458e-09	5.641302e+01	6.324544e+02
1.740000e-06	7.831471e-06	9.570189e-09	5.625179e+01	6.315428e+02
1.750000e-06	7.805767e-06	9.541216e-09	5.606716e+01	6.305841e+02
1.760000e-06	7.776490e-06	9.563629e-09	5.585687e+01	6.295739e+02
1.770000e-06	7.743994e-06	9.566819e-09	5.562346e+01	6.285043e+02
1.780000e-06	7.708991e-06	9.568592e-09	5.537204e+01	6.273646e+02
1.790000e-06	7.671689e-06	9.573318e-09	5.510411e+01	6.261428e+02
1.800000e-06	7.632186e-06	9.540149e-09	5.482037e+01	6.248263e+02
1.810000e-06	7.590623e-06	9.492637e-09	5.452183e+01	6.234032e+02
1.820000e-06	7.546638e-06	9.486757e-09	5.420589e+01	6.218627e+02
1.830000e-06	7.500057e-06	9.474826e-09	5.387131e+01	6.201960e+02
1.840000e-06	7.450725e-06	9.468966e-09	5.351697e+01	6.183962e+02
1.850000e-06	7.398342e-06	9.460386e-09	5.314071e+01	6.164582e+02
1.860000e-06	7.343089e-06	9.390876e-09	5.274385e+01	6.143790e+02
1.870000e-06	7.285170e-06	9.370081e-09	5.232783e+01	6.121573e+02
1.880000e-06	7.224624e-06	9.313829e-09	5.189294e+01	6.097931e+02
1.890000e-06	7.161350e-06	9.267963e-09	5.143846e+01	6.072878e+02
1.900000e-06	7.095275e-06	9.248073e-09	5.096385e+01	6.046441e+02
1.910000e-06	7.026462e-06	9.183617e-09	5.046958e+01	6.018656e+02
1.920000e-06	6.954897e-06	9.173159e-09	4.995554e+01	5.989570e+02
1.930000e-06	6.880692e-06	9.107521e-09	4.942255e+01	5.959234e+02
1.940000e-06	6.803765e-06	9.057403e-09	4.887000e+01	5.927705e+02
1.950000e-06	6.724106e-06	9.009275e-09	4.829783e+01	5.895035e+02
1.960000e-06	6.642012e-06	8.944123e-09	4.770816e+01	5.861272e+02
1.970000e-06	6.557539e-06	8.909296e-09	4.710141e+01	5.826449e+02
1.980000e-06	6.470638e-06	8.835410e-09	4.647722e+01	5.790582e+02
1.990000e-06	6.381344e-06	8.807984e-09	4.583584e+01	5.753661e+02
2.000000e-06	6.289843e-06	8.744946e-09	4.517860e+01	5.715656e+02
2.010000e-06	6.196133e-06	8.670025e-09	4.450550e+01	5.676509e+02
2.020000e-06	6.100106e-06	8.603847e-09	4.381576e+01	5.636146e+02
2.030000e-06	6.001871e-06	8.536688e-09	4.311016e+01	5.594477e+02
2.040000e-06	5.901499e-06	8.479246e-09	4.238921e+01	5.551412e+02
2.050000e-06	5.799031e-06	8.407734e-09	4.165320e+01	5.506865e+02
2.060000e-06	5.694513e-06	8.354693e-09	4.090247e+01	5.460768e+02
2.070000e-06	5.588071e-06	8.271525e-09	4.013792e+01	5.413074e+02
2.080000e-06	5.479718e-06	8.184814e-09	3.935965e+01	5.363760e+02
2.090000e-06	5.369399e-06	8.098359e-09	3.856725e+01	5.312832e+02
2.100000e-06	5.257119e-06	8.031246e-09	3.776077e+01	5.260313e+02
2.110000e-06	5.142878e-06	7.957375e-09	3.694020e+01	5.206236e+02
2.120000e-06	5.026656e-06	7.871912e-09	3.610540e+01	5.150633e+02
2.130000e-06	4.908492e-06	7.784333e-09	3.525666e+01	5.093522e+02
2.140000e-06	4.788447e-06	7.692202e-09	3.439440e+01	5.034895e+02
2.150000e-06	4.666635e-06	7.601955e-09	3.351945e+01	4.974714e+02
2.160000e-06	4.543109e-06	7.505636e-09	3.263218e+01	4.912901e+02
2.170000e-06	4.417911e-06	7.413356e-09	3.173291e+01	4.849350e+02
2.180000e-06	4.291140e-06	7.311251e-09	3.082235e+01	4.783926e+02
2.190000e-06	4.162723e-06	7.207175e-09	2.989995e+01	4.716488e+02
2.200000e-06	4.032781e-06	7.096577e-09	2.896661e+01	4.646896e+02
2.210000e-06	3.901304e-06	6.987845e-09	2.802224e+01	4.575032e+02
2.220000e-06	3.768401e-06	6.876467e-09	2.706762e+01	4.500813e+02
2.230000e-06	3.634168e-06	6.763930e-09	2.610345e+01	4.424194e+02
2.240000e-06	3.498547e-06	6.645186e-09	2.512932e+01	4.345174e+02
2.250000e-06	3.361600e-06	6.524691e-09	2.414566e+01	4.263787e+02
2.260000e-06	3.223327e-06	6.401090e-09	2.315247e+01	4.180088e+02
2.270000e-06	3.083798e-06	6.269156e-09	2.215027e+01	4.094133e+02
2.280000e-06	2.943123e-06	6.130786e-09	2.113983e+01	4.005957e+02
2.290000e-06	2.801363e-06	5.988930e-09	2.012159e+01	3.915553e+02
2.300000e-06	2.658492e-06	5.848683e-09	1.909538e+01	3.822856e+02
2.310000e-06	2.514657e-06	5.705196e-09	1.806225e+01	3.727731e+02
2.320000e-06	2.369986e-06	5.560511e-09	1.702311e+01	3.629976e+02
2.330000e-06	2.224472e-06	5.408663e-09	1.597791e+01	3.529333e+02
2.340000e-06	2.078194e-06	5.248334e-09	1.492722e+01	3.425507e+02
2.350000e-06	1.931172e-06	5.080411e-09	1.387120e+01	3.318195e+02
2.360000e-06	1.783421e-06	4.911103e-09	1.280994e+01	3.207118e+02
2.370000e-06	1.635151e-06	4.738997e-09	1.174494e+01	3.092041e+02
2.380000e-06	1.486494e-06	4.557136e-09	1.067717e+01	2.972805e+02
2.390000e-06	1.337391e-06	4.367951e-09	9.606192e+00	2.849323e+02
2.400000e-06	1.187819e-06	4.172689e-09	8.531848e+00	2.721584e+02
2.410000e-06	1.037829e-06	3.969906e-09	7.454505e+00	2.589628e+02
2.420000e-06	8.874857e-07	3.760270e-09	6.374621e+00	2.453507e+02
2.430000e-06	7.368744e-07	3.546854e-09	5.292812e+00	2.313245e+02
2.440000e-06	5.860300e-07	3.329577e-09	4.209329e+00	2.168786e+02
2.450000e-06	4.349608e-07	3.103794e-09	3.124231e+00	2.019952e+02
2.460000e-06	2.836898e-07	2.867506e-09	2.037683e+00	1.866404e+02
2.470000e-06	1.322378e-07	2.622560e-09	9.498358e-01	1.707634e+02
2.480000e-06	-1.928516e-08	2.366581e-09	-1.385212e-01	1.542968e+02
2.490000e-06	-1.708066e-07	2.098234e-09	-1.226868e+00	1.371610e+02
2.500000e-06	-3.222600e-07	1.820920e-09	-2.314725e+00	1.192698e+02
2.510000e-06	-4.736004e-07	1.533643e-09	-3.401771e+00	1.005398e+02
2.520000e-06	-6.248322e-07	1.234668e-09	-4.488037e+00	8.089955e+01
2.530000e-06	-7.759031e-07	9.248814e-10	-5.573147e+00	6.030093e+01
2.540000e-06	-9.266703e-07	6.008174e-10	-6.656076e+00	3.872857e+01
2.550000e-06	-1.077046e-06	2.590879e-10	-7.736195e+00	1.620806e+01
2.560000e-06	-1.227045e-06	-9.709894e-11	-8.813604e+00	-7.188863e+00
2.570000e-06	-1.376595e-06	-4.651065e-10	-9.887791e+00	-3.134280e+01
2.580000e-06	-1.525676e-06	-8.435514e-10	-1.095860e+01	-5.608924e+01
2.590000e-06	-1.674292e-06	-1.230567e-09	-1.202608e+01	-8.122522e+01
2.600000e-06	-1.822354e-06	-1.620895e-09	-1.308958e+01	-1.065195e+02
2.610000e-06	-1.969713e-06	-2.010986e-09	-1.414803e+01	-1.317254e+02
2.620000e-06	-2.116282e-06	-2.397300e-09	-1.520081e+01	-1.565955e+02
2.630000e-06	-2.261997e-06	-2.772871e-09	-1.624745e+01	-1.808963e+02
2.640000e-06	-2.406826e-06	-3.130427e-09	-1.728772e+01	-2.044213e+02
2.650000e-06	-2.550701e-06	-3.469083e-09	-1.832114e+01	-2.270026e+02
2.660000e-06	-2.693520e-06	-3.792080e-09	-1.934698e+01	-2.485181e+02
2.670000e-06	-2.835236e-06	-4.099501e-09	-2.036490e+01	-2.688949e+02
2.680000e-06	-2.975883e-06	-4.390799e-09	-2.137513e+01	-2.881087e+02
2.690000e-06	-3.115451e-06	-4.665968e-09	-2.237762e+01	-3.061795e+02
2.700000e-06	-3.253793e-06	-4.926280e-09	-2.337130e+01	-3.231630e+02
2.710000e-06	-3.390838e-06	-5.172366e-09	-2.435567e+01	-3.391414e+02
2.720000e-06	-3.526619e-06	-5.406090e-09	-2.533095e+01	-3.542114e+02
2.730000e-06	-3.661085e-06	-5.630111e-09	-2.629679e+01	-3.684741e+02
2.740000e-06	-3.794235e-06	-5.843087e-09	-2.725318e+01	-3.820251e+02
2.750000e-06	-3.926087e-06	-6.044371e-09	-2.820025e+01	-3.949468e+02
2.760000e-06	-4.056557e-06	-6.234966e-09	-2.913739e+01	-4.073044e+02
2.770000e-06	-4.185651e-06	-6.415613e-09	-3.006464e+01	-4.191438e+02
2.780000e-06	-4.313254e-06	-6.587106e-09	-3.098119e+01	-4.304927e+02
2.790000e-06	-4.439308e-06	-6.748754e-09	-3.188660e+01	-4.413640e+02
2.800000e-06	-4.563927e-06	-6.902396e-09	-3.278171e+01	-4.517601e+02
2.810000e-06	-4.686946e-06	-7.051191e-09	-3.366533e+01	-4.616791e+02
2.820000e-06	-4.808188e-06	-7.195240e-09	-3.453619e+01	-4.711193e+02
2.830000e-06	-4.927617e-06	-7.332615e-09	-3.539403e+01	-4.800839e+02
2.840000e-06	-5.045155e-06	-7.463706e-09	-3.623828e+01	-4.885836e+02
2.850000e-06	-5.160694e-06	-7.589986e-09	-3.706817e+01	-4.966383e+02
2.860000e-06	-5.274051e-06	-7.710888e-09	-3.788239e+01	-5.042760e+02
2.870000e-06	-5.385294e-06	-7.823098e-09	-3.868142e+01	-5.115311e+02
2.880000e-06	-5.494637e-06	-7.928314e-09	-3.946681e+01	-5.184415e+02
2.890000e-06	-5.602105e-06	-8.029236e-09	-4.023873e+01	-5.250453e+02
2.900000e-06	-5.707604e-06	-8.125546e-09	-4.099650e+01	-5.313771e+02
2.910000e-06	-5.810998e-06	-8.218035e-09	-4.173917e+01	-5.374659e+02
2.920000e-06	-5.912252e-06	-8.306314e-09	-4.246645e+01	-5.433330e+02
2.930000e-06	-6.011377e-06	-8.391438e-09	-4.317844e+01	-5.489917e+02
2.940000e-06	-6.108371e-06	-8.473507e-09	-4.387513e+01	-5.544481e+02
