# Temperatura_=_45.06
# Concentracion g/m^3_=_10000.0
# C_Vs_to_Am_M_A/Vsm_=_65563218390.804596
# pendiente_HvsI_1/m_=_3716.3
# ordenada_HvsI_A/m_=_1297.0
# frecuencia_Hz_=_302615.34923691425

Tiempo_(s)	Campo_(V.s)	Magnetizacion_(V.s)	Campo_(kA/m)	Magnetizacion_(A/m)
0.000000e+00	-7.894253e-06	-8.791841e-09	-5.682045e+01	-5.757410e+02
1.000000e-08	-7.889627e-06	-8.790293e-09	-5.678714e+01	-5.753916e+02
2.000000e-08	-7.882451e-06	-8.781777e-09	-5.673550e+01	-5.749542e+02
3.000000e-08	-7.872524e-06	-8.771272e-09	-5.666404e+01	-5.744459e+02
4.000000e-08	-7.859737e-06	-8.760201e-09	-5.657201e+01	-5.738838e+02
5.000000e-08	-7.844063e-06	-8.749239e-09	-5.645919e+01	-5.732825e+02
6.000000e-08	-7.825723e-06	-8.741945e-09	-5.632719e+01	-5.726525e+02
7.000000e-08	-7.805094e-06	-8.738912e-09	-5.617870e+01	-5.719987e+02
8.000000e-08	-7.781939e-06	-8.752484e-09	-5.601204e+01	-5.713195e+02
9.000000e-08	-7.755663e-06	-8.770744e-09	-5.582291e+01	-5.706078e+02
1.000000e-07	-7.726236e-06	-8.731958e-09	-5.561111e+01	-5.698511e+02
1.100000e-07	-7.694020e-06	-8.680180e-09	-5.537922e+01	-5.690338e+02
1.200000e-07	-7.659099e-06	-8.650275e-09	-5.512788e+01	-5.681387e+02
1.300000e-07	-7.621738e-06	-8.613745e-09	-5.485896e+01	-5.671491e+02
1.400000e-07	-7.582243e-06	-8.584970e-09	-5.457469e+01	-5.660508e+02
1.500000e-07	-7.540514e-06	-8.607408e-09	-5.427433e+01	-5.648329e+02
1.600000e-07	-7.496187e-06	-8.631475e-09	-5.395529e+01	-5.634894e+02
1.700000e-07	-7.449181e-06	-8.581079e-09	-5.361695e+01	-5.620183e+02
1.800000e-07	-7.399346e-06	-8.553977e-09	-5.325825e+01	-5.604218e+02
1.900000e-07	-7.346482e-06	-8.511846e-09	-5.287776e+01	-5.587053e+02
2.000000e-07	-7.290816e-06	-8.430710e-09	-5.247708e+01	-5.568755e+02
2.100000e-07	-7.232488e-06	-8.414348e-09	-5.205726e+01	-5.549400e+02
2.200000e-07	-7.171541e-06	-8.406225e-09	-5.161858e+01	-5.529053e+02
2.300000e-07	-7.107999e-06	-8.391279e-09	-5.116122e+01	-5.507766e+02
2.400000e-07	-7.041711e-06	-8.365497e-09	-5.068410e+01	-5.485567e+02
2.500000e-07	-6.972738e-06	-8.323748e-09	-5.018765e+01	-5.462466e+02
2.600000e-07	-6.901111e-06	-8.290741e-09	-4.967210e+01	-5.438453e+02
2.700000e-07	-6.826752e-06	-8.251006e-09	-4.913689e+01	-5.413508e+02
2.800000e-07	-6.749663e-06	-8.222746e-09	-4.858203e+01	-5.387602e+02
2.900000e-07	-6.669785e-06	-8.189530e-09	-4.800710e+01	-5.360709e+02
3.000000e-07	-6.587346e-06	-8.150845e-09	-4.741372e+01	-5.332810e+02
3.100000e-07	-6.502698e-06	-8.092666e-09	-4.680445e+01	-5.303888e+02
3.200000e-07	-6.415810e-06	-8.027920e-09	-4.617906e+01	-5.273937e+02
3.300000e-07	-6.326608e-06	-7.984525e-09	-4.553701e+01	-5.242953e+02
3.400000e-07	-6.235108e-06	-7.927527e-09	-4.487842e+01	-5.210928e+02
3.500000e-07	-6.141395e-06	-7.877124e-09	-4.420390e+01	-5.177850e+02
3.600000e-07	-6.045453e-06	-7.836034e-09	-4.351334e+01	-5.143697e+02
3.700000e-07	-5.947246e-06	-7.789125e-09	-4.280648e+01	-5.108433e+02
3.800000e-07	-5.846885e-06	-7.730558e-09	-4.208411e+01	-5.072011e+02
3.900000e-07	-5.744420e-06	-7.671310e-09	-4.134659e+01	-5.034377e+02
4.000000e-07	-5.639934e-06	-7.615031e-09	-4.059454e+01	-4.995470e+02
4.100000e-07	-5.533489e-06	-7.547269e-09	-3.982838e+01	-4.955233e+02
4.200000e-07	-5.425069e-06	-7.485627e-09	-3.904800e+01	-4.913616e+02
4.300000e-07	-5.314734e-06	-7.431375e-09	-3.825384e+01	-4.870582e+02
4.400000e-07	-5.202447e-06	-7.371892e-09	-3.744564e+01	-4.826106e+02
4.500000e-07	-5.088108e-06	-7.292362e-09	-3.662266e+01	-4.780173e+02
4.600000e-07	-4.971790e-06	-7.208676e-09	-3.578544e+01	-4.732779e+02
4.700000e-07	-4.853661e-06	-7.132565e-09	-3.493518e+01	-4.683915e+02
4.800000e-07	-4.733722e-06	-7.058909e-09	-3.407190e+01	-4.633567e+02
4.900000e-07	-4.612052e-06	-6.985787e-09	-3.319616e+01	-4.581702e+02
5.000000e-07	-4.488770e-06	-6.909009e-09	-3.230881e+01	-4.528267e+02
5.100000e-07	-4.363841e-06	-6.824326e-09	-3.140961e+01	-4.473186e+02
5.200000e-07	-4.237284e-06	-6.731279e-09	-3.049869e+01	-4.416359e+02
5.300000e-07	-4.109171e-06	-6.639106e-09	-2.957657e+01	-4.357672e+02
5.400000e-07	-3.979642e-06	-6.547221e-09	-2.864426e+01	-4.297006e+02
5.500000e-07	-3.848612e-06	-6.451746e-09	-2.770114e+01	-4.234248e+02
5.600000e-07	-3.716050e-06	-6.351527e-09	-2.674700e+01	-4.169303e+02
5.700000e-07	-3.582070e-06	-6.250185e-09	-2.578266e+01	-4.102104e+02
5.800000e-07	-3.446691e-06	-6.145031e-09	-2.480824e+01	-4.032614e+02
5.900000e-07	-3.309999e-06	-6.034588e-09	-2.382437e+01	-3.960828e+02
6.000000e-07	-3.172110e-06	-5.920157e-09	-2.283189e+01	-3.886764e+02
6.100000e-07	-3.032905e-06	-5.800947e-09	-2.182993e+01	-3.810451e+02
6.200000e-07	-2.892250e-06	-5.679449e-09	-2.081754e+01	-3.731910e+02
6.300000e-07	-2.750347e-06	-5.558005e-09	-1.979617e+01	-3.651139e+02
6.400000e-07	-2.607387e-06	-5.436351e-09	-1.876718e+01	-3.568093e+02
6.500000e-07	-2.463527e-06	-5.308373e-09	-1.773172e+01	-3.482673e+02
6.600000e-07	-2.318878e-06	-5.170942e-09	-1.669058e+01	-3.394725e+02
6.700000e-07	-2.173373e-06	-5.028104e-09	-1.564328e+01	-3.304037e+02
6.800000e-07	-2.027092e-06	-4.882225e-09	-1.459040e+01	-3.210358e+02
6.900000e-07	-1.880124e-06	-4.731890e-09	-1.353256e+01	-3.113417e+02
7.000000e-07	-1.732519e-06	-4.577422e-09	-1.247015e+01	-3.012946e+02
7.100000e-07	-1.584404e-06	-4.416003e-09	-1.140406e+01	-2.908706e+02
7.200000e-07	-1.435826e-06	-4.247694e-09	-1.033464e+01	-2.800508e+02
7.300000e-07	-1.286802e-06	-4.076946e-09	-9.262014e+00	-2.688229e+02
7.400000e-07	-1.137350e-06	-3.902538e-09	-8.186299e+00	-2.571808e+02
7.500000e-07	-9.874896e-07	-3.722910e-09	-7.107651e+00	-2.451237e+02
7.600000e-07	-8.372936e-07	-3.536011e-09	-6.026586e+00	-2.326534e+02
7.700000e-07	-6.868367e-07	-3.340182e-09	-4.943643e+00	-2.197708e+02
7.800000e-07	-5.361720e-07	-3.137099e-09	-3.859203e+00	-2.064715e+02
7.900000e-07	-3.853077e-07	-2.927193e-09	-2.773328e+00	-1.927417e+02
8.000000e-07	-2.342695e-07	-2.709624e-09	-1.686201e+00	-1.785548e+02
8.100000e-07	-8.314938e-08	-2.483729e-09	-5.984841e-01	-1.638693e+02
8.200000e-07	6.805432e-08	-2.247953e-09	4.898344e-01	-1.486291e+02
8.300000e-07	2.193044e-07	-2.003152e-09	1.578486e+00	-1.327658e+02
8.400000e-07	3.704686e-07	-1.750093e-09	2.666521e+00	-1.162039e+02
8.500000e-07	5.214895e-07	-1.486745e-09	3.753523e+00	-9.886775e+01
8.600000e-07	6.723897e-07	-1.212429e-09	4.839657e+00	-8.069106e+01
8.700000e-07	8.231102e-07	-9.263320e-10	5.924498e+00	-6.162609e+01
8.800000e-07	9.735839e-07	-6.262094e-10	7.007562e+00	-4.165341e+01
8.900000e-07	1.123763e-06	-3.114796e-10	8.088505e+00	-2.078996e+01
9.000000e-07	1.273556e-06	1.646331e-11	9.166670e+00	9.052259e-01
9.100000e-07	1.422861e-06	3.569907e-10	1.024133e+01	2.332866e+01
9.200000e-07	1.571618e-06	7.104729e-10	1.131203e+01	4.633371e+01
9.300000e-07	1.719812e-06	1.073476e-09	1.237868e+01	6.973599e+01
9.400000e-07	1.867389e-06	1.438335e-09	1.344090e+01	9.332217e+01
9.500000e-07	2.014323e-06	1.800374e-09	1.449849e+01	1.168619e+02
9.600000e-07	2.160522e-06	2.156911e-09	1.555079e+01	1.401211e+02
9.700000e-07	2.305884e-06	2.504615e-09	1.659705e+01	1.628766e+02
9.800000e-07	2.450394e-06	2.838193e-09	1.763719e+01	1.849289e+02
9.900000e-07	2.593992e-06	3.156366e-09	1.867077e+01	2.061133e+02
1.000000e-06	2.736559e-06	3.458381e-09	1.969692e+01	2.263081e+02
1.010000e-06	2.878039e-06	3.744805e-09	2.071526e+01	2.454384e+02
1.020000e-06	3.018353e-06	4.015825e-09	2.172519e+01	2.634760e+02
1.030000e-06	3.157418e-06	4.272533e-09	2.272614e+01	2.804356e+02
1.040000e-06	3.295263e-06	4.515625e-09	2.371830e+01	2.963669e+02
1.050000e-06	3.431837e-06	4.745287e-09	2.470132e+01	3.113457e+02
1.060000e-06	3.567078e-06	4.962902e-09	2.567475e+01	3.254623e+02
1.070000e-06	3.701055e-06	5.169220e-09	2.663907e+01	3.388109e+02
1.080000e-06	3.833686e-06	5.364618e-09	2.759371e+01	3.514807e+02
1.090000e-06	3.964876e-06	5.548115e-09	2.853798e+01	3.635476e+02
1.100000e-06	4.094705e-06	5.722742e-09	2.947244e+01	3.750704e+02
1.110000e-06	4.223124e-06	5.890087e-09	3.039677e+01	3.860886e+02
1.120000e-06	4.350042e-06	6.049116e-09	3.131028e+01	3.966243e+02
1.130000e-06	4.475482e-06	6.200676e-09	3.221317e+01	4.066854e+02
1.140000e-06	4.599426e-06	6.344406e-09	3.310528e+01	4.162708e+02
1.150000e-06	4.721813e-06	6.481304e-09	3.398618e+01	4.253762e+02
1.160000e-06	4.842536e-06	6.612269e-09	3.485511e+01	4.339996e+02
1.170000e-06	4.961452e-06	6.735900e-09	3.571103e+01	4.421459e+02
1.180000e-06	5.078471e-06	6.852636e-09	3.655329e+01	4.498297e+02
1.190000e-06	5.193502e-06	6.961635e-09	3.738125e+01	4.570760e+02
1.200000e-06	5.306490e-06	7.064866e-09	3.819451e+01	4.639195e+02
1.210000e-06	5.417524e-06	7.163815e-09	3.899370e+01	4.704018e+02
1.220000e-06	5.526649e-06	7.260072e-09	3.977915e+01	4.765677e+02
1.230000e-06	5.633818e-06	7.351528e-09	4.055052e+01	4.824608e+02
1.240000e-06	5.738984e-06	7.437325e-09	4.130747e+01	4.881200e+02
1.250000e-06	5.842036e-06	7.521315e-09	4.204921e+01	4.935757e+02
1.260000e-06	5.942894e-06	7.603703e-09	4.277515e+01	4.988483e+02
1.270000e-06	6.041526e-06	7.681278e-09	4.348507e+01	5.039475e+02
1.280000e-06	6.137902e-06	7.753641e-09	4.417876e+01	5.088733e+02
1.290000e-06	6.232087e-06	7.822070e-09	4.485668e+01	5.136183e+02
1.300000e-06	6.324084e-06	7.887026e-09	4.551884e+01	5.181706e+02
1.310000e-06	6.413764e-06	7.950288e-09	4.616433e+01	5.225174e+02
1.320000e-06	6.501099e-06	8.013000e-09	4.679294e+01	5.266480e+02
1.330000e-06	6.586149e-06	8.073920e-09	4.740511e+01	5.305562e+02
1.340000e-06	6.668964e-06	8.131000e-09	4.800118e+01	5.342420e+02
1.350000e-06	6.749419e-06	8.183579e-09	4.858027e+01	5.377118e+02
1.360000e-06	6.827361e-06	8.233240e-09	4.914128e+01	5.409774e+02
1.370000e-06	6.902734e-06	8.282356e-09	4.968379e+01	5.440546e+02
1.380000e-06	6.975462e-06	8.329629e-09	5.020726e+01	5.469609e+02
1.390000e-06	7.045643e-06	8.372196e-09	5.071240e+01	5.497127e+02
1.400000e-06	7.113370e-06	8.411223e-09	5.119988e+01	5.523236e+02
1.410000e-06	7.178535e-06	8.448572e-09	5.166892e+01	5.548025e+02
1.420000e-06	7.241214e-06	8.483751e-09	5.212007e+01	5.571533e+02
1.430000e-06	7.301466e-06	8.516931e-09	5.255374e+01	5.593747e+02
1.440000e-06	7.359090e-06	8.549030e-09	5.296850e+01	5.614619e+02
1.450000e-06	7.414066e-06	8.578802e-09	5.336420e+01	5.634080e+02
1.460000e-06	7.466218e-06	8.604162e-09	5.373958e+01	5.652062e+02
1.470000e-06	7.515280e-06	8.628307e-09	5.409271e+01	5.668520e+02
1.480000e-06	7.561504e-06	8.652945e-09	5.442542e+01	5.683447e+02
1.490000e-06	7.605168e-06	8.675496e-09	5.473970e+01	5.696880e+02
1.500000e-06	7.646141e-06	8.695049e-09	5.503461e+01	5.708908e+02
1.510000e-06	7.684312e-06	8.712988e-09	5.530935e+01	5.719659e+02
1.520000e-06	7.719779e-06	8.730631e-09	5.556463e+01	5.729287e+02
1.530000e-06	7.752491e-06	8.746709e-09	5.580008e+01	5.737951e+02
1.540000e-06	7.782472e-06	8.760710e-09	5.601588e+01	5.745795e+02
1.550000e-06	7.809747e-06	8.772247e-09	5.621220e+01	5.752928e+02
1.560000e-06	7.834088e-06	8.780793e-09	5.638739e+01	5.759410e+02
1.570000e-06	7.855557e-06	8.788790e-09	5.654192e+01	5.765247e+02
1.580000e-06	7.874325e-06	8.798078e-09	5.667701e+01	5.770389e+02
1.590000e-06	7.890231e-06	8.806990e-09	5.679150e+01	5.774745e+02
1.600000e-06	7.903126e-06	8.812113e-09	5.688431e+01	5.778200e+02
1.610000e-06	7.912911e-06	8.812525e-09	5.695474e+01	5.780633e+02
1.620000e-06	7.919719e-06	8.812599e-09	5.700374e+01	5.781942e+02
1.630000e-06	7.923748e-06	8.814677e-09	5.703274e+01	5.782062e+02
1.640000e-06	7.924965e-06	8.819012e-09	5.704150e+01	5.780982e+02
1.650000e-06	7.923482e-06	8.821377e-09	5.703083e+01	5.778745e+02
1.660000e-06	7.919405e-06	8.815090e-09	5.700148e+01	5.775450e+02
1.670000e-06	7.912643e-06	8.811374e-09	5.695281e+01	5.771241e+02
1.680000e-06	7.903209e-06	8.806952e-09	5.688490e+01	5.766286e+02
1.690000e-06	7.891042e-06	8.799073e-09	5.679733e+01	5.760757e+02
1.700000e-06	7.876100e-06	8.791460e-09	5.668978e+01	5.754808e+02
1.710000e-06	7.858720e-06	8.780961e-09	5.656469e+01	5.748554e+02
1.720000e-06	7.839114e-06	8.761085e-09	5.642357e+01	5.742056e+02
1.730000e-06	7.816907e-06	8.701478e-09	5.626373e+01	5.735313e+02
1.740000e-06	7.791481e-06	8.668210e-09	5.608072e+01	5.728265e+02
1.750000e-06	7.762481e-06	8.699615e-09	5.587199e+01	5.720797e+02
1.760000e-06	7.730240e-06	8.715082e-09	5.563993e+01	5.712759e+02
1.770000e-06	7.695521e-06	8.723887e-09	5.539003e+01	5.703979e+02
1.780000e-06	7.658507e-06	8.737415e-09	5.512361e+01	5.694289e+02
1.790000e-06	7.619252e-06	8.711040e-09	5.484107e+01	5.683539e+02
1.800000e-06	7.577951e-06	8.637521e-09	5.454379e+01	5.671614e+02
1.810000e-06	7.534258e-06	8.623514e-09	5.422931e+01	5.658441e+02
1.820000e-06	7.487973e-06	8.614259e-09	5.389616e+01	5.643993e+02
1.830000e-06	7.438906e-06	8.609661e-09	5.354299e+01	5.628284e+02
1.840000e-06	7.386795e-06	8.630955e-09	5.316791e+01	5.611361e+02
1.850000e-06	7.331868e-06	8.572881e-09	5.277257e+01	5.593290e+02
1.860000e-06	7.274196e-06	8.547533e-09	5.235746e+01	5.574146e+02
1.870000e-06	7.213901e-06	8.476205e-09	5.192347e+01	5.553997e+02
1.880000e-06	7.150986e-06	8.425052e-09	5.147063e+01	5.532899e+02
1.890000e-06	7.085262e-06	8.429544e-09	5.099757e+01	5.510884e+02
1.900000e-06	7.016778e-06	8.376992e-09	5.050464e+01	5.487967e+02
1.910000e-06	6.945541e-06	8.365069e-09	4.999190e+01	5.464141e+02
1.920000e-06	6.871650e-06	8.306730e-09	4.946006e+01	5.439388e+02
1.930000e-06	6.795073e-06	8.252521e-09	4.890888e+01	5.413680e+02
1.940000e-06	6.715801e-06	8.202885e-09	4.833830e+01	5.386992e+02
1.950000e-06	6.634055e-06	8.162357e-09	4.774992e+01	5.359300e+02
1.960000e-06	6.549870e-06	8.155540e-09	4.714398e+01	5.330588e+02
1.970000e-06	6.463194e-06	8.097036e-09	4.652011e+01	5.300849e+02
1.980000e-06	6.374136e-06	8.072669e-09	4.587910e+01	5.270077e+02
1.990000e-06	6.282912e-06	8.015145e-09	4.522250e+01	5.238266e+02
2.000000e-06	6.189526e-06	7.944251e-09	4.455034e+01	5.205405e+02
2.010000e-06	6.093876e-06	7.880039e-09	4.386187e+01	5.171475e+02
2.020000e-06	5.995983e-06	7.826981e-09	4.315727e+01	5.136443e+02
2.030000e-06	5.895939e-06	7.789584e-09	4.243718e+01	5.100265e+02
2.040000e-06	5.793792e-06	7.734241e-09	4.170196e+01	5.062886e+02
2.050000e-06	5.689583e-06	7.691829e-09	4.095189e+01	5.024247e+02
2.060000e-06	5.583491e-06	7.621334e-09	4.018828e+01	4.984290e+02
2.070000e-06	5.475508e-06	7.539654e-09	3.941105e+01	4.942963e+02
2.080000e-06	5.365592e-06	7.455073e-09	3.861990e+01	4.900225e+02
2.090000e-06	5.253757e-06	7.395007e-09	3.781495e+01	4.856049e+02
2.100000e-06	5.139950e-06	7.335551e-09	3.699580e+01	4.810420e+02
2.110000e-06	5.024111e-06	7.267541e-09	3.616203e+01	4.763330e+02
2.120000e-06	4.906295e-06	7.202577e-09	3.531403e+01	4.714772e+02
2.130000e-06	4.786586e-06	7.130364e-09	3.445239e+01	4.664734e+02
2.140000e-06	4.665094e-06	7.046800e-09	3.357794e+01	4.613189e+02
2.150000e-06	4.541884e-06	6.955214e-09	3.269110e+01	4.560086e+02
2.160000e-06	4.417027e-06	6.873525e-09	3.179242e+01	4.505356e+02
2.170000e-06	4.290622e-06	6.786035e-09	3.088260e+01	4.448902e+02
2.180000e-06	4.162572e-06	6.695900e-09	2.996093e+01	4.390614e+02
2.190000e-06	4.033018e-06	6.603192e-09	2.902844e+01	4.330372e+02
2.200000e-06	3.901945e-06	6.511007e-09	2.808502e+01	4.268062e+02
2.210000e-06	3.769383e-06	6.410386e-09	2.713088e+01	4.203583e+02
2.220000e-06	3.635481e-06	6.309560e-09	2.616709e+01	4.136861e+02
2.230000e-06	3.500256e-06	6.212264e-09	2.519378e+01	4.067854e+02
2.240000e-06	3.363671e-06	6.112175e-09	2.421069e+01	3.996549e+02
2.250000e-06	3.225719e-06	6.002256e-09	2.321775e+01	3.922961e+02
2.260000e-06	3.086564e-06	5.881946e-09	2.221615e+01	3.847118e+02
2.270000e-06	2.946293e-06	5.755796e-09	2.120653e+01	3.769045e+02
2.280000e-06	2.804898e-06	5.625376e-09	2.018881e+01	3.688744e+02
2.290000e-06	2.662440e-06	5.498150e-09	1.916344e+01	3.606182e+02
2.300000e-06	2.519014e-06	5.372383e-09	1.813110e+01	3.521272e+02
2.310000e-06	2.374643e-06	5.244930e-09	1.709196e+01	3.433872e+02
2.320000e-06	2.229443e-06	5.110423e-09	1.604686e+01	3.343782e+02
2.330000e-06	2.083503e-06	4.972084e-09	1.499642e+01	3.250757e+02
2.340000e-06	1.936858e-06	4.828154e-09	1.394092e+01	3.154528e+02
2.350000e-06	1.789519e-06	4.674555e-09	1.288042e+01	3.054825e+02
2.360000e-06	1.641540e-06	4.513410e-09	1.181531e+01	2.951401e+02
2.370000e-06	1.493054e-06	4.348111e-09	1.074655e+01	2.844054e+02
2.380000e-06	1.344172e-06	4.180972e-09	9.674944e+00	2.732647e+02
2.390000e-06	1.194909e-06	4.007796e-09	8.600596e+00	2.617106e+02
2.400000e-06	1.045243e-06	3.826115e-09	7.523343e+00	2.497414e+02
2.410000e-06	8.952383e-07	3.635613e-09	6.443654e+00	2.373585e+02
2.420000e-06	7.449490e-07	3.438202e-09	5.361917e+00	2.245634e+02
2.430000e-06	5.943998e-07	3.238605e-09	4.278309e+00	2.113532e+02
2.440000e-06	4.436701e-07	3.035687e-09	3.193403e+00	1.977165e+02
2.450000e-06	2.927888e-07	2.823411e-09	2.107405e+00	1.836295e+02
2.460000e-06	1.417328e-07	2.598903e-09	1.020150e+00	1.690542e+02
2.470000e-06	-9.393484e-09	2.362416e-09	-6.761145e-02	1.539373e+02
2.480000e-06	-1.604879e-07	2.115963e-09	-1.155143e+00	1.382127e+02
2.490000e-06	-3.115595e-07	1.861464e-09	-2.242511e+00	1.218060e+02
2.500000e-06	-4.625695e-07	1.597215e-09	-3.329435e+00	1.046409e+02
2.510000e-06	-6.134263e-07	1.320968e-09	-4.415257e+00	8.664814e+01
2.520000e-06	-7.640737e-07	1.032634e-09	-5.499571e+00	6.777528e+01
2.530000e-06	-9.145057e-07	7.338078e-10	-6.582335e+00	4.799606e+01
2.540000e-06	-1.064645e-06	4.260458e-10	-7.662991e+00	2.731906e+01
2.550000e-06	-1.214370e-06	1.063321e-10	-8.740669e+00	5.793940e+00
2.560000e-06	-1.363665e-06	-2.296867e-10	-9.815246e+00	-1.648533e+01
2.570000e-06	-1.512533e-06	-5.823589e-10	-1.088676e+01	-3.938107e+01
2.580000e-06	-1.660932e-06	-9.461436e-10	-1.195488e+01	-6.271633e+01
2.590000e-06	-1.808742e-06	-1.312055e-09	-1.301878e+01	-8.628308e+01
2.600000e-06	-1.955850e-06	-1.677121e-09	-1.407761e+01	-1.098535e+02
2.610000e-06	-2.102204e-06	-2.039201e-09	-1.513103e+01	-1.331932e+02
2.620000e-06	-2.247707e-06	-2.392062e-09	-1.617832e+01	-1.560754e+02
2.630000e-06	-2.392320e-06	-2.728493e-09	-1.721920e+01	-1.782945e+02
2.640000e-06	-2.535993e-06	-3.047652e-09	-1.825331e+01	-1.996776e+02
2.650000e-06	-2.678628e-06	-3.352800e-09	-1.927995e+01	-2.200934e+02
2.660000e-06	-2.820247e-06	-3.646304e-09	-2.029928e+01	-2.394567e+02
2.670000e-06	-2.960772e-06	-3.926987e-09	-2.131074e+01	-2.577295e+02
2.680000e-06	-3.100114e-06	-4.192219e-09	-2.231368e+01	-2.749179e+02
2.690000e-06	-3.238269e-06	-4.441242e-09	-2.330808e+01	-2.910650e+02
2.700000e-06	-3.375182e-06	-4.675192e-09	-2.429354e+01	-3.062416e+02
2.710000e-06	-3.510748e-06	-4.898118e-09	-2.526930e+01	-3.205359e+02
2.720000e-06	-3.644981e-06	-5.110292e-09	-2.623547e+01	-3.340423e+02
2.730000e-06	-3.777941e-06	-5.309906e-09	-2.719248e+01	-3.468516e+02
2.740000e-06	-3.909535e-06	-5.496123e-09	-2.813965e+01	-3.590430e+02
2.750000e-06	-4.039769e-06	-5.670553e-09	-2.907704e+01	-3.706794e+02
2.760000e-06	-4.168669e-06	-5.838280e-09	-3.000482e+01	-3.818042e+02
2.770000e-06	-4.296134e-06	-6.001344e-09	-3.092227e+01	-3.924433e+02
2.780000e-06	-4.422117e-06	-6.157050e-09	-3.182906e+01	-4.026069e+02
2.790000e-06	-4.546548e-06	-6.303388e-09	-3.272468e+01	-4.122955e+02
2.800000e-06	-4.669351e-06	-6.442058e-09	-3.360858e+01	-4.215051e+02
2.810000e-06	-4.790458e-06	-6.574726e-09	-3.448026e+01	-4.302326e+02
2.820000e-06	-4.909775e-06	-6.700830e-09	-3.533907e+01	-4.384813e+02
2.830000e-06	-5.027259e-06	-6.820772e-09	-3.618469e+01	-4.462634e+02
2.840000e-06	-5.142762e-06	-6.935244e-09	-3.701604e+01	-4.536018e+02
2.850000e-06	-5.256142e-06	-7.043222e-09	-3.783212e+01	-4.605293e+02
2.860000e-06	-5.367420e-06	-7.141889e-09	-3.863306e+01	-4.670862e+02
2.870000e-06	-5.476691e-06	-7.235865e-09	-3.941957e+01	-4.733170e+02
2.880000e-06	-5.584054e-06	-7.328383e-09	-4.019233e+01	-4.792661e+02
2.890000e-06	-5.689451e-06	-7.417654e-09	-4.095095e+01	-4.849734e+02
2.900000e-06	-5.792806e-06	-7.502295e-09	-4.169486e+01	-4.904717e+02
2.910000e-06	-5.894010e-06	-7.581457e-09	-4.242330e+01	-4.957833e+02
2.920000e-06	-5.993000e-06	-7.659054e-09	-4.313580e+01	-5.009203e+02
2.930000e-06	-6.089844e-06	-7.735623e-09	-4.383286e+01	-5.058846e+02
2.940000e-06	-6.184530e-06	-7.808541e-09	-4.451437e+01	-5.106702e+02
