# Temperatura_=_65.88
# Concentracion g/m^3_=_10000.0
# C_Vs_to_Am_M_A/Vsm_=_65563218390.804596
# pendiente_HvsI_1/m_=_3716.3
# ordenada_HvsI_A/m_=_1297.0
# frecuencia_Hz_=_302622.49673966167

Tiempo_(s)	Campo_(V.s)	Magnetizacion_(V.s)	Campo_(kA/m)	Magnetizacion_(A/m)
0.000000e+00	-7.950728e-06	-1.041467e-08	-5.681925e+01	-6.823961e+02
1.000000e-08	-7.946220e-06	-1.041313e-08	-5.678703e+01	-6.819867e+02
2.000000e-08	-7.939137e-06	-1.040578e-08	-5.673642e+01	-6.814640e+02
3.000000e-08	-7.929292e-06	-1.039824e-08	-5.666606e+01	-6.808372e+02
4.000000e-08	-7.916545e-06	-1.038840e-08	-5.657496e+01	-6.801149e+02
5.000000e-08	-7.900879e-06	-1.037394e-08	-5.646300e+01	-6.793049e+02
6.000000e-08	-7.882556e-06	-1.035951e-08	-5.633206e+01	-6.784128e+02
7.000000e-08	-7.861996e-06	-1.035026e-08	-5.618513e+01	-6.774427e+02
8.000000e-08	-7.838891e-06	-1.035199e-08	-5.602002e+01	-6.763962e+02
9.000000e-08	-7.812628e-06	-1.037541e-08	-5.583233e+01	-6.752734e+02
1.000000e-07	-7.783167e-06	-1.032900e-08	-5.562178e+01	-6.740728e+02
1.100000e-07	-7.750855e-06	-1.026235e-08	-5.539087e+01	-6.727918e+02
1.200000e-07	-7.715828e-06	-1.023460e-08	-5.514055e+01	-6.714270e+02
1.300000e-07	-7.678313e-06	-1.020382e-08	-5.487246e+01	-6.699744e+02
1.400000e-07	-7.638626e-06	-1.016987e-08	-5.458883e+01	-6.684293e+02
1.500000e-07	-7.596648e-06	-1.014662e-08	-5.428884e+01	-6.667864e+02
1.600000e-07	-7.552111e-06	-1.017477e-08	-5.397056e+01	-6.650395e+02
1.700000e-07	-7.504915e-06	-1.009765e-08	-5.363328e+01	-6.631813e+02
1.800000e-07	-7.454811e-06	-1.003771e-08	-5.327521e+01	-6.612038e+02
1.900000e-07	-7.401690e-06	-1.004991e-08	-5.289559e+01	-6.590982e+02
2.000000e-07	-7.345814e-06	-9.970636e-09	-5.249627e+01	-6.568552e+02
2.100000e-07	-7.287269e-06	-9.957656e-09	-5.207789e+01	-6.544662e+02
2.200000e-07	-7.226078e-06	-9.949487e-09	-5.164060e+01	-6.519237e+02
2.300000e-07	-7.162240e-06	-9.898895e-09	-5.118438e+01	-6.492222e+02
2.400000e-07	-7.095620e-06	-9.843564e-09	-5.070829e+01	-6.463591e+02
2.500000e-07	-7.026336e-06	-9.777908e-09	-5.021316e+01	-6.433350e+02
2.600000e-07	-6.954356e-06	-9.743436e-09	-4.969875e+01	-6.401538e+02
2.700000e-07	-6.879547e-06	-9.680633e-09	-4.916414e+01	-6.368226e+02
2.800000e-07	-6.801937e-06	-9.637810e-09	-4.860951e+01	-6.333504e+02
2.900000e-07	-6.721570e-06	-9.588692e-09	-4.803516e+01	-6.297475e+02
3.000000e-07	-6.638764e-06	-9.538493e-09	-4.744340e+01	-6.260237e+02
3.100000e-07	-6.553756e-06	-9.483791e-09	-4.683590e+01	-6.221867e+02
3.200000e-07	-6.466482e-06	-9.399624e-09	-4.621220e+01	-6.182415e+02
3.300000e-07	-6.376816e-06	-9.350982e-09	-4.557141e+01	-6.141886e+02
3.400000e-07	-6.284794e-06	-9.288860e-09	-4.491378e+01	-6.100245e+02
3.500000e-07	-6.190607e-06	-9.224871e-09	-4.424068e+01	-6.057412e+02
3.600000e-07	-6.094139e-06	-9.162128e-09	-4.355128e+01	-6.013278e+02
3.700000e-07	-5.995426e-06	-9.096021e-09	-4.284584e+01	-5.967712e+02
3.800000e-07	-5.894578e-06	-9.020014e-09	-4.212513e+01	-5.920583e+02
3.900000e-07	-5.791574e-06	-8.935336e-09	-4.138902e+01	-5.871773e+02
4.000000e-07	-5.686475e-06	-8.862165e-09	-4.063794e+01	-5.821196e+02
4.100000e-07	-5.579349e-06	-8.779755e-09	-3.987237e+01	-5.768806e+02
4.200000e-07	-5.470321e-06	-8.706380e-09	-3.909321e+01	-5.714599e+02
4.300000e-07	-5.359439e-06	-8.626379e-09	-3.830081e+01	-5.658613e+02
4.400000e-07	-5.246482e-06	-8.541526e-09	-3.749356e+01	-5.600916e+02
4.500000e-07	-5.131340e-06	-8.443905e-09	-3.667071e+01	-5.541588e+02
4.600000e-07	-5.014246e-06	-8.344598e-09	-3.583391e+01	-5.480704e+02
4.700000e-07	-4.895387e-06	-8.248590e-09	-3.498450e+01	-5.418313e+02
4.800000e-07	-4.774686e-06	-8.155718e-09	-3.412191e+01	-5.354422e+02
4.900000e-07	-4.652184e-06	-8.062094e-09	-3.324646e+01	-5.288987e+02
5.000000e-07	-4.528046e-06	-7.958456e-09	-3.235932e+01	-5.221910e+02
5.100000e-07	-4.402315e-06	-7.852372e-09	-3.146079e+01	-5.153044e+02
5.200000e-07	-4.275005e-06	-7.739887e-09	-3.055098e+01	-5.082211e+02
5.300000e-07	-4.146029e-06	-7.628471e-09	-2.962927e+01	-5.009218e+02
5.400000e-07	-4.015525e-06	-7.509685e-09	-2.869663e+01	-4.933883e+02
5.500000e-07	-3.883542e-06	-7.389837e-09	-2.775343e+01	-4.856053e+02
5.600000e-07	-3.750055e-06	-7.269330e-09	-2.679947e+01	-4.775625e+02
5.700000e-07	-3.615244e-06	-7.144921e-09	-2.583605e+01	-4.692556e+02
5.800000e-07	-3.479051e-06	-7.014854e-09	-2.486276e+01	-4.606857e+02
5.900000e-07	-3.341394e-06	-6.880405e-09	-2.387901e+01	-4.518586e+02
6.000000e-07	-3.202417e-06	-6.744485e-09	-2.288582e+01	-4.427830e+02
6.100000e-07	-3.062145e-06	-6.600904e-09	-2.188338e+01	-4.334673e+02
6.200000e-07	-2.920450e-06	-6.455017e-09	-2.087077e+01	-4.239172e+02
6.300000e-07	-2.777460e-06	-6.306573e-09	-1.984890e+01	-4.141329e+02
6.400000e-07	-2.633493e-06	-6.152984e-09	-1.882005e+01	-4.041073e+02
6.500000e-07	-2.488651e-06	-5.991275e-09	-1.778495e+01	-3.938251e+02
6.600000e-07	-2.342936e-06	-5.823934e-09	-1.674360e+01	-3.832630e+02
6.700000e-07	-2.196441e-06	-5.654974e-09	-1.569669e+01	-3.723917e+02
6.800000e-07	-2.049263e-06	-5.482777e-09	-1.464490e+01	-3.611782e+02
6.900000e-07	-1.901418e-06	-5.307675e-09	-1.358834e+01	-3.495898e+02
7.000000e-07	-1.752972e-06	-5.127597e-09	-1.252748e+01	-3.375968e+02
7.100000e-07	-1.603923e-06	-4.939256e-09	-1.146231e+01	-3.251761e+02
7.200000e-07	-1.454315e-06	-4.741374e-09	-1.039315e+01	-3.123130e+02
7.300000e-07	-1.304315e-06	-4.540138e-09	-9.321180e+00	-2.990014e+02
7.400000e-07	-1.154006e-06	-4.334062e-09	-8.247011e+00	-2.852426e+02
7.500000e-07	-1.003328e-06	-4.120554e-09	-7.170207e+00	-2.710420e+02
7.600000e-07	-8.522453e-07	-3.898567e-09	-6.090503e+00	-2.564048e+02
7.700000e-07	-7.008358e-07	-3.668302e-09	-5.008468e+00	-2.413301e+02
7.800000e-07	-5.491261e-07	-3.432017e-09	-3.924286e+00	-2.258056e+02
7.900000e-07	-3.971569e-07	-3.189253e-09	-2.838250e+00	-2.098030e+02
8.000000e-07	-2.449866e-07	-2.938295e-09	-1.750777e+00	-1.932746e+02
8.100000e-07	-9.264596e-08	-2.675655e-09	-6.620870e-01	-1.761532e+02
8.200000e-07	5.974763e-08	-2.401490e-09	4.269817e-01	-1.583541e+02
8.300000e-07	2.121012e-07	-2.115889e-09	1.515764e+00	-1.397809e+02
8.400000e-07	3.644288e-07	-1.817944e-09	2.604361e+00	-1.203340e+02
8.500000e-07	5.166191e-07	-1.505303e-09	3.691977e+00	-9.992047e+01
8.600000e-07	6.685911e-07	-1.179002e-09	4.778033e+00	-7.846676e+01
8.700000e-07	8.203394e-07	-8.388741e-10	5.862491e+00	-5.592986e+01
8.800000e-07	9.717890e-07	-4.814555e-10	6.944813e+00	-3.230787e+01
8.900000e-07	1.122899e-06	-1.079899e-10	8.024711e+00	-7.647839e+00
9.000000e-07	1.273625e-06	2.800303e-10	9.101859e+00	1.795013e+01
9.100000e-07	1.423911e-06	6.802566e-10	1.017587e+01	4.433313e+01
9.200000e-07	1.573751e-06	1.092240e-09	1.124668e+01	7.130025e+01
9.300000e-07	1.723069e-06	1.513023e-09	1.231377e+01	9.861179e+01
9.400000e-07	1.871690e-06	1.935073e-09	1.337588e+01	1.260020e+02
9.500000e-07	2.019618e-06	2.352919e-09	1.443304e+01	1.531946e+02
9.600000e-07	2.166871e-06	2.763436e-09	1.548537e+01	1.799186e+02
9.700000e-07	2.313378e-06	3.161801e-09	1.653237e+01	2.059250e+02
9.800000e-07	2.459072e-06	3.540712e-09	1.757356e+01	2.309997e+02
9.900000e-07	2.603797e-06	3.899404e-09	1.860783e+01	2.549751e+02
1.000000e-06	2.747453e-06	4.238523e-09	1.963446e+01	2.777362e+02
1.010000e-06	2.890049e-06	4.559237e-09	2.065351e+01	2.992228e+02
1.020000e-06	3.031496e-06	4.862547e-09	2.166434e+01	3.194269e+02
1.030000e-06	3.171686e-06	5.151647e-09	2.266620e+01	3.383862e+02
1.040000e-06	3.310632e-06	5.425448e-09	2.365917e+01	3.561748e+02
1.050000e-06	3.448334e-06	5.681004e-09	2.464325e+01	3.728913e+02
1.060000e-06	3.584673e-06	5.922525e-09	2.561758e+01	3.886469e+02
1.070000e-06	3.719584e-06	6.153767e-09	2.658172e+01	4.035544e+02
1.080000e-06	3.853184e-06	6.371771e-09	2.753648e+01	4.177178e+02
1.090000e-06	3.985469e-06	6.575773e-09	2.848184e+01	4.312258e+02
1.100000e-06	4.116367e-06	6.770246e-09	2.941729e+01	4.441477e+02
1.110000e-06	4.245800e-06	6.956307e-09	3.034227e+01	4.565320e+02
1.120000e-06	4.373648e-06	7.134472e-09	3.125593e+01	4.684086e+02
1.130000e-06	4.499946e-06	7.305858e-09	3.215851e+01	4.797921e+02
1.140000e-06	4.624796e-06	7.469813e-09	3.305074e+01	4.906868e+02
1.150000e-06	4.748133e-06	7.626683e-09	3.393216e+01	5.010928e+02
1.160000e-06	4.869786e-06	7.778079e-09	3.480154e+01	5.110103e+02
1.170000e-06	4.989636e-06	7.923561e-09	3.565804e+01	5.204440e+02
1.180000e-06	5.107644e-06	8.061673e-09	3.650137e+01	5.294057e+02
1.190000e-06	5.223749e-06	8.191129e-09	3.733111e+01	5.379151e+02
1.200000e-06	5.337831e-06	8.312732e-09	3.814639e+01	5.459989e+02
1.210000e-06	5.449853e-06	8.429976e-09	3.894694e+01	5.536896e+02
1.220000e-06	5.559892e-06	8.544071e-09	3.973333e+01	5.610218e+02
1.230000e-06	5.668048e-06	8.652775e-09	4.050625e+01	5.680302e+02
1.240000e-06	5.774180e-06	8.755999e-09	4.126472e+01	5.747463e+02
1.250000e-06	5.878084e-06	8.856124e-09	4.200726e+01	5.811963e+02
1.260000e-06	5.979788e-06	8.954044e-09	4.273408e+01	5.874004e+02
1.270000e-06	6.079362e-06	9.044881e-09	4.344568e+01	5.933722e+02
1.280000e-06	6.176683e-06	9.128648e-09	4.414118e+01	5.991196e+02
1.290000e-06	6.271657e-06	9.207102e-09	4.481990e+01	6.046464e+02
1.300000e-06	6.364374e-06	9.283753e-09	4.548249e+01	6.099540e+02
1.310000e-06	6.454849e-06	9.359970e-09	4.612907e+01	6.150432e+02
1.320000e-06	6.542962e-06	9.434426e-09	4.675876e+01	6.199159e+02
1.330000e-06	6.628708e-06	9.507108e-09	4.737154e+01	6.245760e+02
1.340000e-06	6.712179e-06	9.576684e-09	4.796806e+01	6.290296e+02
1.350000e-06	6.793287e-06	9.642648e-09	4.854769e+01	6.332850e+02
1.360000e-06	6.871892e-06	9.705058e-09	4.910943e+01	6.373515e+02
1.370000e-06	6.947924e-06	9.765079e-09	4.965279e+01	6.412381e+02
1.380000e-06	7.021339e-06	9.822118e-09	5.017744e+01	6.449526e+02
1.390000e-06	7.092211e-06	9.876703e-09	5.068392e+01	6.485001e+02
1.400000e-06	7.160568e-06	9.930031e-09	5.117243e+01	6.518825e+02
1.410000e-06	7.226317e-06	9.980862e-09	5.164230e+01	6.550986e+02
1.420000e-06	7.289502e-06	1.002734e-08	5.209385e+01	6.581441e+02
1.430000e-06	7.350236e-06	1.006928e-08	5.252788e+01	6.610130e+02
1.440000e-06	7.408438e-06	1.010905e-08	5.294382e+01	6.636990e+02
1.450000e-06	7.463989e-06	1.014612e-08	5.334081e+01	6.661967e+02
1.460000e-06	7.516722e-06	1.017961e-08	5.371766e+01	6.685031e+02
1.470000e-06	7.566381e-06	1.021093e-08	5.407254e+01	6.706189e+02
1.480000e-06	7.613076e-06	1.024054e-08	5.440624e+01	6.725486e+02
1.490000e-06	7.657130e-06	1.026805e-08	5.472107e+01	6.743007e+02
1.500000e-06	7.698503e-06	1.029414e-08	5.501674e+01	6.758867e+02
1.510000e-06	7.737075e-06	1.031977e-08	5.529239e+01	6.773202e+02
1.520000e-06	7.773006e-06	1.034490e-08	5.554917e+01	6.786152e+02
1.530000e-06	7.806193e-06	1.036568e-08	5.578634e+01	6.797850e+02
1.540000e-06	7.836536e-06	1.038014e-08	5.600318e+01	6.808400e+02
1.550000e-06	7.864125e-06	1.039118e-08	5.620035e+01	6.817877e+02
1.560000e-06	7.888802e-06	1.040086e-08	5.637670e+01	6.826312e+02
1.570000e-06	7.910613e-06	1.041228e-08	5.653257e+01	6.833701e+02
1.580000e-06	7.929694e-06	1.042512e-08	5.666893e+01	6.840006e+02
1.590000e-06	7.945926e-06	1.043701e-08	5.678493e+01	6.845168e+02
1.600000e-06	7.959142e-06	1.044477e-08	5.687937e+01	6.849118e+02
1.610000e-06	7.969158e-06	1.044756e-08	5.695096e+01	6.851795e+02
1.620000e-06	7.976155e-06	1.044909e-08	5.700096e+01	6.853149e+02
1.630000e-06	7.980409e-06	1.045055e-08	5.703136e+01	6.853161e+02
1.640000e-06	7.981828e-06	1.045024e-08	5.704150e+01	6.851838e+02
1.650000e-06	7.980451e-06	1.044982e-08	5.703166e+01	6.849218e+02
1.660000e-06	7.976498e-06	1.044125e-08	5.700341e+01	6.845366e+02
1.670000e-06	7.969897e-06	1.043627e-08	5.695624e+01	6.840363e+02
1.680000e-06	7.960574e-06	1.043185e-08	5.688961e+01	6.834299e+02
1.690000e-06	7.948525e-06	1.042312e-08	5.680350e+01	6.827263e+02
1.700000e-06	7.933699e-06	1.041196e-08	5.669755e+01	6.819334e+02
1.710000e-06	7.916297e-06	1.039631e-08	5.657319e+01	6.810575e+02
1.720000e-06	7.896663e-06	1.037455e-08	5.643287e+01	6.801027e+02
1.730000e-06	7.874496e-06	1.030909e-08	5.627446e+01	6.790714e+02
1.740000e-06	7.849068e-06	1.025726e-08	5.609274e+01	6.779639e+02
1.750000e-06	7.820021e-06	1.029051e-08	5.588516e+01	6.767790e+02
1.760000e-06	7.787669e-06	1.030121e-08	5.565396e+01	6.755144e+02
1.770000e-06	7.752847e-06	1.028747e-08	5.540511e+01	6.741667e+02
1.780000e-06	7.715708e-06	1.028262e-08	5.513970e+01	6.727322e+02
1.790000e-06	7.676315e-06	1.030080e-08	5.485818e+01	6.712063e+02
1.800000e-06	7.634879e-06	1.020444e-08	5.456206e+01	6.695837e+02
1.810000e-06	7.590966e-06	1.018345e-08	5.424824e+01	6.678585e+02
1.820000e-06	7.544385e-06	1.022051e-08	5.391535e+01	6.660237e+02
1.830000e-06	7.495139e-06	1.013641e-08	5.356342e+01	6.640714e+02
1.840000e-06	7.442913e-06	1.016794e-08	5.319019e+01	6.619928e+02
1.850000e-06	7.387749e-06	1.007759e-08	5.279596e+01	6.597789e+02
1.860000e-06	7.329885e-06	1.003330e-08	5.238244e+01	6.574208e+02
1.870000e-06	7.269398e-06	9.999741e-09	5.195018e+01	6.549106e+02
1.880000e-06	7.206181e-06	9.934820e-09	5.149840e+01	6.522424e+02
1.890000e-06	7.140135e-06	9.979658e-09	5.102641e+01	6.494129e+02
1.900000e-06	7.071319e-06	9.885762e-09	5.053462e+01	6.464219e+02
1.910000e-06	6.999663e-06	9.855382e-09	5.002254e+01	6.432728e+02
1.920000e-06	6.925337e-06	9.785774e-09	4.949137e+01	6.399719e+02
1.930000e-06	6.848309e-06	9.717937e-09	4.894090e+01	6.365279e+02
1.940000e-06	6.768544e-06	9.680920e-09	4.837087e+01	6.329511e+02
1.950000e-06	6.686362e-06	9.595191e-09	4.778355e+01	6.292512e+02
1.960000e-06	6.601699e-06	9.586607e-09	4.717852e+01	6.254369e+02
1.970000e-06	6.514549e-06	9.501000e-09	4.655571e+01	6.215135e+02
1.980000e-06	6.425053e-06	9.453083e-09	4.591613e+01	6.174827e+02
1.990000e-06	6.333374e-06	9.387855e-09	4.526096e+01	6.133419e+02
2.000000e-06	6.239449e-06	9.309423e-09	4.458973e+01	6.090839e+02
2.010000e-06	6.143175e-06	9.235958e-09	4.390171e+01	6.046982e+02
2.020000e-06	6.044746e-06	9.153491e-09	4.319830e+01	6.001723e+02
2.030000e-06	5.944098e-06	9.103685e-09	4.247903e+01	5.954928e+02
2.040000e-06	5.841332e-06	9.024032e-09	4.174461e+01	5.906476e+02
2.050000e-06	5.736579e-06	8.958966e-09	4.099601e+01	5.856272e+02
2.060000e-06	5.629924e-06	8.863632e-09	4.023381e+01	5.804261e+02
2.070000e-06	5.521362e-06	8.775657e-09	3.945798e+01	5.750430e+02
2.080000e-06	5.410781e-06	8.683681e-09	3.866772e+01	5.694809e+02
2.090000e-06	5.298216e-06	8.606608e-09	3.786328e+01	5.637461e+02
2.100000e-06	5.183640e-06	8.526508e-09	3.704448e+01	5.578465e+02
2.110000e-06	5.066938e-06	8.435662e-09	3.621047e+01	5.517898e+02
2.120000e-06	4.948268e-06	8.340436e-09	3.536241e+01	5.455816e+02
2.130000e-06	4.827813e-06	8.234249e-09	3.450158e+01	5.392237e+02
2.140000e-06	4.705602e-06	8.132994e-09	3.362821e+01	5.327128e+02
2.150000e-06	4.581735e-06	8.029290e-09	3.274300e+01	5.260402e+02
2.160000e-06	4.456096e-06	7.933400e-09	3.184514e+01	5.191923e+02
2.170000e-06	4.328828e-06	7.824456e-09	3.093563e+01	5.121517e+02
2.180000e-06	4.199969e-06	7.714349e-09	3.001475e+01	5.048991e+02
2.190000e-06	4.069576e-06	7.596449e-09	2.908290e+01	4.974161e+02
2.200000e-06	3.937775e-06	7.478155e-09	2.814099e+01	4.896864e+02
2.210000e-06	3.804405e-06	7.351163e-09	2.718788e+01	4.816988e+02
2.220000e-06	3.669534e-06	7.223743e-09	2.622403e+01	4.734474e+02
2.230000e-06	3.533384e-06	7.096746e-09	2.525105e+01	4.649324e+02
2.240000e-06	3.395958e-06	6.967417e-09	2.426894e+01	4.561587e+02
2.250000e-06	3.257190e-06	6.834006e-09	2.327725e+01	4.471344e+02
2.260000e-06	3.117071e-06	6.693414e-09	2.227590e+01	4.378684e+02
2.270000e-06	2.975622e-06	6.547585e-09	2.126505e+01	4.283672e+02
2.280000e-06	2.833081e-06	6.394873e-09	2.024639e+01	4.186323e+02
2.290000e-06	2.689565e-06	6.244232e-09	1.922076e+01	4.086583e+02
2.300000e-06	2.545092e-06	6.091862e-09	1.818830e+01	3.984316e+02
2.310000e-06	2.399716e-06	5.934717e-09	1.714938e+01	3.879307e+02
2.320000e-06	2.253534e-06	5.766592e-09	1.610470e+01	3.771272e+02
2.330000e-06	2.106689e-06	5.591429e-09	1.505529e+01	3.659888e+02
2.340000e-06	1.959232e-06	5.412733e-09	1.400149e+01	3.544822e+02
2.350000e-06	1.811059e-06	5.232274e-09	1.294259e+01	3.425770e+02
2.360000e-06	1.662091e-06	5.048978e-09	1.187800e+01	3.302484e+02
2.370000e-06	1.512497e-06	4.856457e-09	1.080894e+01	3.174798e+02
2.380000e-06	1.362448e-06	4.656771e-09	9.736625e+00	3.042633e+02
2.390000e-06	1.212012e-06	4.448650e-09	8.661549e+00	2.905988e+02
2.400000e-06	1.061189e-06	4.230717e-09	7.583706e+00	2.764912e+02
2.410000e-06	9.100395e-07	4.005596e-09	6.503525e+00	2.619462e+02
2.420000e-06	7.587058e-07	3.776124e-09	5.422031e+00	2.469647e+02
2.430000e-06	6.071254e-07	3.542412e-09	4.338773e+00	2.315373e+02
2.440000e-06	4.553167e-07	3.299989e-09	3.253885e+00	2.156393e+02
2.450000e-06	3.033709e-07	3.048270e-09	2.168016e+00	1.992275e+02
2.460000e-06	1.512879e-07	2.787226e-09	1.081167e+00	1.822386e+02
2.470000e-06	-9.054480e-10	2.514382e-09	-6.470712e-03	1.645914e+02
2.480000e-06	-1.531061e-07	2.228960e-09	-1.094161e+00	1.461915e+02
2.490000e-06	-3.052480e-07	1.930636e-09	-2.181431e+00	1.269388e+02
2.500000e-06	-4.572850e-07	1.620870e-09	-3.267951e+00	1.067383e+02
2.510000e-06	-6.092007e-07	1.299410e-09	-4.353604e+00	8.551126e+01
2.520000e-06	-7.609627e-07	9.640380e-10	-5.438160e+00	6.320704e+01
2.530000e-06	-9.124695e-07	6.128256e-10	-6.520891e+00	3.981424e+01
2.540000e-06	-1.063697e-06	2.451270e-10	-7.601628e+00	1.536894e+01
2.550000e-06	-1.214601e-06	-1.375131e-10	-8.680050e+00	-1.004028e+01
2.560000e-06	-1.365115e-06	-5.352910e-10	-9.755687e+00	-3.627157e+01
2.570000e-06	-1.515215e-06	-9.464410e-10	-1.082836e+01	-6.313368e+01
2.580000e-06	-1.664799e-06	-1.368254e-09	-1.189735e+01	-9.039423e+01
2.590000e-06	-1.813698e-06	-1.794921e-09	-1.296145e+01	-1.177919e+02
2.600000e-06	-1.961758e-06	-2.219825e-09	-1.401955e+01	-1.450512e+02
2.610000e-06	-2.108958e-06	-2.636776e-09	-1.507150e+01	-1.718987e+02
2.620000e-06	-2.255396e-06	-3.038479e-09	-1.611801e+01	-1.980793e+02
2.630000e-06	-2.401044e-06	-3.422189e-09	-1.715887e+01	-2.233706e+02
2.640000e-06	-2.545827e-06	-3.788356e-09	-1.819355e+01	-2.475942e+02
2.650000e-06	-2.689664e-06	-4.136573e-09	-1.922147e+01	-2.706236e+02
2.660000e-06	-2.832452e-06	-4.465127e-09	-2.024189e+01	-2.923868e+02
2.670000e-06	-2.974106e-06	-4.774784e-09	-2.125421e+01	-3.128651e+02
2.680000e-06	-3.114522e-06	-5.067970e-09	-2.225769e+01	-3.320871e+02
2.690000e-06	-3.253643e-06	-5.344958e-09	-2.325190e+01	-3.501200e+02
2.700000e-06	-3.391500e-06	-5.605838e-09	-2.423708e+01	-3.670583e+02
2.710000e-06	-3.528089e-06	-5.853029e-09	-2.521321e+01	-3.830114e+02
2.720000e-06	-3.663412e-06	-6.089057e-09	-2.618028e+01	-3.980925e+02
2.730000e-06	-3.797468e-06	-6.314330e-09	-2.713830e+01	-4.124084e+02
2.740000e-06	-3.930138e-06	-6.527728e-09	-2.808642e+01	-4.260514e+02
2.750000e-06	-4.061381e-06	-6.730446e-09	-2.902434e+01	-4.390952e+02
2.760000e-06	-4.191240e-06	-6.922594e-09	-2.995236e+01	-4.515928e+02
2.770000e-06	-4.319684e-06	-7.104545e-09	-3.087028e+01	-4.635777e+02
2.780000e-06	-4.446662e-06	-7.275229e-09	-3.177772e+01	-4.750673e+02
2.790000e-06	-4.572104e-06	-7.436256e-09	-3.267418e+01	-4.860678e+02
2.800000e-06	-4.695882e-06	-7.593166e-09	-3.355875e+01	-4.965797e+02
2.810000e-06	-4.817996e-06	-7.746488e-09	-3.443142e+01	-5.066028e+02
2.820000e-06	-4.938433e-06	-7.893432e-09	-3.529212e+01	-5.161406e+02
2.830000e-06	-5.056973e-06	-8.032696e-09	-3.613926e+01	-5.252031e+02
2.840000e-06	-5.173435e-06	-8.166756e-09	-3.697154e+01	-5.338085e+02
2.850000e-06	-5.287782e-06	-8.296146e-09	-3.778872e+01	-5.419821e+02
2.860000e-06	-5.400012e-06	-8.415860e-09	-3.859076e+01	-5.497552e+02
2.870000e-06	-5.510143e-06	-8.526046e-09	-3.937780e+01	-5.571625e+02
2.880000e-06	-5.618300e-06	-8.631776e-09	-4.015074e+01	-5.642386e+02
2.890000e-06	-5.724614e-06	-8.735074e-09	-4.091050e+01	-5.710160e+02
2.900000e-06	-5.828921e-06	-8.835613e-09	-4.165592e+01	-5.775222e+02
2.910000e-06	-5.930994e-06	-8.930595e-09	-4.238538e+01	-5.837788e+02
2.920000e-06	-6.030823e-06	-9.021332e-09	-4.309880e+01	-5.898006e+02
2.930000e-06	-6.128515e-06	-9.109209e-09	-4.379695e+01	-5.955968e+02
2.940000e-06	-6.224088e-06	-9.193471e-09	-4.447995e+01	-6.011719e+02
