# Temperatura_=_45.42
# Concentracion g/m^3_=_10000.0
# C_Vs_to_Am_M_A/Vsm_=_65563218390.804596
# pendiente_HvsI_1/m_=_3716.3
# ordenada_HvsI_A/m_=_1297.0
# frecuencia_Hz_=_302617.4644978419

Tiempo_(s)	Campo_(V.s)	Magnetizacion_(V.s)	Campo_(kA/m)	Magnetizacion_(A/m)
0.000000e+00	-7.924736e-06	-8.760738e-09	-5.683796e+01	-5.742246e+02
1.000000e-08	-7.922716e-06	-8.761168e-09	-5.682348e+01	-5.740061e+02
2.000000e-08	-7.917962e-06	-8.760203e-09	-5.678938e+01	-5.736858e+02
3.000000e-08	-7.910626e-06	-8.755269e-09	-5.673676e+01	-5.732733e+02
4.000000e-08	-7.900554e-06	-8.746506e-09	-5.666452e+01	-5.727806e+02
5.000000e-08	-7.887589e-06	-8.735642e-09	-5.657154e+01	-5.722201e+02
6.000000e-08	-7.871710e-06	-8.726359e-09	-5.645765e+01	-5.716036e+02
7.000000e-08	-7.853225e-06	-8.718642e-09	-5.632507e+01	-5.709404e+02
8.000000e-08	-7.832528e-06	-8.717778e-09	-5.617663e+01	-5.702366e+02
9.000000e-08	-7.809266e-06	-8.722235e-09	-5.600979e+01	-5.694943e+02
1.000000e-07	-7.782855e-06	-8.729236e-09	-5.582036e+01	-5.687119e+02
1.100000e-07	-7.753243e-06	-8.698479e-09	-5.560797e+01	-5.678841e+02
1.200000e-07	-7.720774e-06	-8.655310e-09	-5.537510e+01	-5.670030e+02
1.300000e-07	-7.685611e-06	-8.630492e-09	-5.512291e+01	-5.660591e+02
1.400000e-07	-7.647980e-06	-8.600068e-09	-5.485301e+01	-5.650424e+02
1.500000e-07	-7.608235e-06	-8.571493e-09	-5.456795e+01	-5.639432e+02
1.600000e-07	-7.566278e-06	-8.582654e-09	-5.426702e+01	-5.627535e+02
1.700000e-07	-7.521708e-06	-8.586911e-09	-5.394736e+01	-5.614666e+02
1.800000e-07	-7.474429e-06	-8.532658e-09	-5.360826e+01	-5.600777e+02
1.900000e-07	-7.424345e-06	-8.506475e-09	-5.324905e+01	-5.585838e+02
2.000000e-07	-7.371211e-06	-8.475368e-09	-5.286796e+01	-5.569831e+02
2.100000e-07	-7.315223e-06	-8.430857e-09	-5.246640e+01	-5.552746e+02
2.200000e-07	-7.256592e-06	-8.433374e-09	-5.204589e+01	-5.534579e+02
2.300000e-07	-7.195335e-06	-8.415969e-09	-5.160654e+01	-5.515326e+02
2.400000e-07	-7.131462e-06	-8.369449e-09	-5.114842e+01	-5.494980e+02
2.500000e-07	-7.064844e-06	-8.331155e-09	-5.067063e+01	-5.473537e+02
2.600000e-07	-6.995524e-06	-8.291993e-09	-5.017345e+01	-5.450994e+02
2.700000e-07	-6.923569e-06	-8.260968e-09	-4.965737e+01	-5.427352e+02
2.800000e-07	-6.848881e-06	-8.232306e-09	-4.912169e+01	-5.402616e+02
2.900000e-07	-6.771393e-06	-8.203864e-09	-4.856593e+01	-5.376803e+02
3.000000e-07	-6.691128e-06	-8.164552e-09	-4.799025e+01	-5.349935e+02
3.100000e-07	-6.608357e-06	-8.121396e-09	-4.739660e+01	-5.322037e+02
3.200000e-07	-6.523371e-06	-8.071198e-09	-4.678706e+01	-5.293139e+02
3.300000e-07	-6.436133e-06	-8.014630e-09	-4.616137e+01	-5.263261e+02
3.400000e-07	-6.346549e-06	-7.974061e-09	-4.551885e+01	-5.232416e+02
3.500000e-07	-6.254654e-06	-7.922669e-09	-4.485977e+01	-5.200600e+02
3.600000e-07	-6.160554e-06	-7.876696e-09	-4.418486e+01	-5.167788e+02
3.700000e-07	-6.064251e-06	-7.838014e-09	-4.349415e+01	-5.133939e+02
3.800000e-07	-5.965638e-06	-7.785057e-09	-4.278687e+01	-5.098990e+02
3.900000e-07	-5.864795e-06	-7.720661e-09	-4.206361e+01	-5.062872e+02
4.000000e-07	-5.761874e-06	-7.657067e-09	-4.132543e+01	-5.025505e+02
4.100000e-07	-5.656917e-06	-7.600014e-09	-4.057266e+01	-4.986818e+02
4.200000e-07	-5.550012e-06	-7.539645e-09	-3.980591e+01	-4.946749e+02
4.300000e-07	-5.441171e-06	-7.485707e-09	-3.902528e+01	-4.905252e+02
4.400000e-07	-5.330383e-06	-7.428765e-09	-3.823069e+01	-4.862302e+02
4.500000e-07	-5.217656e-06	-7.359746e-09	-3.742219e+01	-4.817892e+02
4.600000e-07	-5.102906e-06	-7.275912e-09	-3.659917e+01	-4.772029e+02
4.700000e-07	-4.986178e-06	-7.194028e-09	-3.576197e+01	-4.724725e+02
4.800000e-07	-4.867592e-06	-7.124898e-09	-3.491145e+01	-4.675985e+02
4.900000e-07	-4.747196e-06	-7.057730e-09	-3.404794e+01	-4.625802e+02
5.000000e-07	-4.625053e-06	-6.984147e-09	-3.317191e+01	-4.574145e+02
5.100000e-07	-4.501236e-06	-6.902552e-09	-3.228386e+01	-4.520956e+02
5.200000e-07	-4.375778e-06	-6.816243e-09	-3.138405e+01	-4.466146e+02
5.300000e-07	-4.248671e-06	-6.723888e-09	-3.047241e+01	-4.409606e+02
5.400000e-07	-4.120007e-06	-6.629699e-09	-2.954960e+01	-4.351210e+02
5.500000e-07	-3.989888e-06	-6.535880e-09	-2.861636e+01	-4.290831e+02
5.600000e-07	-3.858308e-06	-6.442946e-09	-2.767264e+01	-4.228351e+02
5.700000e-07	-3.725250e-06	-6.346808e-09	-2.671832e+01	-4.163678e+02
5.800000e-07	-3.590764e-06	-6.245807e-09	-2.575376e+01	-4.096749e+02
5.900000e-07	-3.454907e-06	-6.138912e-09	-2.477936e+01	-4.027539e+02
6.000000e-07	-3.317707e-06	-6.027447e-09	-2.379533e+01	-3.956050e+02
6.100000e-07	-3.179206e-06	-5.912341e-09	-2.280197e+01	-3.882309e+02
6.200000e-07	-3.039382e-06	-5.795922e-09	-2.179912e+01	-3.806347e+02
6.300000e-07	-2.898185e-06	-5.681752e-09	-2.078642e+01	-3.728183e+02
6.400000e-07	-2.755810e-06	-5.563266e-09	-1.976528e+01	-3.647804e+02
6.500000e-07	-2.612416e-06	-5.436245e-09	-1.873682e+01	-3.565150e+02
6.600000e-07	-2.468024e-06	-5.301674e-09	-1.770122e+01	-3.480102e+02
6.700000e-07	-2.322790e-06	-5.164067e-09	-1.665956e+01	-3.392481e+02
6.800000e-07	-2.176788e-06	-5.023503e-09	-1.561240e+01	-3.302058e+02
6.900000e-07	-2.029982e-06	-4.878773e-09	-1.455948e+01	-3.208566e+02
7.000000e-07	-1.882493e-06	-4.731105e-09	-1.350166e+01	-3.111725e+02
7.100000e-07	-1.734499e-06	-4.578457e-09	-1.244021e+01	-3.011270e+02
7.200000e-07	-1.585969e-06	-4.417116e-09	-1.137492e+01	-2.906972e+02
7.300000e-07	-1.436886e-06	-4.249065e-09	-1.030566e+01	-2.798662e+02
7.400000e-07	-1.287325e-06	-4.078998e-09	-9.232982e+00	-2.686239e+02
7.500000e-07	-1.137373e-06	-3.904610e-09	-8.157488e+00	-2.569668e+02
7.600000e-07	-9.870767e-07	-3.724450e-09	-7.079532e+00	-2.448960e+02
7.700000e-07	-8.363668e-07	-3.536592e-09	-5.998608e+00	-2.324147e+02
7.800000e-07	-6.853509e-07	-3.340323e-09	-4.915489e+00	-2.195240e+02
7.900000e-07	-5.341219e-07	-3.136621e-09	-3.830841e+00	-2.062186e+02
8.000000e-07	-3.826939e-07	-2.925662e-09	-2.744765e+00	-1.924822e+02
8.100000e-07	-2.310942e-07	-2.707514e-09	-1.657459e+00	-1.782852e+02
8.200000e-07	-7.934220e-08	-2.481792e-09	-5.690599e-01	-1.635821e+02
8.300000e-07	7.244351e-08	-2.246712e-09	5.195809e-01	-1.483129e+02
8.400000e-07	2.242456e-07	-2.002384e-09	1.608339e+00	-1.324058e+02
8.500000e-07	3.760190e-07	-1.747556e-09	2.696892e+00	-1.157831e+02
8.600000e-07	5.276571e-07	-1.483049e-09	3.784473e+00	-9.836852e+01
8.700000e-07	6.791141e-07	-1.209302e-09	4.870757e+00	-8.009695e+01
8.800000e-07	8.303391e-07	-9.212048e-10	5.955376e+00	-6.092394e+01
8.900000e-07	9.812741e-07	-6.171451e-10	7.037915e+00	-4.083514e+01
9.000000e-07	1.131861e-06	-2.994968e-10	8.117960e+00	-1.985402e+01
9.100000e-07	1.282019e-06	2.976471e-11	9.194921e+00	1.953057e+00
9.200000e-07	1.431710e-06	3.717406e-10	1.026854e+01	2.447509e+01
9.300000e-07	1.580951e-06	7.250362e-10	1.133893e+01	4.755856e+01
9.400000e-07	1.729712e-06	1.085619e-09	1.240588e+01	7.101346e+01
9.500000e-07	1.877849e-06	1.448698e-09	1.346835e+01	9.462267e+01
9.600000e-07	2.025280e-06	1.810619e-09	1.452576e+01	1.181541e+02
9.700000e-07	2.171944e-06	2.168594e-09	1.557766e+01	1.413745e+02
9.800000e-07	2.317800e-06	2.516829e-09	1.662377e+01	1.640631e+02
9.900000e-07	2.462834e-06	2.850436e-09	1.766399e+01	1.860247e+02
1.000000e-06	2.606948e-06	3.169308e-09	1.869761e+01	2.071004e+02
1.010000e-06	2.750023e-06	3.471992e-09	1.972377e+01	2.271742e+02
1.020000e-06	2.892057e-06	3.756667e-09	2.074247e+01	2.461774e+02
1.030000e-06	3.032969e-06	4.024294e-09	2.175312e+01	2.640869e+02
1.040000e-06	3.172545e-06	4.277526e-09	2.275420e+01	2.809215e+02
1.050000e-06	3.310842e-06	4.518112e-09	2.374609e+01	2.967339e+02
1.060000e-06	3.447884e-06	4.745817e-09	2.472899e+01	3.116011e+02
1.070000e-06	3.583573e-06	4.962268e-09	2.570218e+01	3.256135e+02
1.080000e-06	3.717964e-06	5.167951e-09	2.666606e+01	3.388649e+02
1.090000e-06	3.851056e-06	5.361433e-09	2.762063e+01	3.514425e+02
1.100000e-06	3.982691e-06	5.543520e-09	2.856474e+01	3.634207e+02
1.110000e-06	4.112902e-06	5.718235e-09	2.949865e+01	3.748564e+02
1.120000e-06	4.241750e-06	5.885612e-09	3.042277e+01	3.857883e+02
1.130000e-06	4.369053e-06	6.043289e-09	3.133582e+01	3.962374e+02
1.140000e-06	4.494851e-06	6.193364e-09	3.223807e+01	4.062115e+02
1.150000e-06	4.619162e-06	6.336476e-09	3.312965e+01	4.157098e+02
1.160000e-06	4.741858e-06	6.473307e-09	3.400965e+01	4.247287e+02
1.170000e-06	4.862904e-06	6.602551e-09	3.487782e+01	4.332671e+02
1.180000e-06	4.982160e-06	6.723980e-09	3.573316e+01	4.413305e+02
1.190000e-06	5.099568e-06	6.838273e-09	3.657523e+01	4.489340e+02
1.200000e-06	5.215024e-06	6.946077e-09	3.740331e+01	4.561028e+02
1.210000e-06	5.328399e-06	7.049395e-09	3.821646e+01	4.628714e+02
1.220000e-06	5.439765e-06	7.148349e-09	3.901520e+01	4.692810e+02
1.230000e-06	5.549270e-06	7.243303e-09	3.980059e+01	4.753760e+02
1.240000e-06	5.656870e-06	7.333701e-09	4.057232e+01	4.811997e+02
1.250000e-06	5.762404e-06	7.419398e-09	4.132923e+01	4.867905e+02
1.260000e-06	5.865765e-06	7.502794e-09	4.207056e+01	4.921793e+02
1.270000e-06	5.966990e-06	7.583627e-09	4.279657e+01	4.973869e+02
1.280000e-06	6.066038e-06	7.659280e-09	4.350697e+01	5.024240e+02
1.290000e-06	6.162692e-06	7.730312e-09	4.420019e+01	5.072917e+02
1.300000e-06	6.257042e-06	7.798703e-09	4.487689e+01	5.119839e+02
1.310000e-06	6.349229e-06	7.865468e-09	4.553808e+01	5.164899e+02
1.320000e-06	6.439138e-06	7.929957e-09	4.618292e+01	5.207976e+02
1.330000e-06	6.526668e-06	7.991370e-09	4.681071e+01	5.248964e+02
1.340000e-06	6.611978e-06	8.049981e-09	4.742257e+01	5.287798e+02
1.350000e-06	6.695038e-06	8.107105e-09	4.801829e+01	5.324469e+02
1.360000e-06	6.775595e-06	8.161566e-09	4.859606e+01	5.359024e+02
1.370000e-06	6.853666e-06	8.211524e-09	4.915601e+01	5.391567e+02
1.380000e-06	6.929219e-06	8.257983e-09	4.969789e+01	5.422237e+02
1.390000e-06	7.002097e-06	8.302858e-09	5.022059e+01	5.451194e+02
1.400000e-06	7.072432e-06	8.346396e-09	5.072505e+01	5.478591e+02
1.410000e-06	7.140349e-06	8.387582e-09	5.121217e+01	5.504559e+02
1.420000e-06	7.205663e-06	8.424827e-09	5.168061e+01	5.529190e+02
1.430000e-06	7.268398e-06	8.458839e-09	5.213056e+01	5.552531e+02
1.440000e-06	7.328746e-06	8.490514e-09	5.256339e+01	5.574583e+02
1.450000e-06	7.386518e-06	8.519684e-09	5.297774e+01	5.595312e+02
1.460000e-06	7.441635e-06	8.548052e-09	5.337305e+01	5.614661e+02
1.470000e-06	7.493925e-06	8.575284e-09	5.374809e+01	5.632574e+02
1.480000e-06	7.543118e-06	8.601055e-09	5.410091e+01	5.649005e+02
1.490000e-06	7.589440e-06	8.623693e-09	5.443314e+01	5.663943e+02
1.500000e-06	7.633136e-06	8.642909e-09	5.474654e+01	5.677414e+02
1.510000e-06	7.674101e-06	8.662130e-09	5.504035e+01	5.689485e+02
1.520000e-06	7.712313e-06	8.681095e-09	5.531442e+01	5.700264e+02
1.530000e-06	7.747928e-06	8.697838e-09	5.556985e+01	5.709882e+02
1.540000e-06	7.780736e-06	8.712088e-09	5.580516e+01	5.718480e+02
1.550000e-06	7.810692e-06	8.724494e-09	5.602002e+01	5.726194e+02
1.560000e-06	7.837940e-06	8.735456e-09	5.621544e+01	5.733132e+02
1.570000e-06	7.862255e-06	8.744536e-09	5.638984e+01	5.739366e+02
1.580000e-06	7.883744e-06	8.752749e-09	5.654395e+01	5.744925e+02
1.590000e-06	7.902589e-06	8.761018e-09	5.667912e+01	5.749791e+02
1.600000e-06	7.918530e-06	8.768444e-09	5.679345e+01	5.753908e+02
1.610000e-06	7.931389e-06	8.772746e-09	5.688568e+01	5.757193e+02
1.620000e-06	7.941104e-06	8.774558e-09	5.695536e+01	5.759554e+02
1.630000e-06	7.947890e-06	8.776725e-09	5.700403e+01	5.760903e+02
1.640000e-06	7.951950e-06	8.778735e-09	5.703314e+01	5.761177e+02
1.650000e-06	7.953115e-06	8.779600e-09	5.704150e+01	5.760346e+02
1.660000e-06	7.951517e-06	8.779647e-09	5.703004e+01	5.758424e+02
1.670000e-06	7.947354e-06	8.774931e-09	5.700018e+01	5.755463e+02
1.680000e-06	7.940498e-06	8.770640e-09	5.695101e+01	5.751554e+02
1.690000e-06	7.930997e-06	8.764600e-09	5.688286e+01	5.746811e+02
1.700000e-06	7.918761e-06	8.757225e-09	5.679511e+01	5.741360e+02
1.710000e-06	7.903715e-06	8.749914e-09	5.668719e+01	5.735321e+02
1.720000e-06	7.886197e-06	8.738573e-09	5.656155e+01	5.728795e+02
1.730000e-06	7.866414e-06	8.710943e-09	5.641966e+01	5.721850e+02
1.740000e-06	7.844019e-06	8.666512e-09	5.625904e+01	5.714520e+02
1.750000e-06	7.818377e-06	8.638248e-09	5.607513e+01	5.706796e+02
1.760000e-06	7.789158e-06	8.656041e-09	5.586557e+01	5.698633e+02
1.770000e-06	7.756682e-06	8.665080e-09	5.563264e+01	5.689960e+02
1.780000e-06	7.721711e-06	8.666424e-09	5.538182e+01	5.680683e+02
1.790000e-06	7.684501e-06	8.666791e-09	5.511494e+01	5.670703e+02
1.800000e-06	7.645108e-06	8.643820e-09	5.483241e+01	5.659922e+02
1.810000e-06	7.603593e-06	8.607282e-09	5.453465e+01	5.648254e+02
1.820000e-06	7.559549e-06	8.592537e-09	5.421876e+01	5.635628e+02
1.830000e-06	7.512885e-06	8.588380e-09	5.388407e+01	5.621993e+02
1.840000e-06	7.463527e-06	8.583036e-09	5.353007e+01	5.607315e+02
1.850000e-06	7.411191e-06	8.578668e-09	5.315470e+01	5.591572e+02
1.860000e-06	7.356025e-06	8.511495e-09	5.275904e+01	5.574753e+02
1.870000e-06	7.298122e-06	8.478198e-09	5.234375e+01	5.556853e+02
1.880000e-06	7.237582e-06	8.446981e-09	5.190954e+01	5.537867e+02
1.890000e-06	7.174372e-06	8.410276e-09	5.145618e+01	5.517791e+02
1.900000e-06	7.108341e-06	8.413421e-09	5.098260e+01	5.496619e+02
1.910000e-06	7.039603e-06	8.375466e-09	5.048959e+01	5.474347e+02
1.920000e-06	6.968088e-06	8.336794e-09	4.997667e+01	5.450975e+02
1.930000e-06	6.893830e-06	8.278133e-09	4.944408e+01	5.426507e+02
1.940000e-06	6.816848e-06	8.225909e-09	4.889194e+01	5.400958e+02
1.950000e-06	6.737180e-06	8.190929e-09	4.832054e+01	5.374346e+02
1.960000e-06	6.655051e-06	8.154040e-09	4.773150e+01	5.346699e+02
1.970000e-06	6.570451e-06	8.137312e-09	4.712473e+01	5.318044e+02
1.980000e-06	6.483405e-06	8.081847e-09	4.650042e+01	5.288405e+02
1.990000e-06	6.394030e-06	8.041507e-09	4.585940e+01	5.257798e+02
2.000000e-06	6.302464e-06	7.984368e-09	4.520267e+01	5.226222e+02
2.010000e-06	6.208640e-06	7.908986e-09	4.452974e+01	5.193658e+02
2.020000e-06	6.112483e-06	7.857965e-09	4.384008e+01	5.160069e+02
2.030000e-06	6.014185e-06	7.810321e-09	4.313507e+01	5.125398e+02
2.040000e-06	5.913811e-06	7.771797e-09	4.241516e+01	5.089574e+02
2.050000e-06	5.811323e-06	7.716811e-09	4.168010e+01	5.052523e+02
2.060000e-06	5.706787e-06	7.663908e-09	4.093034e+01	5.014168e+02
2.070000e-06	5.600304e-06	7.589259e-09	4.016662e+01	4.974445e+02
2.080000e-06	5.491817e-06	7.509084e-09	3.938853e+01	4.933304e+02
2.090000e-06	5.381365e-06	7.441227e-09	3.859635e+01	4.890714e+02
2.100000e-06	5.268995e-06	7.389074e-09	3.779040e+01	4.846665e+02
2.110000e-06	5.154631e-06	7.336533e-09	3.697016e+01	4.801161e+02
2.120000e-06	5.038257e-06	7.263638e-09	3.613550e+01	4.754211e+02
2.130000e-06	4.919937e-06	7.184836e-09	3.528688e+01	4.705826e+02
2.140000e-06	4.799729e-06	7.099722e-09	3.442472e+01	4.656002e+02
2.150000e-06	4.677700e-06	7.018208e-09	3.354950e+01	4.604714e+02
2.160000e-06	4.554000e-06	6.937254e-09	3.266229e+01	4.551910e+02
2.170000e-06	4.428697e-06	6.864072e-09	3.176360e+01	4.497511e+02
2.180000e-06	4.301832e-06	6.783910e-09	3.085369e+01	4.441411e+02
2.190000e-06	4.173420e-06	6.694521e-09	2.993269e+01	4.383487e+02
2.200000e-06	4.043490e-06	6.597528e-09	2.900081e+01	4.323610e+02
2.210000e-06	3.912059e-06	6.497473e-09	2.805815e+01	4.261661e+02
2.220000e-06	3.779102e-06	6.397825e-09	2.710456e+01	4.197540e+02
2.230000e-06	3.644659e-06	6.300500e-09	2.614030e+01	4.131175e+02
2.240000e-06	3.508911e-06	6.204126e-09	2.516669e+01	4.062531e+02
2.250000e-06	3.371887e-06	6.103220e-09	2.418392e+01	3.991606e+02
2.260000e-06	3.233554e-06	5.993258e-09	2.319176e+01	3.918420e+02
2.270000e-06	3.093949e-06	5.871701e-09	2.219049e+01	3.843007e+02
2.280000e-06	2.953107e-06	5.746987e-09	2.118034e+01	3.765389e+02
2.290000e-06	2.811082e-06	5.621449e-09	2.016170e+01	3.685564e+02
2.300000e-06	2.667987e-06	5.500896e-09	1.913539e+01	3.603483e+02
2.310000e-06	2.523978e-06	5.379600e-09	1.810253e+01	3.519043e+02
2.320000e-06	2.379090e-06	5.253424e-09	1.706336e+01	3.432081e+02
2.330000e-06	2.233397e-06	5.116798e-09	1.601842e+01	3.342379e+02
2.340000e-06	2.086939e-06	4.970691e-09	1.496799e+01	3.249676e+02
2.350000e-06	1.939731e-06	4.819438e-09	1.391218e+01	3.153694e+02
2.360000e-06	1.791844e-06	4.666375e-09	1.285150e+01	3.054161e+02
2.370000e-06	1.643436e-06	4.511495e-09	1.178709e+01	2.950838e+02
2.380000e-06	1.494589e-06	4.350923e-09	1.071953e+01	2.843539e+02
2.390000e-06	1.345245e-06	4.183720e-09	9.648394e+00	2.732146e+02
2.400000e-06	1.195376e-06	4.007533e-09	8.573504e+00	2.616608e+02
2.410000e-06	1.045071e-06	3.822836e-09	7.495483e+00	2.496927e+02
2.420000e-06	8.944498e-07	3.632777e-09	6.415192e+00	2.373134e+02
2.430000e-06	7.435304e-07	3.439844e-09	5.332765e+00	2.245248e+02
2.440000e-06	5.923698e-07	3.243205e-09	4.248607e+00	2.113237e+02
2.450000e-06	4.410427e-07	3.039087e-09	3.163256e+00	1.976969e+02
2.460000e-06	2.895543e-07	2.823110e-09	2.076747e+00	1.836182e+02
2.470000e-06	1.379099e-07	2.595933e-09	9.891201e-01	1.690463e+02
2.480000e-06	-1.381530e-08	2.359748e-09	-9.908641e-02	1.539246e+02
2.490000e-06	-1.655533e-07	2.116054e-09	-1.187385e+00	1.381837e+02
2.500000e-06	-3.172544e-07	1.864434e-09	-2.275419e+00	1.217468e+02
2.510000e-06	-4.688418e-07	1.601098e-09	-3.362637e+00	1.045365e+02
2.520000e-06	-6.202745e-07	1.324709e-09	-4.448746e+00	8.648390e+01
2.530000e-06	-7.715197e-07	1.035300e-09	-5.533510e+00	6.753850e+01
2.540000e-06	-9.224864e-07	7.332025e-10	-6.616277e+00	4.767762e+01
2.550000e-06	-1.073096e-06	4.199587e-10	-7.696480e+00	2.691468e+01
2.560000e-06	-1.223344e-06	9.521041e-11	-8.774096e+00	5.305002e+00
2.570000e-06	-1.373158e-06	-2.411271e-10	-9.848593e+00	-1.705151e+01
2.580000e-06	-1.522467e-06	-5.897426e-10	-1.091947e+01	-4.001157e+01
2.590000e-06	-1.671312e-06	-9.482320e-10	-1.198702e+01	-6.339352e+01
2.600000e-06	-1.819641e-06	-1.312431e-09	-1.305087e+01	-8.698597e+01
2.610000e-06	-1.967214e-06	-1.680339e-09	-1.410930e+01	-1.105594e+02
2.620000e-06	-2.113896e-06	-2.045688e-09	-1.516133e+01	-1.338793e+02
2.630000e-06	-2.259778e-06	-2.400125e-09	-1.620762e+01	-1.567208e+02
2.640000e-06	-2.404920e-06	-2.737454e-09	-1.724862e+01	-1.788811e+02
2.650000e-06	-2.549192e-06	-3.056681e-09	-1.828337e+01	-2.001912e+02
2.660000e-06	-2.692385e-06	-3.360124e-09	-1.931038e+01	-2.205243e+02
2.670000e-06	-2.834488e-06	-3.649350e-09	-2.032958e+01	-2.397994e+02
2.680000e-06	-2.975508e-06	-3.923972e-09	-2.134100e+01	-2.579825e+02
2.690000e-06	-3.115291e-06	-4.183061e-09	-2.234356e+01	-2.750825e+02
2.700000e-06	-3.253796e-06	-4.427415e-09	-2.333695e+01	-2.911444e+02
2.710000e-06	-3.391094e-06	-4.660004e-09	-2.432168e+01	-3.062402e+02
2.720000e-06	-3.527110e-06	-4.884352e-09	-2.529722e+01	-3.204579e+02
2.730000e-06	-3.661801e-06	-5.099804e-09	-2.626325e+01	-3.338914e+02
2.740000e-06	-3.795235e-06	-5.300489e-09	-2.722027e+01	-3.466303e+02
2.750000e-06	-3.927254e-06	-5.484444e-09	-2.816713e+01	-3.587526e+02
2.760000e-06	-4.057814e-06	-5.658033e-09	-2.910354e+01	-3.703201e+02
2.770000e-06	-4.187080e-06	-5.825001e-09	-3.003066e+01	-3.813757e+02
2.780000e-06	-4.314879e-06	-5.983552e-09	-3.094727e+01	-3.919448e+02
2.790000e-06	-4.441154e-06	-6.133515e-09	-3.185294e+01	-4.020379e+02
2.800000e-06	-4.565975e-06	-6.275351e-09	-3.274819e+01	-4.116559e+02
2.810000e-06	-4.689162e-06	-6.413248e-09	-3.363171e+01	-4.207954e+02
2.820000e-06	-4.810709e-06	-6.547518e-09	-3.450347e+01	-4.294541e+02
2.830000e-06	-4.930469e-06	-6.675876e-09	-3.536242e+01	-4.376357e+02
2.840000e-06	-5.048265e-06	-6.797963e-09	-3.620728e+01	-4.453526e+02
2.850000e-06	-5.164070e-06	-6.912600e-09	-3.703785e+01	-4.526275e+02
2.860000e-06	-5.277773e-06	-7.019228e-09	-3.785336e+01	-4.594930e+02
2.870000e-06	-5.389322e-06	-7.116678e-09	-3.865341e+01	-4.659887e+02
2.880000e-06	-5.498812e-06	-7.208863e-09	-3.943870e+01	-4.721586e+02
2.890000e-06	-5.606457e-06	-7.298233e-09	-4.021075e+01	-4.780466e+02
2.900000e-06	-5.712294e-06	-7.383757e-09	-4.096984e+01	-4.836928e+02
2.910000e-06	-5.816018e-06	-7.466343e-09	-4.171377e+01	-4.891302e+02
2.920000e-06	-5.917424e-06	-7.546912e-09	-4.244108e+01	-4.943821e+02
2.930000e-06	-6.016706e-06	-7.627039e-09	-4.315315e+01	-4.994618e+02
2.940000e-06	-6.113888e-06	-7.705000e-09	-4.385016e+01	-5.043726e+02
