# Temperatura_=_55.58
# Concentracion g/m^3_=_10000.0
# C_Vs_to_Am_M_A/Vsm_=_65563218390.804596
# pendiente_HvsI_1/m_=_3716.3
# ordenada_HvsI_A/m_=_1297.0
# frecuencia_Hz_=_302625.303990731

Tiempo_(s)	Campo_(V.s)	Magnetizacion_(V.s)	Campo_(kA/m)	Magnetizacion_(A/m)
0.000000e+00	-7.931220e-06	-9.377909e-09	-5.683599e+01	-6.153867e+02
1.000000e-08	-7.929058e-06	-9.380577e-09	-5.682049e+01	-6.151280e+02
2.000000e-08	-7.924170e-06	-9.376838e-09	-5.678547e+01	-6.147529e+02
3.000000e-08	-7.916770e-06	-9.368087e-09	-5.673244e+01	-6.142744e+02
4.000000e-08	-7.906676e-06	-9.358319e-09	-5.666010e+01	-6.137068e+02
5.000000e-08	-7.893690e-06	-9.345484e-09	-5.656704e+01	-6.130645e+02
6.000000e-08	-7.877764e-06	-9.331422e-09	-5.645292e+01	-6.123597e+02
7.000000e-08	-7.859205e-06	-9.322321e-09	-5.631992e+01	-6.116008e+02
8.000000e-08	-7.838364e-06	-9.322597e-09	-5.617057e+01	-6.107919e+02
9.000000e-08	-7.814907e-06	-9.360486e-09	-5.600247e+01	-6.099319e+02
1.000000e-07	-7.788279e-06	-9.354381e-09	-5.581165e+01	-6.090152e+02
1.100000e-07	-7.758466e-06	-9.290115e-09	-5.559801e+01	-6.080322e+02
1.200000e-07	-7.725839e-06	-9.247245e-09	-5.536420e+01	-6.069710e+02
1.300000e-07	-7.690537e-06	-9.216208e-09	-5.511123e+01	-6.058189e+02
1.400000e-07	-7.652793e-06	-9.168466e-09	-5.484074e+01	-6.045633e+02
1.500000e-07	-7.612926e-06	-9.134613e-09	-5.455506e+01	-6.031939e+02
1.600000e-07	-7.570801e-06	-9.203420e-09	-5.425319e+01	-6.017028e+02
1.700000e-07	-7.526064e-06	-9.170372e-09	-5.393259e+01	-6.000853e+02
1.800000e-07	-7.478671e-06	-9.088993e-09	-5.359297e+01	-5.983398e+02
1.900000e-07	-7.428437e-06	-9.116493e-09	-5.323299e+01	-5.964675e+02
2.000000e-07	-7.375170e-06	-9.031126e-09	-5.285127e+01	-5.944714e+02
2.100000e-07	-7.319065e-06	-8.970237e-09	-5.244921e+01	-5.923555e+02
2.200000e-07	-7.260283e-06	-8.968984e-09	-5.202798e+01	-5.901242e+02
2.300000e-07	-7.198909e-06	-8.939130e-09	-5.158817e+01	-5.877815e+02
2.400000e-07	-7.134896e-06	-8.919897e-09	-5.112944e+01	-5.853302e+02
2.500000e-07	-7.068122e-06	-8.862948e-09	-5.065093e+01	-5.827725e+02
2.600000e-07	-6.998697e-06	-8.842665e-09	-5.015342e+01	-5.801092e+02
2.700000e-07	-6.926642e-06	-8.794644e-09	-4.963707e+01	-5.773407e+02
2.800000e-07	-6.851775e-06	-8.735988e-09	-4.910057e+01	-5.744667e+02
2.900000e-07	-6.774099e-06	-8.700881e-09	-4.854393e+01	-5.714868e+02
3.000000e-07	-6.693658e-06	-8.673437e-09	-4.796748e+01	-5.684004e+02
3.100000e-07	-6.610770e-06	-8.640063e-09	-4.737350e+01	-5.652073e+02
3.200000e-07	-6.525676e-06	-8.553511e-09	-4.676370e+01	-5.619066e+02
3.300000e-07	-6.438311e-06	-8.502905e-09	-4.613764e+01	-5.584975e+02
3.400000e-07	-6.348630e-06	-8.450804e-09	-4.549497e+01	-5.549780e+02
3.500000e-07	-6.256609e-06	-8.383349e-09	-4.483554e+01	-5.513454e+02
3.600000e-07	-6.162332e-06	-8.330140e-09	-4.415994e+01	-5.475957e+02
3.700000e-07	-6.065819e-06	-8.290552e-09	-4.346832e+01	-5.437241e+02
3.800000e-07	-5.967083e-06	-8.236761e-09	-4.276077e+01	-5.397248e+02
3.900000e-07	-5.866223e-06	-8.155182e-09	-4.203799e+01	-5.355920e+02
4.000000e-07	-5.763261e-06	-8.095574e-09	-4.130016e+01	-5.313203e+02
4.100000e-07	-5.658163e-06	-8.033800e-09	-4.054701e+01	-5.269052e+02
4.200000e-07	-5.551051e-06	-7.960993e-09	-3.977943e+01	-5.223438e+02
4.300000e-07	-5.442080e-06	-7.884881e-09	-3.899853e+01	-5.176350e+02
4.400000e-07	-5.331248e-06	-7.824410e-09	-3.820430e+01	-5.127791e+02
4.500000e-07	-5.218389e-06	-7.754575e-09	-3.739554e+01	-5.077780e+02
4.600000e-07	-5.103419e-06	-7.662038e-09	-3.657166e+01	-5.026338e+02
4.700000e-07	-4.986496e-06	-7.569848e-09	-3.573378e+01	-4.973480e+02
4.800000e-07	-4.867732e-06	-7.489277e-09	-3.488270e+01	-4.919205e+02
4.900000e-07	-4.747148e-06	-7.412631e-09	-3.401858e+01	-4.863487e+02
5.000000e-07	-4.624813e-06	-7.328752e-09	-3.314191e+01	-4.806266e+02
5.100000e-07	-4.500815e-06	-7.243223e-09	-3.225333e+01	-4.747449e+02
5.200000e-07	-4.375210e-06	-7.148393e-09	-3.135323e+01	-4.686912e+02
5.300000e-07	-4.247972e-06	-7.049235e-09	-3.044143e+01	-4.624509e+02
5.400000e-07	-4.119208e-06	-6.943980e-09	-2.951870e+01	-4.560086e+02
5.500000e-07	-3.988998e-06	-6.839173e-09	-2.858559e+01	-4.493496e+02
5.600000e-07	-3.857229e-06	-6.735020e-09	-2.764132e+01	-4.424614e+02
5.700000e-07	-3.723986e-06	-6.630318e-09	-2.668649e+01	-4.353351e+02
5.800000e-07	-3.589341e-06	-6.519862e-09	-2.572161e+01	-4.279662e+02
5.900000e-07	-3.453266e-06	-6.401096e-09	-2.474648e+01	-4.203546e+02
6.000000e-07	-3.315823e-06	-6.280769e-09	-2.376155e+01	-4.125039e+02
6.100000e-07	-3.177066e-06	-6.155650e-09	-2.276720e+01	-4.044200e+02
6.200000e-07	-3.037005e-06	-6.026076e-09	-2.176351e+01	-3.961092e+02
6.300000e-07	-2.895603e-06	-5.895373e-09	-2.075021e+01	-3.875758e+02
6.400000e-07	-2.753016e-06	-5.767234e-09	-1.972841e+01	-3.788197e+02
6.500000e-07	-2.609407e-06	-5.633217e-09	-1.869929e+01	-3.698353e+02
6.600000e-07	-2.464815e-06	-5.490543e-09	-1.766313e+01	-3.606096e+02
6.700000e-07	-2.319433e-06	-5.341701e-09	-1.662131e+01	-3.511230e+02
6.800000e-07	-2.173354e-06	-5.189102e-09	-1.557449e+01	-3.413498e+02
6.900000e-07	-2.026474e-06	-5.031079e-09	-1.452193e+01	-3.312605e+02
7.000000e-07	-1.878866e-06	-4.869760e-09	-1.346416e+01	-3.208246e+02
7.100000e-07	-1.730691e-06	-4.707451e-09	-1.240232e+01	-3.100135e+02
7.200000e-07	-1.581994e-06	-4.535646e-09	-1.133674e+01	-2.988032e+02
7.300000e-07	-1.432842e-06	-4.357001e-09	-1.026790e+01	-2.871767e+02
7.400000e-07	-1.283299e-06	-4.174332e-09	-9.196261e+00	-2.751247e+02
7.500000e-07	-1.133314e-06	-3.988002e-09	-8.121455e+00	-2.626454e+02
7.600000e-07	-9.828799e-07	-3.796730e-09	-7.043424e+00	-2.497421e+02
7.700000e-07	-8.321164e-07	-3.597900e-09	-5.963036e+00	-2.364196e+02
7.800000e-07	-6.809987e-07	-3.389695e-09	-4.880111e+00	-2.226805e+02
7.900000e-07	-5.295498e-07	-3.173977e-09	-3.794811e+00	-2.085194e+02
8.000000e-07	-3.778824e-07	-2.951425e-09	-2.707946e+00	-1.939189e+02
8.100000e-07	-2.260794e-07	-2.719593e-09	-1.620110e+00	-1.788463e+02
8.200000e-07	-7.416981e-08	-2.480123e-09	-5.315089e-01	-1.632521e+02
8.300000e-07	7.783547e-08	-2.230517e-09	5.577774e-01	-1.470707e+02
8.400000e-07	2.298052e-07	-1.971809e-09	1.646809e+00	-1.302247e+02
8.500000e-07	3.817012e-07	-1.703120e-09	2.735313e+00	-1.126307e+02
8.600000e-07	5.335072e-07	-1.423747e-09	3.823171e+00	-9.420836e+01
8.700000e-07	6.851437e-07	-1.134373e-09	4.909814e+00	-7.488996e+01
8.800000e-07	8.365632e-07	-8.305904e-10	5.994903e+00	-5.463131e+01
8.900000e-07	9.876276e-07	-5.115685e-10	7.077447e+00	-3.342123e+01
9.000000e-07	1.138294e-06	-1.789823e-10	8.157140e+00	-1.128955e+01
9.100000e-07	1.288556e-06	1.658681e-10	9.233933e+00	1.168807e+01
9.200000e-07	1.438347e-06	5.260358e-10	1.030735e+01	3.538892e+01
9.300000e-07	1.587678e-06	9.001872e-10	1.137747e+01	5.964613e+01
9.400000e-07	1.736500e-06	1.282148e-09	1.244395e+01	8.425567e+01
9.500000e-07	1.884679e-06	1.665032e-09	1.350581e+01	1.089868e+02
9.600000e-07	2.032187e-06	2.044049e-09	1.456287e+01	1.335954e+02
9.700000e-07	2.179011e-06	2.415236e-09	1.561503e+01	1.578383e+02
9.800000e-07	2.324969e-06	2.774167e-09	1.666098e+01	1.814878e+02
9.900000e-07	2.470027e-06	3.117651e-09	1.770048e+01	2.043453e+02
1.000000e-06	2.614292e-06	3.446823e-09	1.873430e+01	2.262515e+02
1.010000e-06	2.757518e-06	3.761497e-09	1.976067e+01	2.470934e+02
1.020000e-06	2.899523e-06	4.059990e-09	2.077830e+01	2.668074e+02
1.030000e-06	3.040386e-06	4.340358e-09	2.178773e+01	2.853776e+02
1.040000e-06	3.180011e-06	4.603237e-09	2.278830e+01	3.028306e+02
1.050000e-06	3.318399e-06	4.851329e-09	2.378001e+01	3.192275e+02
1.060000e-06	3.455570e-06	5.085743e-09	2.476299e+01	3.346528e+02
1.070000e-06	3.591392e-06	5.308522e-09	2.573630e+01	3.492037e+02
1.080000e-06	3.725823e-06	5.523171e-09	2.669965e+01	3.629792e+02
1.090000e-06	3.858938e-06	5.726398e-09	2.765357e+01	3.760707e+02
1.100000e-06	3.990686e-06	5.916772e-09	2.859769e+01	3.885554e+02
1.110000e-06	4.120996e-06	6.098769e-09	2.953150e+01	4.004923e+02
1.120000e-06	4.249907e-06	6.271187e-09	3.045530e+01	4.119210e+02
1.130000e-06	4.377334e-06	6.435544e-09	3.136845e+01	4.228638e+02
1.140000e-06	4.503233e-06	6.592181e-09	3.227066e+01	4.333292e+02
1.150000e-06	4.627590e-06	6.740381e-09	3.316181e+01	4.433174e+02
1.160000e-06	4.750327e-06	6.883298e-09	3.404136e+01	4.528258e+02
1.170000e-06	4.871400e-06	7.021282e-09	3.490898e+01	4.618540e+02
1.180000e-06	4.990683e-06	7.153940e-09	3.576378e+01	4.704080e+02
1.190000e-06	5.108105e-06	7.279380e-09	3.660523e+01	4.785030e+02
1.200000e-06	5.223550e-06	7.396413e-09	3.743252e+01	4.861632e+02
1.210000e-06	5.336951e-06	7.506879e-09	3.824517e+01	4.934212e+02
1.220000e-06	5.448367e-06	7.611853e-09	3.904359e+01	5.003152e+02
1.230000e-06	5.557855e-06	7.714304e-09	3.982819e+01	5.068858e+02
1.240000e-06	5.665403e-06	7.811803e-09	4.059889e+01	5.131721e+02
1.250000e-06	5.770915e-06	7.904460e-09	4.135501e+01	5.192080e+02
1.260000e-06	5.874312e-06	7.994611e-09	4.209596e+01	5.250204e+02
1.270000e-06	5.975505e-06	8.081186e-09	4.282111e+01	5.306271e+02
1.280000e-06	6.074450e-06	8.161725e-09	4.353017e+01	5.360372e+02
1.290000e-06	6.171107e-06	8.237968e-09	4.422282e+01	5.412522e+02
1.300000e-06	6.265491e-06	8.313186e-09	4.489919e+01	5.462679e+02
1.310000e-06	6.357623e-06	8.384904e-09	4.555942e+01	5.510775e+02
1.320000e-06	6.447485e-06	8.453048e-09	4.620338e+01	5.556742e+02
1.330000e-06	6.535041e-06	8.519892e-09	4.683081e+01	5.600537e+02
1.340000e-06	6.620322e-06	8.583748e-09	4.744195e+01	5.642160e+02
1.350000e-06	6.703359e-06	8.644196e-09	4.803700e+01	5.681658e+02
1.360000e-06	6.783992e-06	8.701647e-09	4.861482e+01	5.719128e+02
1.370000e-06	6.862066e-06	8.756004e-09	4.917431e+01	5.754701e+02
1.380000e-06	6.937525e-06	8.808519e-09	4.971506e+01	5.788525e+02
1.390000e-06	7.010392e-06	8.859533e-09	5.023723e+01	5.820744e+02
1.400000e-06	7.080807e-06	8.909835e-09	5.074183e+01	5.851478e+02
1.410000e-06	7.148722e-06	8.957495e-09	5.122852e+01	5.880806e+02
1.420000e-06	7.214010e-06	8.999307e-09	5.169638e+01	5.908760e+02
1.430000e-06	7.276813e-06	9.037942e-09	5.214643e+01	5.935322e+02
1.440000e-06	7.337159e-06	9.075298e-09	5.257888e+01	5.960433e+02
1.450000e-06	7.394923e-06	9.111864e-09	5.299282e+01	5.984011e+02
1.460000e-06	7.450082e-06	9.146640e-09	5.338810e+01	6.005968e+02
1.470000e-06	7.502355e-06	9.177516e-09	5.376269e+01	6.026233e+02
1.480000e-06	7.551503e-06	9.206523e-09	5.411489e+01	6.044768e+02
1.490000e-06	7.597801e-06	9.232605e-09	5.444667e+01	6.061584e+02
1.500000e-06	7.641420e-06	9.254725e-09	5.475924e+01	6.076743e+02
1.510000e-06	7.682244e-06	9.276073e-09	5.505179e+01	6.090355e+02
1.520000e-06	7.720339e-06	9.297488e-09	5.532479e+01	6.102570e+02
1.530000e-06	7.755815e-06	9.316929e-09	5.557901e+01	6.113556e+02
1.540000e-06	7.788517e-06	9.333792e-09	5.581336e+01	6.123481e+02
1.550000e-06	7.818447e-06	9.349002e-09	5.602784e+01	6.132491e+02
1.560000e-06	7.845659e-06	9.362944e-09	5.622285e+01	6.140691e+02
1.570000e-06	7.869939e-06	9.374315e-09	5.639684e+01	6.148137e+02
1.580000e-06	7.891374e-06	9.383981e-09	5.655044e+01	6.154827e+02
1.590000e-06	7.910099e-06	9.393828e-09	5.668463e+01	6.160707e+02
1.600000e-06	7.925958e-06	9.403536e-09	5.679828e+01	6.165686e+02
1.610000e-06	7.938728e-06	9.411469e-09	5.688979e+01	6.169647e+02
1.620000e-06	7.948291e-06	9.415400e-09	5.695832e+01	6.172474e+02
1.630000e-06	7.954913e-06	9.417562e-09	5.700577e+01	6.174069e+02
1.640000e-06	7.958824e-06	9.418563e-09	5.703380e+01	6.174369e+02
1.650000e-06	7.959899e-06	9.419603e-09	5.704150e+01	6.173358e+02
1.660000e-06	7.958195e-06	9.416768e-09	5.702929e+01	6.171073e+02
1.670000e-06	7.953838e-06	9.412946e-09	5.699807e+01	6.167597e+02
1.680000e-06	7.946795e-06	9.409338e-09	5.694760e+01	6.163052e+02
1.690000e-06	7.937173e-06	9.402724e-09	5.687864e+01	6.157580e+02
1.700000e-06	7.924820e-06	9.394349e-09	5.679012e+01	6.151327e+02
1.710000e-06	7.909657e-06	9.386906e-09	5.668146e+01	6.144420e+02
1.720000e-06	7.892011e-06	9.377603e-09	5.655501e+01	6.136956e+02
1.730000e-06	7.872126e-06	9.338997e-09	5.641251e+01	6.128986e+02
1.740000e-06	7.849622e-06	9.258749e-09	5.625124e+01	6.120512e+02
1.750000e-06	7.823801e-06	9.259512e-09	5.606621e+01	6.111489e+02
1.760000e-06	7.794404e-06	9.288424e-09	5.585555e+01	6.101830e+02
1.770000e-06	7.761830e-06	9.282797e-09	5.562211e+01	6.091421e+02
1.780000e-06	7.726799e-06	9.299715e-09	5.537108e+01	6.080134e+02
1.790000e-06	7.689399e-06	9.323733e-09	5.510307e+01	6.067842e+02
1.800000e-06	7.649815e-06	9.230887e-09	5.481940e+01	6.054436e+02
1.810000e-06	7.608229e-06	9.192106e-09	5.452139e+01	6.039830e+02
1.820000e-06	7.564113e-06	9.225076e-09	5.420526e+01	6.023969e+02
1.830000e-06	7.517358e-06	9.153798e-09	5.387020e+01	6.006829e+02
1.840000e-06	7.467869e-06	9.201198e-09	5.351556e+01	5.988416e+02
1.850000e-06	7.415363e-06	9.152631e-09	5.313929e+01	5.968756e+02
1.860000e-06	7.360005e-06	9.085851e-09	5.274260e+01	5.947887e+02
1.870000e-06	7.301940e-06	9.082042e-09	5.232649e+01	5.925854e+02
1.880000e-06	7.241238e-06	8.978866e-09	5.189150e+01	5.902696e+02
1.890000e-06	7.177840e-06	8.998365e-09	5.143718e+01	5.878448e+02
1.900000e-06	7.111681e-06	8.943643e-09	5.096308e+01	5.853130e+02
1.910000e-06	7.042761e-06	8.892974e-09	5.046919e+01	5.826756e+02
1.920000e-06	6.971019e-06	8.891100e-09	4.995508e+01	5.799329e+02
1.930000e-06	6.896643e-06	8.807948e-09	4.942209e+01	5.770848e+02
1.940000e-06	6.819513e-06	8.771509e-09	4.886937e+01	5.741309e+02
1.950000e-06	6.739662e-06	8.681790e-09	4.829715e+01	5.710707e+02
1.960000e-06	6.657410e-06	8.671461e-09	4.770772e+01	5.679038e+02
1.970000e-06	6.572703e-06	8.635408e-09	4.710070e+01	5.646296e+02
1.980000e-06	6.485522e-06	8.572636e-09	4.647595e+01	5.612472e+02
1.990000e-06	6.395972e-06	8.557489e-09	4.583423e+01	5.577550e+02
2.000000e-06	6.304254e-06	8.475459e-09	4.517697e+01	5.541505e+02
2.010000e-06	6.210280e-06	8.398002e-09	4.450354e+01	5.504300e+02
2.020000e-06	6.113978e-06	8.314390e-09	4.381343e+01	5.465889e+02
2.030000e-06	6.015520e-06	8.281831e-09	4.310787e+01	5.426216e+02
2.040000e-06	5.914936e-06	8.227559e-09	4.238708e+01	5.385222e+02
2.050000e-06	5.812238e-06	8.163970e-09	4.165113e+01	5.342852e+02
2.060000e-06	5.707497e-06	8.103473e-09	4.090054e+01	5.299058e+02
2.070000e-06	5.600883e-06	8.023746e-09	4.013654e+01	5.253807e+02
2.080000e-06	5.492361e-06	7.937144e-09	3.935886e+01	5.207082e+02
2.090000e-06	5.381819e-06	7.849422e-09	3.856670e+01	5.158884e+02
2.100000e-06	5.269296e-06	7.794198e-09	3.776035e+01	5.109230e+02
2.110000e-06	5.154825e-06	7.722670e-09	3.694004e+01	5.058138e+02
2.120000e-06	5.038366e-06	7.648344e-09	3.610548e+01	5.005628e+02
2.130000e-06	4.919867e-06	7.565576e-09	3.525630e+01	4.951704e+02
2.140000e-06	4.799445e-06	7.484378e-09	3.439334e+01	4.896346e+02
2.150000e-06	4.677320e-06	7.388684e-09	3.351818e+01	4.839503e+02
2.160000e-06	4.553547e-06	7.292915e-09	3.263122e+01	4.781091e+02
2.170000e-06	4.428078e-06	7.204511e-09	3.173209e+01	4.720992e+02
2.180000e-06	4.300973e-06	7.115846e-09	3.082124e+01	4.659065e+02
2.190000e-06	4.172294e-06	7.019845e-09	2.989911e+01	4.595156e+02
2.200000e-06	4.042141e-06	6.914251e-09	2.896642e+01	4.529116e+02
2.210000e-06	3.910482e-06	6.804539e-09	2.802294e+01	4.460811e+02
2.220000e-06	3.777299e-06	6.692176e-09	2.706853e+01	4.390144e+02
2.230000e-06	3.642653e-06	6.588461e-09	2.610365e+01	4.317059e+02
2.240000e-06	3.506736e-06	6.482325e-09	2.512965e+01	4.241542e+02
2.250000e-06	3.369612e-06	6.374164e-09	2.414701e+01	4.163623e+02
2.260000e-06	3.231184e-06	6.254173e-09	2.315502e+01	4.083356e+02
2.270000e-06	3.091434e-06	6.124610e-09	2.215355e+01	4.000805e+02
2.280000e-06	2.950411e-06	5.984457e-09	2.114297e+01	3.916020e+02
2.290000e-06	2.808219e-06	5.845146e-09	2.012401e+01	3.829014e+02
2.300000e-06	2.664952e-06	5.710772e-09	1.909733e+01	3.739745e+02
2.310000e-06	2.520761e-06	5.576500e-09	1.806405e+01	3.648102e+02
2.320000e-06	2.375728e-06	5.438436e-09	1.702473e+01	3.553905e+02
2.330000e-06	2.229928e-06	5.293854e-09	1.597990e+01	3.456911e+02
2.340000e-06	2.083387e-06	5.143461e-09	1.492978e+01	3.356832e+02
2.350000e-06	1.936071e-06	4.981921e-09	1.387410e+01	3.253363e+02
2.360000e-06	1.788071e-06	4.813833e-09	1.281351e+01	3.146210e+02
2.370000e-06	1.639479e-06	4.643132e-09	1.174869e+01	3.035119e+02
2.380000e-06	1.490414e-06	4.468745e-09	1.068047e+01	2.919901e+02
2.390000e-06	1.340944e-06	4.289284e-09	9.609352e+00	2.800444e+02
2.400000e-06	1.190964e-06	4.100377e-09	8.534574e+00	2.676713e+02
2.410000e-06	1.040509e-06	3.903149e-09	7.456398e+00	2.548730e+02
2.420000e-06	8.897488e-07	3.699566e-09	6.376036e+00	2.416544e+02
2.430000e-06	7.387502e-07	3.491648e-09	5.293964e+00	2.280191e+02
2.440000e-06	5.875106e-07	3.281616e-09	4.210165e+00	2.139640e+02
2.450000e-06	4.360638e-07	3.064473e-09	3.124881e+00	1.994753e+02
2.460000e-06	2.844592e-07	2.834960e-09	2.038465e+00	1.845242e+02
2.470000e-06	1.327284e-07	2.592587e-09	9.511459e-01	1.690655e+02
2.480000e-06	-1.909216e-08	2.340052e-09	-1.368165e-01	1.530373e+02
2.490000e-06	-1.709633e-07	2.079814e-09	-1.225142e+00	1.363646e+02
2.500000e-06	-3.227648e-07	1.811606e-09	-2.312968e+00	1.189650e+02
2.510000e-06	-4.744175e-07	1.534282e-09	-3.399728e+00	1.007562e+02
2.520000e-06	-6.259076e-07	1.245167e-09	-4.485322e+00	8.166654e+01
2.530000e-06	-7.772209e-07	9.422603e-10	-5.569649e+00	6.164494e+01
2.540000e-06	-9.283376e-07	6.248043e-10	-6.652568e+00	4.067113e+01
2.550000e-06	-1.079158e-06	2.935809e-10	-7.733365e+00	1.876410e+01
2.560000e-06	-1.229572e-06	-5.046067e-11	-8.811249e+00	-4.012225e+00
2.570000e-06	-1.379494e-06	-4.093651e-10	-9.885603e+00	-2.754677e+01
2.580000e-06	-1.528898e-06	-7.806268e-10	-1.095625e+01	-5.168323e+01
2.590000e-06	-1.677787e-06	-1.159085e-09	-1.202320e+01	-7.622598e+01
2.600000e-06	-1.826146e-06	-1.540374e-09	-1.308636e+01	-1.009499e+02
2.610000e-06	-1.973869e-06	-1.922422e-09	-1.414496e+01	-1.256127e+02
2.620000e-06	-2.120749e-06	-2.300431e-09	-1.519752e+01	-1.499697e+02
2.630000e-06	-2.266717e-06	-2.668247e-09	-1.624354e+01	-1.737880e+02
2.640000e-06	-2.411858e-06	-3.018966e-09	-1.728364e+01	-1.968606e+02
2.650000e-06	-2.556074e-06	-3.349966e-09	-1.831711e+01	-2.190176e+02
2.660000e-06	-2.699269e-06	-3.665455e-09	-1.934325e+01	-2.401340e+02
2.670000e-06	-2.841422e-06	-3.968532e-09	-2.036194e+01	-2.601338e+02
2.680000e-06	-2.982495e-06	-4.257987e-09	-2.137288e+01	-2.789894e+02
2.690000e-06	-3.122395e-06	-4.530476e-09	-2.237542e+01	-2.967177e+02
2.700000e-06	-3.261009e-06	-4.785081e-09	-2.336875e+01	-3.133720e+02
2.710000e-06	-3.398334e-06	-5.024116e-09	-2.435283e+01	-3.290318e+02
2.720000e-06	-3.534368e-06	-5.252366e-09	-2.532766e+01	-3.437924e+02
2.730000e-06	-3.669101e-06	-5.471683e-09	-2.629318e+01	-3.577533e+02
2.740000e-06	-3.802602e-06	-5.678820e-09	-2.724986e+01	-3.710084e+02
2.750000e-06	-3.934798e-06	-5.873188e-09	-2.819719e+01	-3.836390e+02
2.760000e-06	-4.065538e-06	-6.057444e-09	-2.913408e+01	-3.957089e+02
2.770000e-06	-4.194906e-06	-6.234013e-09	-3.006115e+01	-4.072625e+02
2.780000e-06	-4.322795e-06	-6.404243e-09	-3.097762e+01	-4.183260e+02
2.790000e-06	-4.449155e-06	-6.564816e-09	-3.188313e+01	-4.289110e+02
2.800000e-06	-4.574049e-06	-6.715903e-09	-3.277813e+01	-4.390193e+02
2.810000e-06	-4.697285e-06	-6.859124e-09	-3.366126e+01	-4.486483e+02
2.820000e-06	-4.818800e-06	-6.996094e-09	-3.453204e+01	-4.577967e+02
2.830000e-06	-4.938554e-06	-7.127094e-09	-3.539021e+01	-4.664688e+02
2.840000e-06	-5.056421e-06	-7.252143e-09	-3.623486e+01	-4.746772e+02
2.850000e-06	-5.172264e-06	-7.371770e-09	-3.706501e+01	-4.824438e+02
2.860000e-06	-5.285976e-06	-7.486581e-09	-3.787988e+01	-4.897994e+02
2.870000e-06	-5.397605e-06	-7.594949e-09	-3.867982e+01	-4.967811e+02
2.880000e-06	-5.507238e-06	-7.698457e-09	-3.946547e+01	-5.034293e+02
2.890000e-06	-5.614932e-06	-7.799322e-09	-4.023722e+01	-5.097837e+02
2.900000e-06	-5.720726e-06	-7.893806e-09	-4.099535e+01	-5.158799e+02
2.910000e-06	-5.824448e-06	-7.982802e-09	-4.173863e+01	-5.217466e+02
2.920000e-06	-5.925955e-06	-8.065555e-09	-4.246604e+01	-5.274041e+02
2.930000e-06	-6.025312e-06	-8.144787e-09	-4.317804e+01	-5.328635e+02
2.940000e-06	-6.122535e-06	-8.222686e-09	-4.387475e+01	-5.381279e+02
