# Temperatura_=_28.12
# Concentracion g/m^3_=_10000.0
# C_Vs_to_Am_M_A/Vsm_=_65563218390.804596
# pendiente_HvsI_1/m_=_3716.3
# ordenada_HvsI_A/m_=_1297.0
# frecuencia_Hz_=_302612.86329288123

Tiempo_(s)	Campo_(V.s)	Magnetizacion_(V.s)	Campo_(kA/m)	Magnetizacion_(A/m)
0.000000e+00	-7.860832e-06	-8.100919e-09	-5.684003e+01	-5.311189e+02
1.000000e-08	-7.858678e-06	-8.101414e-09	-5.682445e+01	-5.309113e+02
2.000000e-08	-7.853776e-06	-8.098436e-09	-5.678900e+01	-5.306053e+02
3.000000e-08	-7.846362e-06	-8.091904e-09	-5.673539e+01	-5.302141e+02
4.000000e-08	-7.836271e-06	-8.083954e-09	-5.666243e+01	-5.297534e+02
5.000000e-08	-7.823381e-06	-8.073501e-09	-5.656922e+01	-5.292400e+02
6.000000e-08	-7.807605e-06	-8.061280e-09	-5.645515e+01	-5.286893e+02
7.000000e-08	-7.789166e-06	-8.050869e-09	-5.632182e+01	-5.281131e+02
8.000000e-08	-7.768471e-06	-8.045116e-09	-5.617218e+01	-5.275182e+02
9.000000e-08	-7.745227e-06	-8.059491e-09	-5.600411e+01	-5.269051e+02
1.000000e-07	-7.718831e-06	-8.082694e-09	-5.581324e+01	-5.262683e+02
1.100000e-07	-7.689274e-06	-8.051622e-09	-5.559952e+01	-5.255964e+02
1.200000e-07	-7.656972e-06	-8.005888e-09	-5.536595e+01	-5.248739e+02
1.300000e-07	-7.622007e-06	-7.976346e-09	-5.511313e+01	-5.240832e+02
1.400000e-07	-7.584573e-06	-7.932614e-09	-5.484246e+01	-5.232063e+02
1.500000e-07	-7.545032e-06	-7.899947e-09	-5.455654e+01	-5.222273e+02
1.600000e-07	-7.503283e-06	-7.940420e-09	-5.425466e+01	-5.211340e+02
1.700000e-07	-7.458921e-06	-7.967864e-09	-5.393389e+01	-5.199188e+02
1.800000e-07	-7.411931e-06	-7.898984e-09	-5.359411e+01	-5.185796e+02
1.900000e-07	-7.362173e-06	-7.877052e-09	-5.323433e+01	-5.171191e+02
2.000000e-07	-7.309371e-06	-7.839877e-09	-5.285252e+01	-5.155443e+02
2.100000e-07	-7.253777e-06	-7.765321e-09	-5.245053e+01	-5.138648e+02
2.200000e-07	-7.195480e-06	-7.766228e-09	-5.202900e+01	-5.120912e+02
2.300000e-07	-7.134582e-06	-7.769397e-09	-5.158866e+01	-5.102338e+02
2.400000e-07	-7.071182e-06	-7.748763e-09	-5.113023e+01	-5.083012e+02
2.500000e-07	-7.005043e-06	-7.708902e-09	-5.065200e+01	-5.062989e+02
2.600000e-07	-6.936195e-06	-7.681619e-09	-5.015417e+01	-5.042295e+02
2.700000e-07	-6.864742e-06	-7.659510e-09	-4.963751e+01	-5.020922e+02
2.800000e-07	-6.790525e-06	-7.606710e-09	-4.910086e+01	-4.998838e+02
2.900000e-07	-6.713550e-06	-7.579404e-09	-4.854427e+01	-4.975991e+02
3.000000e-07	-6.633865e-06	-7.559409e-09	-4.796808e+01	-4.952322e+02
3.100000e-07	-6.551622e-06	-7.522599e-09	-4.737340e+01	-4.927771e+02
3.200000e-07	-6.467163e-06	-7.471401e-09	-4.676269e+01	-4.902287e+02
3.300000e-07	-6.380458e-06	-7.422590e-09	-4.613575e+01	-4.875831e+02
3.400000e-07	-6.291438e-06	-7.378325e-09	-4.549206e+01	-4.848376e+02
3.500000e-07	-6.200160e-06	-7.317332e-09	-4.483205e+01	-4.819905e+02
3.600000e-07	-6.106649e-06	-7.282081e-09	-4.415590e+01	-4.790406e+02
3.700000e-07	-6.010947e-06	-7.257796e-09	-4.346389e+01	-4.759869e+02
3.800000e-07	-5.912968e-06	-7.216645e-09	-4.275543e+01	-4.728277e+02
3.900000e-07	-5.812805e-06	-7.160678e-09	-4.203117e+01	-4.695602e+02
4.000000e-07	-5.710649e-06	-7.103509e-09	-4.129250e+01	-4.661807e+02
4.100000e-07	-5.606497e-06	-7.045813e-09	-4.053940e+01	-4.626843e+02
4.200000e-07	-5.500340e-06	-6.979873e-09	-3.977180e+01	-4.590655e+02
4.300000e-07	-5.392258e-06	-6.933615e-09	-3.899029e+01	-4.553186e+02
4.400000e-07	-5.282334e-06	-6.892747e-09	-3.819545e+01	-4.514381e+02
4.500000e-07	-5.170498e-06	-6.833808e-09	-3.738679e+01	-4.474196e+02
4.600000e-07	-5.056615e-06	-6.756883e-09	-3.656332e+01	-4.432596e+02
4.700000e-07	-4.940724e-06	-6.683278e-09	-3.572534e+01	-4.389558e+02
4.800000e-07	-4.822926e-06	-6.615414e-09	-3.487356e+01	-4.345069e+02
4.900000e-07	-4.703355e-06	-6.547723e-09	-3.400897e+01	-4.299121e+02
5.000000e-07	-4.582105e-06	-6.481997e-09	-3.313224e+01	-4.251703e+02
5.100000e-07	-4.459153e-06	-6.409060e-09	-3.224319e+01	-4.202796e+02
5.200000e-07	-4.334552e-06	-6.329387e-09	-3.134223e+01	-4.152366e+02
5.300000e-07	-4.208363e-06	-6.248679e-09	-3.042979e+01	-4.100361e+02
5.400000e-07	-4.080691e-06	-6.167595e-09	-2.950662e+01	-4.046713e+02
5.500000e-07	-3.951563e-06	-6.078134e-09	-2.857292e+01	-3.991334e+02
5.600000e-07	-3.820904e-06	-5.988687e-09	-2.762815e+01	-3.934131e+02
5.700000e-07	-3.688673e-06	-5.903382e-09	-2.667202e+01	-3.875008e+02
5.800000e-07	-3.554997e-06	-5.812021e-09	-2.570543e+01	-3.813876e+02
5.900000e-07	-3.420105e-06	-5.711533e-09	-2.473006e+01	-3.750661e+02
6.000000e-07	-3.284005e-06	-5.610220e-09	-2.374595e+01	-3.685310e+02
6.100000e-07	-3.146597e-06	-5.506576e-09	-2.275238e+01	-3.617786e+02
6.200000e-07	-3.007912e-06	-5.396094e-09	-2.174958e+01	-3.548072e+02
6.300000e-07	-2.867967e-06	-5.288138e-09	-2.073767e+01	-3.476156e+02
6.400000e-07	-2.726812e-06	-5.183175e-09	-1.971701e+01	-3.402021e+02
6.500000e-07	-2.584566e-06	-5.072500e-09	-1.868845e+01	-3.325636e+02
6.600000e-07	-2.441320e-06	-4.950144e-09	-1.765267e+01	-3.246940e+02
6.700000e-07	-2.297147e-06	-4.820943e-09	-1.661019e+01	-3.165834e+02
6.800000e-07	-2.152102e-06	-4.688842e-09	-1.556140e+01	-3.082179e+02
6.900000e-07	-2.006282e-06	-4.552624e-09	-1.450701e+01	-2.995797e+02
7.000000e-07	-1.859807e-06	-4.415696e-09	-1.344787e+01	-2.906483e+02
7.100000e-07	-1.712767e-06	-4.276459e-09	-1.238466e+01	-2.814016e+02
7.200000e-07	-1.565238e-06	-4.128306e-09	-1.131791e+01	-2.718182e+02
7.300000e-07	-1.417290e-06	-3.972050e-09	-1.024812e+01	-2.618787e+02
7.400000e-07	-1.268935e-06	-3.814557e-09	-9.175401e+00	-2.515677e+02
7.500000e-07	-1.120128e-06	-3.656923e-09	-8.099413e+00	-2.408745e+02
7.600000e-07	-9.709145e-07	-3.494051e-09	-7.020479e+00	-2.297932e+02
7.700000e-07	-8.213952e-07	-3.321743e-09	-5.939336e+00	-2.183219e+02
7.800000e-07	-6.716333e-07	-3.139375e-09	-4.856439e+00	-2.064603e+02
7.900000e-07	-5.216892e-07	-2.949653e-09	-3.772225e+00	-1.942077e+02
8.000000e-07	-3.715839e-07	-2.755823e-09	-2.686845e+00	-1.815594e+02
8.100000e-07	-2.213144e-07	-2.557954e-09	-1.600278e+00	-1.685037e+02
8.200000e-07	-7.096161e-08	-2.351704e-09	-5.131085e-01	-1.550200e+02
8.300000e-07	7.939086e-08	-2.137670e-09	5.740586e-01	-1.410771e+02
8.400000e-07	2.297707e-07	-1.916783e-09	1.661424e+00	-1.266336e+02
8.500000e-07	3.801124e-07	-1.689031e-09	2.748513e+00	-1.116405e+02
8.600000e-07	5.303556e-07	-1.452952e-09	3.834890e+00	-9.604495e+01
8.700000e-07	6.804831e-07	-1.207190e-09	4.920430e+00	-7.979609e+01
8.800000e-07	8.304082e-07	-9.517761e-10	6.004507e+00	-6.285191e+01
8.900000e-07	9.800952e-07	-6.846579e-10	7.086862e+00	-4.518667e+01
9.000000e-07	1.129538e-06	-4.083335e-10	8.167455e+00	-2.679783e+01
9.100000e-07	1.278606e-06	-1.221997e-10	9.245333e+00	-7.711936e+00
9.200000e-07	1.427174e-06	1.756830e-10	1.031959e+01	1.201159e+01
9.300000e-07	1.575272e-06	4.850887e-10	1.139046e+01	3.227923e+01
9.400000e-07	1.722852e-06	8.042516e-10	1.245758e+01	5.296509e+01
9.500000e-07	1.869837e-06	1.127624e-09	1.352040e+01	7.391559e+01
9.600000e-07	2.016184e-06	1.451433e-09	1.457860e+01	9.495682e+01
9.700000e-07	2.161775e-06	1.773751e-09	1.563134e+01	1.159040e+02
9.800000e-07	2.306473e-06	2.091311e-09	1.667762e+01	1.365720e+02
9.900000e-07	2.450258e-06	2.399842e-09	1.771730e+01	1.567861e+02
1.000000e-06	2.593099e-06	2.697781e-09	1.875016e+01	1.763919e+02
1.010000e-06	2.734930e-06	2.982224e-09	1.977570e+01	1.952634e+02
1.020000e-06	2.875704e-06	3.251569e-09	2.079361e+01	2.133083e+02
1.030000e-06	3.015263e-06	3.508108e-09	2.180273e+01	2.304704e+02
1.040000e-06	3.153520e-06	3.753934e-09	2.280244e+01	2.467289e+02
1.050000e-06	3.290561e-06	3.988565e-09	2.379335e+01	2.620949e+02
1.060000e-06	3.426379e-06	4.209082e-09	2.477543e+01	2.766052e+02
1.070000e-06	3.560927e-06	4.417723e-09	2.574831e+01	2.903145e+02
1.080000e-06	3.694253e-06	4.616625e-09	2.671237e+01	3.032878e+02
1.090000e-06	3.826312e-06	4.805369e-09	2.766725e+01	3.155919e+02
1.100000e-06	3.956893e-06	4.984527e-09	2.861146e+01	3.272892e+02
1.110000e-06	4.085966e-06	5.155264e-09	2.954476e+01	3.384326e+02
1.120000e-06	4.213655e-06	5.317365e-09	3.046806e+01	3.490624e+02
1.130000e-06	4.339932e-06	5.470629e-09	3.138114e+01	3.592066e+02
1.140000e-06	4.464790e-06	5.617641e-09	3.228396e+01	3.688816e+02
1.150000e-06	4.588067e-06	5.757823e-09	3.317534e+01	3.780958e+02
1.160000e-06	4.709634e-06	5.889924e-09	3.405438e+01	3.868534e+02
1.170000e-06	4.829572e-06	6.014499e-09	3.492162e+01	3.951585e+02
1.180000e-06	4.947801e-06	6.133261e-09	3.577651e+01	4.030188e+02
1.190000e-06	5.064178e-06	6.246497e-09	3.661800e+01	4.104482e+02
1.200000e-06	5.178520e-06	6.352078e-09	3.744479e+01	4.174682e+02
1.210000e-06	5.290872e-06	6.451813e-09	3.825718e+01	4.241074e+02
1.220000e-06	5.401339e-06	6.548420e-09	3.905595e+01	4.304001e+02
1.230000e-06	5.509997e-06	6.642295e-09	3.984163e+01	4.363839e+02
1.240000e-06	5.616663e-06	6.731582e-09	4.061291e+01	4.420957e+02
1.250000e-06	5.721180e-06	6.815591e-09	4.136865e+01	4.475693e+02
1.260000e-06	5.823630e-06	6.896048e-09	4.210944e+01	4.528321e+02
1.270000e-06	5.923951e-06	6.972719e-09	4.283484e+01	4.579033e+02
1.280000e-06	6.021943e-06	7.044358e-09	4.354340e+01	4.627935e+02
1.290000e-06	6.117586e-06	7.113167e-09	4.423498e+01	4.675046e+02
1.300000e-06	6.211145e-06	7.180884e-09	4.491149e+01	4.720321e+02
1.310000e-06	6.302572e-06	7.245912e-09	4.557257e+01	4.763668e+02
1.320000e-06	6.391665e-06	7.307669e-09	4.621679e+01	4.804986e+02
1.330000e-06	6.478436e-06	7.366551e-09	4.684421e+01	4.844182e+02
1.340000e-06	6.562990e-06	7.422383e-09	4.745560e+01	4.881207e+02
1.350000e-06	6.645238e-06	7.475702e-09	4.805032e+01	4.916059e+02
1.360000e-06	6.725014e-06	7.525077e-09	4.862717e+01	4.948800e+02
1.370000e-06	6.802366e-06	7.570717e-09	4.918648e+01	4.979544e+02
1.380000e-06	6.877105e-06	7.614427e-09	4.972690e+01	5.008445e+02
1.390000e-06	6.949155e-06	7.656952e-09	5.024788e+01	5.035681e+02
1.400000e-06	7.018792e-06	7.698339e-09	5.075141e+01	5.061425e+02
1.410000e-06	7.086038e-06	7.737590e-09	5.123765e+01	5.085826e+02
1.420000e-06	7.150711e-06	7.774241e-09	5.170529e+01	5.108995e+02
1.430000e-06	7.212896e-06	7.807576e-09	5.215494e+01	5.130991e+02
1.440000e-06	7.272689e-06	7.839576e-09	5.258728e+01	5.151821e+02
1.450000e-06	7.329883e-06	7.870916e-09	5.300084e+01	5.171448e+02
1.460000e-06	7.384437e-06	7.899536e-09	5.339531e+01	5.189809e+02
1.470000e-06	7.436106e-06	7.923004e-09	5.376892e+01	5.206829e+02
1.480000e-06	7.484678e-06	7.943643e-09	5.412013e+01	5.222446e+02
1.490000e-06	7.530464e-06	7.963688e-09	5.445120e+01	5.236626e+02
1.500000e-06	7.573662e-06	7.983590e-09	5.476356e+01	5.249378e+02
1.510000e-06	7.614103e-06	8.004363e-09	5.505598e+01	5.260759e+02
1.520000e-06	7.651826e-06	8.024554e-09	5.532875e+01	5.270871e+02
1.530000e-06	7.686963e-06	8.043001e-09	5.558282e+01	5.279849e+02
1.540000e-06	7.719316e-06	8.058659e-09	5.581675e+01	5.287847e+02
1.550000e-06	7.748931e-06	8.070222e-09	5.603089e+01	5.295013e+02
1.560000e-06	7.775866e-06	8.078758e-09	5.622565e+01	5.301476e+02
1.570000e-06	7.799912e-06	8.085637e-09	5.639952e+01	5.307322e+02
1.580000e-06	7.821154e-06	8.091930e-09	5.655312e+01	5.312589e+02
1.590000e-06	7.839653e-06	8.099128e-09	5.668688e+01	5.317260e+02
1.600000e-06	7.855222e-06	8.106728e-09	5.679946e+01	5.321272e+02
1.610000e-06	7.867794e-06	8.113223e-09	5.689036e+01	5.324528e+02
1.620000e-06	7.877295e-06	8.117345e-09	5.695906e+01	5.326915e+02
1.630000e-06	7.883883e-06	8.120517e-09	5.700670e+01	5.328325e+02
1.640000e-06	7.887712e-06	8.123135e-09	5.703439e+01	5.328679e+02
1.650000e-06	7.888696e-06	8.124780e-09	5.704150e+01	5.327938e+02
1.660000e-06	7.886967e-06	8.123639e-09	5.702900e+01	5.326119e+02
1.670000e-06	7.882672e-06	8.118021e-09	5.699795e+01	5.323291e+02
1.680000e-06	7.875774e-06	8.115134e-09	5.694806e+01	5.319574e+02
1.690000e-06	7.866239e-06	8.110749e-09	5.687912e+01	5.315121e+02
1.700000e-06	7.853956e-06	8.104495e-09	5.679031e+01	5.310099e+02
1.710000e-06	7.838908e-06	8.100641e-09	5.668150e+01	5.304668e+02
1.720000e-06	7.821384e-06	8.096712e-09	5.655478e+01	5.298958e+02
1.730000e-06	7.801618e-06	8.081083e-09	5.641186e+01	5.293048e+02
1.740000e-06	7.779302e-06	8.023613e-09	5.625050e+01	5.286962e+02
1.750000e-06	7.753761e-06	7.990977e-09	5.606581e+01	5.280658e+02
1.760000e-06	7.724603e-06	8.015529e-09	5.585498e+01	5.274036e+02
1.770000e-06	7.692216e-06	8.022157e-09	5.562080e+01	5.266950e+02
1.780000e-06	7.657400e-06	8.032639e-09	5.536905e+01	5.259226e+02
1.790000e-06	7.620350e-06	8.060164e-09	5.510115e+01	5.250685e+02
1.800000e-06	7.581100e-06	8.040132e-09	5.481734e+01	5.241160e+02
1.810000e-06	7.539779e-06	7.965147e-09	5.451856e+01	5.230517e+02
1.820000e-06	7.496007e-06	7.961535e-09	5.420205e+01	5.218670e+02
1.830000e-06	7.449657e-06	7.951621e-09	5.386690e+01	5.205584e+02
1.840000e-06	7.400580e-06	7.942511e-09	5.351204e+01	5.191273e+02
1.850000e-06	7.348551e-06	7.976973e-09	5.313583e+01	5.175799e+02
1.860000e-06	7.293712e-06	7.912261e-09	5.273930e+01	5.159252e+02
1.870000e-06	7.236101e-06	7.870670e-09	5.232273e+01	5.141737e+02
1.880000e-06	7.175918e-06	7.800303e-09	5.188755e+01	5.123360e+02
1.890000e-06	7.113122e-06	7.766183e-09	5.143349e+01	5.104211e+02
1.900000e-06	7.047540e-06	7.783114e-09	5.095928e+01	5.084355e+02
1.910000e-06	6.979260e-06	7.729587e-09	5.046556e+01	5.063824e+02
1.920000e-06	6.908202e-06	7.735469e-09	4.995175e+01	5.042620e+02
1.930000e-06	6.834492e-06	7.669965e-09	4.941878e+01	5.020713e+02
1.940000e-06	6.758097e-06	7.614692e-09	4.886638e+01	4.998059e+02
1.950000e-06	6.678956e-06	7.589862e-09	4.829413e+01	4.974597e+02
1.960000e-06	6.597366e-06	7.543895e-09	4.770416e+01	4.950268e+02
1.970000e-06	6.513417e-06	7.536096e-09	4.709715e+01	4.925018e+02
1.980000e-06	6.427038e-06	7.478346e-09	4.647256e+01	4.898804e+02
1.990000e-06	6.338203e-06	7.464928e-09	4.583021e+01	4.871596e+02
2.000000e-06	6.247177e-06	7.415222e-09	4.517202e+01	4.843376e+02
2.010000e-06	6.154007e-06	7.348968e-09	4.449833e+01	4.814132e+02
2.020000e-06	6.058549e-06	7.295665e-09	4.380809e+01	4.783852e+02
2.030000e-06	5.960891e-06	7.239457e-09	4.310195e+01	4.752522e+02
2.040000e-06	5.861235e-06	7.204937e-09	4.238136e+01	4.720117e+02
2.050000e-06	5.759580e-06	7.160512e-09	4.164631e+01	4.686602e+02
2.060000e-06	5.655788e-06	7.135849e-09	4.089582e+01	4.651931e+02
2.070000e-06	5.549995e-06	7.063743e-09	4.013085e+01	4.616051e+02
2.080000e-06	5.442339e-06	6.979339e-09	3.935241e+01	4.578903e+02
2.090000e-06	5.332780e-06	6.905288e-09	3.856021e+01	4.540433e+02
2.100000e-06	5.221226e-06	6.855139e-09	3.775359e+01	4.500593e+02
2.110000e-06	5.107708e-06	6.808100e-09	3.693276e+01	4.459345e+02
2.120000e-06	4.992299e-06	6.753068e-09	3.609827e+01	4.416664e+02
2.130000e-06	4.874917e-06	6.689636e-09	3.524950e+01	4.372535e+02
2.140000e-06	4.755572e-06	6.608061e-09	3.438654e+01	4.326949e+02
2.150000e-06	4.634457e-06	6.527939e-09	3.351078e+01	4.279896e+02
2.160000e-06	4.511704e-06	6.453168e-09	3.262318e+01	4.231359e+02
2.170000e-06	4.387336e-06	6.387263e-09	3.172390e+01	4.181310e+02
2.180000e-06	4.261343e-06	6.307405e-09	3.081287e+01	4.129702e+02
2.190000e-06	4.133701e-06	6.226786e-09	2.988992e+01	4.076467e+02
2.200000e-06	4.004495e-06	6.139988e-09	2.895566e+01	4.021526e+02
2.210000e-06	3.873866e-06	6.050531e-09	2.801111e+01	3.964784e+02
2.220000e-06	3.741876e-06	5.959115e-09	2.705672e+01	3.906146e+02
2.230000e-06	3.608440e-06	5.871170e-09	2.609187e+01	3.845520e+02
2.240000e-06	3.473611e-06	5.780123e-09	2.511695e+01	3.782828e+02
2.250000e-06	3.337477e-06	5.684449e-09	2.413260e+01	3.718011e+02
2.260000e-06	3.200106e-06	5.587418e-09	2.313930e+01	3.651029e+02
2.270000e-06	3.061640e-06	5.482322e-09	2.213808e+01	3.581859e+02
2.280000e-06	2.922032e-06	5.365109e-09	2.112860e+01	3.510491e+02
2.290000e-06	2.781236e-06	5.242600e-09	2.011053e+01	3.436909e+02
2.300000e-06	2.639294e-06	5.126732e-09	1.908418e+01	3.361087e+02
2.310000e-06	2.496336e-06	5.012346e-09	1.805048e+01	3.282973e+02
2.320000e-06	2.352467e-06	4.898038e-09	1.701019e+01	3.202477e+02
2.330000e-06	2.207788e-06	4.777705e-09	1.596405e+01	3.119470e+02
2.340000e-06	2.062365e-06	4.647886e-09	1.491253e+01	3.033785e+02
2.350000e-06	1.916236e-06	4.506966e-09	1.385590e+01	2.945220e+02
2.360000e-06	1.769532e-06	4.363480e-09	1.279511e+01	2.853558e+02
2.370000e-06	1.622353e-06	4.221201e-09	1.173089e+01	2.758581e+02
2.380000e-06	1.474705e-06	4.074188e-09	1.066328e+01	2.660089e+02
2.390000e-06	1.326569e-06	3.920184e-09	9.592144e+00	2.557915e+02
2.400000e-06	1.178021e-06	3.758112e-09	8.518022e+00	2.451942e+02
2.410000e-06	1.029061e-06	3.587348e-09	7.440921e+00	2.342099e+02
2.420000e-06	8.797291e-07	3.410797e-09	6.361136e+00	2.228357e+02
2.430000e-06	7.301180e-07	3.232334e-09	5.279330e+00	2.110713e+02
2.440000e-06	5.802659e-07	3.050845e-09	4.195781e+00	1.989163e+02
2.450000e-06	4.301906e-07	2.862542e-09	3.110618e+00	1.863673e+02
2.460000e-06	2.798955e-07	2.667030e-09	2.023866e+00	1.734147e+02
2.470000e-06	1.294582e-07	2.461644e-09	9.360849e-01	1.600401e+02
2.480000e-06	-2.103421e-08	2.245936e-09	-1.520939e-01	1.462150e+02
2.490000e-06	-1.715132e-07	2.022495e-09	-1.240176e+00	1.319007e+02
2.500000e-06	-3.219213e-07	1.791612e-09	-2.327745e+00	1.170495e+02
2.510000e-06	-4.722141e-07	1.553769e-09	-3.414481e+00	1.016091e+02
2.520000e-06	-6.223503e-07	1.307750e-09	-4.500084e+00	8.552759e+01
2.530000e-06	-7.723174e-07	1.053033e-09	-5.584465e+00	6.876003e+01
2.540000e-06	-9.220238e-07	7.879996e-10	-6.666961e+00	5.127592e+01
2.550000e-06	-1.071386e-06	5.103650e-10	-7.746967e+00	3.306632e+01
2.560000e-06	-1.220384e-06	2.208585e-10	-8.824338e+00	1.415006e+01
2.570000e-06	-1.368952e-06	-7.782591e-11	-9.898605e+00	-5.421892e+00
2.580000e-06	-1.517043e-06	-3.843712e-10	-1.096942e+01	-2.556449e+01
2.590000e-06	-1.664599e-06	-6.983734e-10	-1.203637e+01	-4.615961e+01
2.600000e-06	-1.811550e-06	-1.017858e-09	-1.309894e+01	-6.706000e+01
2.610000e-06	-1.957827e-06	-1.341172e-09	-1.415663e+01	-8.809601e+01
2.620000e-06	-2.103416e-06	-1.665834e-09	-1.520936e+01	-1.090846e+02
2.630000e-06	-2.248302e-06	-1.986307e-09	-1.625700e+01	-1.298397e+02
2.640000e-06	-2.392399e-06	-2.294511e-09	-1.729894e+01	-1.501831e+02
2.650000e-06	-2.535467e-06	-2.591508e-09	-1.833343e+01	-1.699545e+02
2.660000e-06	-2.677396e-06	-2.880816e-09	-1.935969e+01	-1.890200e+02
2.670000e-06	-2.818218e-06	-3.159989e-09	-2.037794e+01	-2.072786e+02
2.680000e-06	-2.957836e-06	-3.427038e-09	-2.138749e+01	-2.246650e+02
2.690000e-06	-3.096237e-06	-3.679918e-09	-2.238824e+01	-2.411500e+02
2.700000e-06	-3.233534e-06	-3.918010e-09	-2.338100e+01	-2.567370e+02
2.710000e-06	-3.369697e-06	-4.142520e-09	-2.436557e+01	-2.714570e+02
2.720000e-06	-3.504516e-06	-4.356388e-09	-2.534042e+01	-2.853611e+02
2.730000e-06	-3.637989e-06	-4.561352e-09	-2.630554e+01	-2.985124e+02
2.740000e-06	-3.770229e-06	-4.754308e-09	-2.726173e+01	-3.109781e+02
2.750000e-06	-3.901134e-06	-4.935345e-09	-2.820828e+01	-3.228221e+02
2.760000e-06	-4.030682e-06	-5.107055e-09	-2.914502e+01	-3.341001e+02
2.770000e-06	-4.158927e-06	-5.271951e-09	-3.007233e+01	-3.448556e+02
2.780000e-06	-4.285674e-06	-5.430690e-09	-3.098881e+01	-3.551196e+02
2.790000e-06	-4.410890e-06	-5.579725e-09	-3.189422e+01	-3.649112e+02
2.800000e-06	-4.534691e-06	-5.719559e-09	-3.278940e+01	-3.742406e+02
2.810000e-06	-4.656874e-06	-5.852609e-09	-3.367288e+01	-3.831124e+02
2.820000e-06	-4.777298e-06	-5.980791e-09	-3.454364e+01	-3.915305e+02
2.830000e-06	-4.895869e-06	-6.103359e-09	-3.540100e+01	-3.995013e+02
2.840000e-06	-5.012512e-06	-6.218693e-09	-3.624442e+01	-4.070372e+02
2.850000e-06	-5.127186e-06	-6.328246e-09	-3.707360e+01	-4.141574e+02
2.860000e-06	-5.239742e-06	-6.431987e-09	-3.788747e+01	-4.208892e+02
2.870000e-06	-5.350267e-06	-6.528277e-09	-3.868666e+01	-4.272655e+02
2.880000e-06	-5.458921e-06	-6.621156e-09	-3.947231e+01	-4.333234e+02
2.890000e-06	-5.565768e-06	-6.711899e-09	-4.024490e+01	-4.391002e+02
2.900000e-06	-5.670721e-06	-6.798163e-09	-4.100379e+01	-4.446309e+02
2.910000e-06	-5.773492e-06	-6.879974e-09	-4.174691e+01	-4.499446e+02
2.920000e-06	-5.874017e-06	-6.957251e-09	-4.247379e+01	-4.550628e+02
2.930000e-06	-5.972463e-06	-7.032474e-09	-4.318563e+01	-4.599982e+02
2.940000e-06	-6.068875e-06	-7.105373e-09	-4.388276e+01	-4.647546e+02
