# Temperatura_=_55.34
# Concentracion g/m^3_=_10000.0
# C_Vs_to_Am_M_A/Vsm_=_65563218390.804596
# pendiente_HvsI_1/m_=_3716.3
# ordenada_HvsI_A/m_=_1297.0
# frecuencia_Hz_=_302615.0259845425

Tiempo_(s)	Campo_(V.s)	Magnetizacion_(V.s)	Campo_(kA/m)	Magnetizacion_(A/m)
0.000000e+00	-7.896316e-06	-8.529088e-09	-5.683894e+01	-5.594050e+02
1.000000e-08	-7.893994e-06	-8.529994e-09	-5.682222e+01	-5.591668e+02
2.000000e-08	-7.889004e-06	-8.527658e-09	-5.678630e+01	-5.588268e+02
3.000000e-08	-7.881486e-06	-8.524506e-09	-5.673219e+01	-5.583993e+02
4.000000e-08	-7.871179e-06	-8.520198e-09	-5.665800e+01	-5.579011e+02
5.000000e-08	-7.857952e-06	-8.509792e-09	-5.656278e+01	-5.573484e+02
6.000000e-08	-7.841845e-06	-8.495190e-09	-5.644684e+01	-5.567554e+02
7.000000e-08	-7.823233e-06	-8.483381e-09	-5.631287e+01	-5.561321e+02
8.000000e-08	-7.802413e-06	-8.476195e-09	-5.616301e+01	-5.554830e+02
9.000000e-08	-7.778909e-06	-8.519205e-09	-5.599382e+01	-5.548069e+02
1.000000e-07	-7.752211e-06	-8.531432e-09	-5.580165e+01	-5.540972e+02
1.100000e-07	-7.722412e-06	-8.464019e-09	-5.558715e+01	-5.533426e+02
1.200000e-07	-7.689865e-06	-8.422360e-09	-5.535287e+01	-5.525289e+02
1.300000e-07	-7.654641e-06	-8.405981e-09	-5.509932e+01	-5.516412e+02
1.400000e-07	-7.616942e-06	-8.367995e-09	-5.482796e+01	-5.506652e+02
1.500000e-07	-7.577143e-06	-8.324911e-09	-5.454148e+01	-5.495888e+02
1.600000e-07	-7.535092e-06	-8.387023e-09	-5.423879e+01	-5.484039e+02
1.700000e-07	-7.490395e-06	-8.388279e-09	-5.391705e+01	-5.471061e+02
1.800000e-07	-7.443082e-06	-8.281944e-09	-5.357648e+01	-5.456949e+02
1.900000e-07	-7.392896e-06	-8.318490e-09	-5.321524e+01	-5.441732e+02
2.000000e-07	-7.339601e-06	-8.256201e-09	-5.283161e+01	-5.425461e+02
2.100000e-07	-7.283538e-06	-8.174062e-09	-5.242807e+01	-5.408197e+02
2.200000e-07	-7.224821e-06	-8.197076e-09	-5.200541e+01	-5.389997e+02
2.300000e-07	-7.163522e-06	-8.171511e-09	-5.156417e+01	-5.370906e+02
2.400000e-07	-7.099613e-06	-8.170332e-09	-5.110414e+01	-5.350952e+02
2.500000e-07	-7.032930e-06	-8.120029e-09	-5.062415e+01	-5.330141e+02
2.600000e-07	-6.963654e-06	-8.094852e-09	-5.012549e+01	-5.308460e+02
2.700000e-07	-6.891754e-06	-8.063624e-09	-4.960794e+01	-5.285885e+02
2.800000e-07	-6.817023e-06	-8.015092e-09	-4.907002e+01	-5.262383e+02
2.900000e-07	-6.739469e-06	-7.979368e-09	-4.851177e+01	-5.237923e+02
3.000000e-07	-6.659133e-06	-7.947752e-09	-4.793349e+01	-5.212484e+02
3.100000e-07	-6.576352e-06	-7.935480e-09	-4.733763e+01	-5.186050e+02
3.200000e-07	-6.491434e-06	-7.860013e-09	-4.672637e+01	-5.158620e+02
3.300000e-07	-6.404272e-06	-7.808040e-09	-4.609897e+01	-5.130200e+02
3.400000e-07	-6.314775e-06	-7.778080e-09	-4.545475e+01	-5.100795e+02
3.500000e-07	-6.222979e-06	-7.720280e-09	-4.479399e+01	-5.070409e+02
3.600000e-07	-6.128972e-06	-7.667518e-09	-4.411731e+01	-5.039034e+02
3.700000e-07	-6.032737e-06	-7.629990e-09	-4.342460e+01	-5.006647e+02
3.800000e-07	-5.934228e-06	-7.591893e-09	-4.271551e+01	-4.973208e+02
3.900000e-07	-5.833583e-06	-7.526335e-09	-4.199106e+01	-4.938660e+02
4.000000e-07	-5.730916e-06	-7.471114e-09	-4.125204e+01	-4.902935e+02
4.100000e-07	-5.626216e-06	-7.417791e-09	-4.049840e+01	-4.865960e+02
4.200000e-07	-5.519485e-06	-7.356229e-09	-3.973013e+01	-4.827667e+02
4.300000e-07	-5.410811e-06	-7.293678e-09	-3.894787e+01	-4.787996e+02
4.400000e-07	-5.300317e-06	-7.240486e-09	-3.815252e+01	-4.746905e+02
4.500000e-07	-5.187857e-06	-7.185349e-09	-3.734302e+01	-4.704369e+02
4.600000e-07	-5.073242e-06	-7.108246e-09	-3.651800e+01	-4.660379e+02
4.700000e-07	-4.956626e-06	-7.026490e-09	-3.567858e+01	-4.614938e+02
4.800000e-07	-4.838222e-06	-6.955480e-09	-3.482629e+01	-4.568052e+02
4.900000e-07	-4.718059e-06	-6.887823e-09	-3.396134e+01	-4.519720e+02
5.000000e-07	-4.596199e-06	-6.813085e-09	-3.308417e+01	-4.469924e+02
5.100000e-07	-4.472662e-06	-6.734219e-09	-3.219493e+01	-4.418622e+02
5.200000e-07	-4.347473e-06	-6.648831e-09	-3.129380e+01	-4.365746e+02
5.300000e-07	-4.220724e-06	-6.563213e-09	-3.038144e+01	-4.311202e+02
5.400000e-07	-4.092448e-06	-6.477645e-09	-2.945809e+01	-4.254875e+02
5.500000e-07	-3.962670e-06	-6.392003e-09	-2.852393e+01	-4.196642e+02
5.600000e-07	-3.831376e-06	-6.300855e-09	-2.757885e+01	-4.136381e+02
5.700000e-07	-3.698597e-06	-6.206877e-09	-2.662309e+01	-4.073985e+02
5.800000e-07	-3.564429e-06	-6.106536e-09	-2.565733e+01	-4.009375e+02
5.900000e-07	-3.428942e-06	-5.998013e-09	-2.468207e+01	-3.942501e+02
6.000000e-07	-3.292131e-06	-5.889303e-09	-2.369728e+01	-3.873347e+02
6.100000e-07	-3.154017e-06	-5.779891e-09	-2.270312e+01	-3.801921e+02
6.200000e-07	-3.014560e-06	-5.668197e-09	-2.169928e+01	-3.728245e+02
6.300000e-07	-2.873778e-06	-5.554460e-09	-2.068591e+01	-3.652335e+02
6.400000e-07	-2.731842e-06	-5.443344e-09	-1.966423e+01	-3.574187e+02
6.500000e-07	-2.588800e-06	-5.326834e-09	-1.863460e+01	-3.493756e+02
6.600000e-07	-2.444752e-06	-5.199889e-09	-1.759771e+01	-3.410944e+02
6.700000e-07	-2.299838e-06	-5.063145e-09	-1.655460e+01	-3.325597e+02
6.800000e-07	-2.154099e-06	-4.923046e-09	-1.550555e+01	-3.237506e+02
6.900000e-07	-2.007643e-06	-4.778985e-09	-1.445133e+01	-3.146419e+02
7.000000e-07	-1.860603e-06	-4.631209e-09	-1.339292e+01	-3.052066e+02
7.100000e-07	-1.712990e-06	-4.481000e-09	-1.233038e+01	-2.954177e+02
7.200000e-07	-1.564853e-06	-4.324076e-09	-1.126406e+01	-2.852514e+02
7.300000e-07	-1.416257e-06	-4.163118e-09	-1.019444e+01	-2.746890e+02
7.400000e-07	-1.267218e-06	-3.998974e-09	-9.121635e+00	-2.637180e+02
7.500000e-07	-1.117819e-06	-3.831644e-09	-8.046238e+00	-2.523330e+02
7.600000e-07	-9.680937e-07	-3.657808e-09	-6.968492e+00	-2.405339e+02
7.700000e-07	-8.180236e-07	-3.474233e-09	-5.888264e+00	-2.283236e+02
7.800000e-07	-6.676499e-07	-3.277713e-09	-4.805850e+00	-2.157046e+02
7.900000e-07	-5.170399e-07	-3.075314e-09	-3.721735e+00	-2.026747e+02
8.000000e-07	-3.662600e-07	-2.870897e-09	-2.636398e+00	-1.892225e+02
8.100000e-07	-2.153533e-07	-2.659124e-09	-1.550147e+00	-1.753245e+02
8.200000e-07	-6.431862e-08	-2.437526e-09	-4.629757e-01	-1.609427e+02
8.300000e-07	8.682201e-08	-2.206698e-09	6.249586e-01	-1.460244e+02
8.400000e-07	2.379736e-07	-1.969921e-09	1.712972e+00	-1.305050e+02
8.500000e-07	3.890752e-07	-1.723965e-09	2.800625e+00	-1.143126e+02
8.600000e-07	5.400798e-07	-1.467465e-09	3.887580e+00	-9.737489e+01
8.700000e-07	6.908779e-07	-1.200313e-09	4.973049e+00	-7.962818e+01
8.800000e-07	8.414498e-07	-9.206169e-10	6.056889e+00	-6.102652e+01
8.900000e-07	9.917560e-07	-6.254823e-10	7.138817e+00	-4.155115e+01
9.000000e-07	1.141735e-06	-3.164273e-10	8.218388e+00	-2.121831e+01
9.100000e-07	1.291312e-06	2.743051e-12	9.295067e+00	-8.475109e-02
9.200000e-07	1.440396e-06	3.345480e-10	1.036820e+01	2.174987e+01
9.300000e-07	1.589011e-06	6.766504e-10	1.143795e+01	4.414443e+01
9.400000e-07	1.737131e-06	1.025789e-09	1.250414e+01	6.692144e+01
9.500000e-07	1.884706e-06	1.377202e-09	1.356641e+01	8.987573e+01
9.600000e-07	2.031650e-06	1.728214e-09	1.462414e+01	1.127858e+02
9.700000e-07	2.177796e-06	2.076733e-09	1.567612e+01	1.354271e+02
9.800000e-07	2.323090e-06	2.417860e-09	1.672197e+01	1.575851e+02
9.900000e-07	2.467540e-06	2.745454e-09	1.776174e+01	1.790686e+02
1.000000e-06	2.611024e-06	3.058608e-09	1.879456e+01	1.997196e+02
1.010000e-06	2.753441e-06	3.354506e-09	1.981971e+01	2.194213e+02
1.020000e-06	2.894761e-06	3.633165e-09	2.083695e+01	2.381014e+02
1.030000e-06	3.034911e-06	3.896969e-09	2.184577e+01	2.557321e+02
1.040000e-06	3.173866e-06	4.147312e-09	2.284599e+01	2.723257e+02
1.050000e-06	3.311585e-06	4.384647e-09	2.383731e+01	2.879280e+02
1.060000e-06	3.447985e-06	4.608363e-09	2.481914e+01	3.026084e+02
1.070000e-06	3.583077e-06	4.821567e-09	2.579156e+01	3.164501e+02
1.080000e-06	3.716901e-06	5.025005e-09	2.675484e+01	3.295401e+02
1.090000e-06	3.849387e-06	5.216306e-09	2.770850e+01	3.419598e+02
1.100000e-06	3.980464e-06	5.396800e-09	2.865201e+01	3.537789e+02
1.110000e-06	4.110087e-06	5.570101e-09	2.958506e+01	3.650510e+02
1.120000e-06	4.238214e-06	5.734289e-09	3.050734e+01	3.758125e+02
1.130000e-06	4.364842e-06	5.888449e-09	3.141883e+01	3.860844e+02
1.140000e-06	4.490032e-06	6.035534e-09	3.231996e+01	3.958752e+02
1.150000e-06	4.613802e-06	6.176348e-09	3.321088e+01	4.051864e+02
1.160000e-06	4.735955e-06	6.310216e-09	3.409016e+01	4.140174e+02
1.170000e-06	4.856370e-06	6.436202e-09	3.495692e+01	4.223707e+02
1.180000e-06	4.975002e-06	6.554129e-09	3.581086e+01	4.302557e+02
1.190000e-06	5.091825e-06	6.667161e-09	3.665177e+01	4.376909e+02
1.200000e-06	5.206697e-06	6.773371e-09	3.747863e+01	4.447042e+02
1.210000e-06	5.319458e-06	6.873637e-09	3.829030e+01	4.513317e+02
1.220000e-06	5.430249e-06	6.971117e-09	3.908779e+01	4.576148e+02
1.230000e-06	5.539216e-06	7.064719e-09	3.987216e+01	4.635967e+02
1.240000e-06	5.646274e-06	7.152039e-09	4.064278e+01	4.693179e+02
1.250000e-06	5.751230e-06	7.234504e-09	4.139827e+01	4.748131e+02
1.260000e-06	5.853976e-06	7.315067e-09	4.213785e+01	4.801084e+02
1.270000e-06	5.954599e-06	7.394282e-09	4.286215e+01	4.852198e+02
1.280000e-06	6.053048e-06	7.469418e-09	4.357080e+01	4.901531e+02
1.290000e-06	6.149152e-06	7.540266e-09	4.426257e+01	4.949059e+02
1.300000e-06	6.242991e-06	7.608025e-09	4.493804e+01	4.994695e+02
1.310000e-06	6.334675e-06	7.671531e-09	4.559800e+01	5.038323e+02
1.320000e-06	6.424077e-06	7.731926e-09	4.624153e+01	5.079833e+02
1.330000e-06	6.511115e-06	7.789312e-09	4.686804e+01	5.119147e+02
1.340000e-06	6.595940e-06	7.844497e-09	4.747862e+01	5.156242e+02
1.350000e-06	6.678519e-06	7.897979e-09	4.807304e+01	5.191161e+02
1.360000e-06	6.758614e-06	7.947967e-09	4.864958e+01	5.224010e+02
1.370000e-06	6.836194e-06	7.995278e-09	4.920801e+01	5.254943e+02
1.380000e-06	6.911218e-06	8.039957e-09	4.974805e+01	5.284148e+02
1.390000e-06	6.983638e-06	8.082619e-09	5.026933e+01	5.311813e+02
1.400000e-06	7.053596e-06	8.123795e-09	5.077290e+01	5.338107e+02
1.410000e-06	7.121054e-06	8.163857e-09	5.125848e+01	5.363158e+02
1.420000e-06	7.185911e-06	8.201548e-09	5.172532e+01	5.387037e+02
1.430000e-06	7.248248e-06	8.235536e-09	5.217404e+01	5.409755e+02
1.440000e-06	7.308192e-06	8.267104e-09	5.260553e+01	5.431274e+02
1.450000e-06	7.365559e-06	8.295067e-09	5.301846e+01	5.451514e+02
1.460000e-06	7.420227e-06	8.320786e-09	5.341197e+01	5.470381e+02
1.470000e-06	7.471975e-06	8.345086e-09	5.378446e+01	5.487787e+02
1.480000e-06	7.520638e-06	8.370134e-09	5.413475e+01	5.503673e+02
1.490000e-06	7.566520e-06	8.394903e-09	5.446501e+01	5.518027e+02
1.500000e-06	7.609801e-06	8.415175e-09	5.477655e+01	5.530890e+02
1.510000e-06	7.650311e-06	8.434784e-09	5.506815e+01	5.542356e+02
1.520000e-06	7.688070e-06	8.454030e-09	5.533995e+01	5.552566e+02
1.530000e-06	7.723279e-06	8.470148e-09	5.559339e+01	5.561688e+02
1.540000e-06	7.755752e-06	8.483146e-09	5.582713e+01	5.569893e+02
1.550000e-06	7.785465e-06	8.493369e-09	5.604102e+01	5.577336e+02
1.560000e-06	7.812426e-06	8.502626e-09	5.623508e+01	5.584133e+02
1.570000e-06	7.836444e-06	8.511323e-09	5.640797e+01	5.590350e+02
1.580000e-06	7.857657e-06	8.521204e-09	5.656067e+01	5.595990e+02
1.590000e-06	7.876179e-06	8.531927e-09	5.669399e+01	5.601001e+02
1.600000e-06	7.891719e-06	8.541041e-09	5.680585e+01	5.605287e+02
1.610000e-06	7.904147e-06	8.547394e-09	5.689531e+01	5.608723e+02
1.620000e-06	7.913500e-06	8.549437e-09	5.696263e+01	5.611182e+02
1.630000e-06	7.919932e-06	8.550466e-09	5.700893e+01	5.612552e+02
1.640000e-06	7.923610e-06	8.551616e-09	5.703541e+01	5.612761e+02
1.650000e-06	7.924457e-06	8.553624e-09	5.704150e+01	5.611790e+02
1.660000e-06	7.922589e-06	8.549876e-09	5.702805e+01	5.609677e+02
1.670000e-06	7.918202e-06	8.543727e-09	5.699647e+01	5.606514e+02
1.680000e-06	7.911149e-06	8.541989e-09	5.694570e+01	5.602439e+02
1.690000e-06	7.901428e-06	8.538595e-09	5.687573e+01	5.597612e+02
1.700000e-06	7.888956e-06	8.533436e-09	5.678596e+01	5.592202e+02
1.710000e-06	7.873691e-06	8.529497e-09	5.667607e+01	5.586357e+02
1.720000e-06	7.856002e-06	8.523684e-09	5.654875e+01	5.580189e+02
1.730000e-06	7.836095e-06	8.494503e-09	5.640545e+01	5.573756e+02
1.740000e-06	7.813538e-06	8.399133e-09	5.624309e+01	5.567063e+02
1.750000e-06	7.787669e-06	8.397679e-09	5.605687e+01	5.560054e+02
1.760000e-06	7.758230e-06	8.443757e-09	5.584497e+01	5.552628e+02
1.770000e-06	7.725629e-06	8.438789e-09	5.561031e+01	5.544648e+02
1.780000e-06	7.690587e-06	8.449690e-09	5.535807e+01	5.535966e+02
1.790000e-06	7.653175e-06	8.494853e-09	5.508877e+01	5.526433e+02
1.800000e-06	7.613611e-06	8.424723e-09	5.480398e+01	5.515925e+02
1.810000e-06	7.572095e-06	8.344214e-09	5.450514e+01	5.504349e+02
1.820000e-06	7.528050e-06	8.409720e-09	5.418810e+01	5.491649e+02
1.830000e-06	7.481361e-06	8.329204e-09	5.385202e+01	5.477815e+02
1.840000e-06	7.431989e-06	8.370529e-09	5.349663e+01	5.462865e+02
1.850000e-06	7.379645e-06	8.380293e-09	5.311986e+01	5.446848e+02
1.860000e-06	7.324413e-06	8.285751e-09	5.272229e+01	5.429822e+02
1.870000e-06	7.266467e-06	8.307160e-09	5.230518e+01	5.411846e+02
1.880000e-06	7.206000e-06	8.186503e-09	5.186993e+01	5.392970e+02
1.890000e-06	7.142773e-06	8.198166e-09	5.141481e+01	5.373226e+02
1.900000e-06	7.076709e-06	8.185279e-09	5.093927e+01	5.352624e+02
1.910000e-06	7.007943e-06	8.117516e-09	5.044429e+01	5.331159e+02
1.920000e-06	6.936383e-06	8.135967e-09	4.992919e+01	5.308805e+02
1.930000e-06	6.862230e-06	8.052961e-09	4.939542e+01	5.285533e+02
1.940000e-06	6.785367e-06	8.039778e-09	4.884215e+01	5.261310e+02
1.950000e-06	6.705735e-06	7.956945e-09	4.826894e+01	5.236113e+02
1.960000e-06	6.623614e-06	7.938617e-09	4.767782e+01	5.209924e+02
1.970000e-06	6.539147e-06	7.932982e-09	4.706982e+01	5.182738e+02
1.980000e-06	6.452245e-06	7.853189e-09	4.644429e+01	5.154560e+02
1.990000e-06	6.362884e-06	7.853188e-09	4.580105e+01	5.125396e+02
2.000000e-06	6.271425e-06	7.785002e-09	4.514271e+01	5.095251e+02
2.010000e-06	6.177790e-06	7.732358e-09	4.446871e+01	5.064120e+02
2.020000e-06	6.081818e-06	7.657178e-09	4.377789e+01	5.031984e+02
2.030000e-06	5.983679e-06	7.621158e-09	4.307147e+01	4.998808e+02
2.040000e-06	5.883471e-06	7.582844e-09	4.235016e+01	4.964538e+02
2.050000e-06	5.781151e-06	7.524856e-09	4.161364e+01	4.929109e+02
2.060000e-06	5.676694e-06	7.479866e-09	4.086174e+01	4.892449e+02
2.070000e-06	5.570352e-06	7.408351e-09	4.009628e+01	4.854487e+02
2.080000e-06	5.462202e-06	7.343501e-09	3.931780e+01	4.815161e+02
2.090000e-06	5.352108e-06	7.264456e-09	3.852532e+01	4.774423e+02
2.100000e-06	5.240021e-06	7.218915e-09	3.771850e+01	4.732245e+02
2.110000e-06	5.125997e-06	7.156598e-09	3.689774e+01	4.688613e+02
2.120000e-06	5.009983e-06	7.092800e-09	3.606265e+01	4.643530e+02
2.130000e-06	4.891942e-06	7.020645e-09	3.521297e+01	4.597000e+02
2.140000e-06	4.771948e-06	6.949909e-09	3.434924e+01	4.549026e+02
2.150000e-06	4.650204e-06	6.870580e-09	3.347291e+01	4.499594e+02
2.160000e-06	4.526892e-06	6.788170e-09	3.258529e+01	4.448669e+02
2.170000e-06	4.401917e-06	6.713117e-09	3.168569e+01	4.396190e+02
2.180000e-06	4.275255e-06	6.631955e-09	3.077396e+01	4.342069e+02
2.190000e-06	4.146979e-06	6.549113e-09	2.985061e+01	4.286194e+02
2.200000e-06	4.017261e-06	6.456157e-09	2.891689e+01	4.228445e+02
2.210000e-06	3.886085e-06	6.363312e-09	2.797266e+01	4.168696e+02
2.220000e-06	3.753418e-06	6.264870e-09	2.701770e+01	4.106838e+02
2.230000e-06	3.619332e-06	6.174217e-09	2.605253e+01	4.042783e+02
2.240000e-06	3.483878e-06	6.079077e-09	2.507751e+01	3.976473e+02
2.250000e-06	3.347099e-06	5.980748e-09	2.409295e+01	3.907884e+02
2.260000e-06	3.209160e-06	5.871265e-09	2.310004e+01	3.837020e+02
2.270000e-06	3.070058e-06	5.756108e-09	2.209876e+01	3.763899e+02
2.280000e-06	2.929613e-06	5.634461e-09	2.108782e+01	3.688543e+02
2.290000e-06	2.787969e-06	5.512380e-09	2.006824e+01	3.610952e+02
2.300000e-06	2.645262e-06	5.393999e-09	1.904102e+01	3.531094e+02
2.310000e-06	2.501597e-06	5.272582e-09	1.800689e+01	3.448885e+02
2.320000e-06	2.357051e-06	5.147005e-09	1.696643e+01	3.364184e+02
2.330000e-06	2.211664e-06	5.013892e-09	1.591991e+01	3.276796e+02
2.340000e-06	2.065604e-06	4.878117e-09	1.486855e+01	3.186479e+02
2.350000e-06	1.918966e-06	4.734499e-09	1.381302e+01	3.092963e+02
2.360000e-06	1.771704e-06	4.584460e-09	1.275301e+01	2.995978e+02
2.370000e-06	1.623834e-06	4.430036e-09	1.168861e+01	2.895274e+02
2.380000e-06	1.475426e-06	4.270967e-09	1.062035e+01	2.790649e+02
2.390000e-06	1.326483e-06	4.108088e-09	9.548233e+00	2.681964e+02
2.400000e-06	1.177101e-06	3.937390e-09	8.472959e+00	2.569146e+02
2.410000e-06	1.027383e-06	3.758034e-09	7.395268e+00	2.452183e+02
2.420000e-06	8.773259e-07	3.572683e-09	6.315131e+00	2.331100e+02
2.430000e-06	7.269607e-07	3.381533e-09	5.232779e+00	2.205927e+02
2.440000e-06	5.763061e-07	3.186431e-09	4.148343e+00	2.076657e+02
2.450000e-06	4.254253e-07	2.985460e-09	3.062279e+00	1.943203e+02
2.460000e-06	2.743672e-07	2.776255e-09	1.974938e+00	1.805363e+02
2.470000e-06	1.231601e-07	2.555595e-09	8.865259e-01	1.662793e+02
2.480000e-06	-2.812509e-08	2.323534e-09	-2.024488e-01	1.515003e+02
2.490000e-06	-1.794506e-07	2.084780e-09	-1.291714e+00	1.361373e+02
2.500000e-06	-3.307050e-07	1.840354e-09	-2.380467e+00	1.201195e+02
2.510000e-06	-4.818215e-07	1.586652e-09	-3.468227e+00	1.033742e+02
2.520000e-06	-6.327769e-07	1.317899e-09	-4.554829e+00	8.583441e+01
2.530000e-06	-7.834548e-07	1.035484e-09	-5.639432e+00	6.744899e+01
2.540000e-06	-9.338500e-07	7.419935e-10	-6.722000e+00	4.819154e+01
2.550000e-06	-1.083934e-06	4.380539e-10	-7.802327e+00	2.806892e+01
2.560000e-06	-1.233620e-06	1.244107e-10	-8.879793e+00	7.127405e+00
2.570000e-06	-1.382838e-06	-2.024145e-10	-9.953891e+00	-1.454409e+01
2.580000e-06	-1.531571e-06	-5.436103e-10	-1.102449e+01	-3.681448e+01
2.590000e-06	-1.679844e-06	-8.944944e-10	-1.209179e+01	-5.951467e+01
2.600000e-06	-1.827502e-06	-1.247860e-09	-1.315465e+01	-8.244546e+01
2.610000e-06	-1.974394e-06	-1.601687e-09	-1.421200e+01	-1.053883e+02
2.620000e-06	-2.120550e-06	-1.954880e-09	-1.526405e+01	-1.281179e+02
2.630000e-06	-2.265947e-06	-2.299590e-09	-1.631064e+01	-1.504162e+02
2.640000e-06	-2.410466e-06	-2.629441e-09	-1.735092e+01	-1.720851e+02
2.650000e-06	-2.554118e-06	-2.944125e-09	-1.838494e+01	-1.929573e+02
2.660000e-06	-2.696766e-06	-3.245268e-09	-1.941175e+01	-2.129054e+02
2.670000e-06	-2.838223e-06	-3.532495e-09	-2.042998e+01	-2.318457e+02
2.680000e-06	-2.978515e-06	-3.803572e-09	-2.143982e+01	-2.497395e+02
2.690000e-06	-3.117600e-06	-4.059066e-09	-2.244098e+01	-2.665898e+02
2.700000e-06	-3.255520e-06	-4.300306e-09	-2.343375e+01	-2.824345e+02
2.710000e-06	-3.392254e-06	-4.528919e-09	-2.441799e+01	-2.973384e+02
2.720000e-06	-3.527665e-06	-4.747415e-09	-2.539270e+01	-3.113822e+02
2.730000e-06	-3.661738e-06	-4.956132e-09	-2.635777e+01	-3.246526e+02
2.740000e-06	-3.794509e-06	-5.153284e-09	-2.731348e+01	-3.372333e+02
2.750000e-06	-3.925913e-06	-5.337499e-09	-2.825935e+01	-3.491973e+02
2.760000e-06	-4.055947e-06	-5.510462e-09	-2.919535e+01	-3.606025e+02
2.770000e-06	-4.184665e-06	-5.675675e-09	-3.012188e+01	-3.714896e+02
2.780000e-06	-4.311940e-06	-5.833308e-09	-3.103803e+01	-3.818831e+02
2.790000e-06	-4.437707e-06	-5.981615e-09	-3.194332e+01	-3.917944e+02
2.800000e-06	-4.561923e-06	-6.121968e-09	-3.283745e+01	-4.012260e+02
2.810000e-06	-4.684516e-06	-6.256700e-09	-3.371989e+01	-4.101775e+02
2.820000e-06	-4.805442e-06	-6.385948e-09	-3.459034e+01	-4.186501e+02
2.830000e-06	-4.924566e-06	-6.508514e-09	-3.544780e+01	-4.266513e+02
2.840000e-06	-5.041763e-06	-6.626094e-09	-3.629141e+01	-4.341972e+02
2.850000e-06	-5.156902e-06	-6.739216e-09	-3.712020e+01	-4.413133e+02
2.860000e-06	-5.269927e-06	-6.845212e-09	-3.793377e+01	-4.480340e+02
2.870000e-06	-5.380936e-06	-6.941602e-09	-3.873283e+01	-4.543996e+02
2.880000e-06	-5.489986e-06	-7.032930e-09	-3.951779e+01	-4.604533e+02
2.890000e-06	-5.597141e-06	-7.122164e-09	-4.028911e+01	-4.662366e+02
2.900000e-06	-5.702412e-06	-7.208774e-09	-4.104686e+01	-4.717860e+02
2.910000e-06	-5.805514e-06	-7.291914e-09	-4.178901e+01	-4.771298e+02
2.920000e-06	-5.906341e-06	-7.369044e-09	-4.251478e+01	-4.822867e+02
2.930000e-06	-6.005066e-06	-7.443382e-09	-4.322542e+01	-4.872650e+02
2.940000e-06	-6.101697e-06	-7.516559e-09	-4.392099e+01	-4.920640e+02
