# Temperatura_=_74.26
# Concentracion g/m^3_=_10000.0
# C_Vs_to_Am_M_A/Vsm_=_65563218390.804596
# pendiente_HvsI_1/m_=_3716.3
# ordenada_HvsI_A/m_=_1297.0
# frecuencia_Hz_=_302630.3298158745

Tiempo_(s)	Campo_(V.s)	Magnetizacion_(V.s)	Campo_(kA/m)	Magnetizacion_(A/m)
0.000000e+00	-7.964573e-06	-1.110853e-08	-5.681473e+01	-7.269733e+02
1.000000e-08	-7.959988e-06	-1.110341e-08	-5.678202e+01	-7.265047e+02
2.000000e-08	-7.952855e-06	-1.109417e-08	-5.673114e+01	-7.259168e+02
3.000000e-08	-7.942890e-06	-1.108162e-08	-5.666006e+01	-7.252208e+02
4.000000e-08	-7.929985e-06	-1.106679e-08	-5.656800e+01	-7.244268e+02
5.000000e-08	-7.914137e-06	-1.105080e-08	-5.645495e+01	-7.235428e+02
6.000000e-08	-7.895660e-06	-1.103610e-08	-5.632315e+01	-7.225742e+02
7.000000e-08	-7.875024e-06	-1.102533e-08	-5.617594e+01	-7.215234e+02
8.000000e-08	-7.851875e-06	-1.102874e-08	-5.601080e+01	-7.203907e+02
9.000000e-08	-7.825595e-06	-1.102628e-08	-5.582334e+01	-7.191741e+02
1.000000e-07	-7.796084e-06	-1.098774e-08	-5.561283e+01	-7.178706e+02
1.100000e-07	-7.763683e-06	-1.094435e-08	-5.538169e+01	-7.164762e+02
1.200000e-07	-7.728569e-06	-1.091058e-08	-5.513121e+01	-7.149870e+02
1.300000e-07	-7.690925e-06	-1.087650e-08	-5.486268e+01	-7.133988e+02
1.400000e-07	-7.651073e-06	-1.084354e-08	-5.457840e+01	-7.117076e+02
1.500000e-07	-7.608971e-06	-1.083576e-08	-5.427807e+01	-7.099088e+02
1.600000e-07	-7.564232e-06	-1.082429e-08	-5.395893e+01	-7.079974e+02
1.700000e-07	-7.516694e-06	-1.077415e-08	-5.361982e+01	-7.059670e+02
1.800000e-07	-7.466350e-06	-1.074912e-08	-5.326069e+01	-7.038101e+02
1.900000e-07	-7.413111e-06	-1.068990e-08	-5.288091e+01	-7.015178e+02
2.000000e-07	-7.357102e-06	-1.062247e-08	-5.248138e+01	-6.990804e+02
2.100000e-07	-7.298392e-06	-1.059297e-08	-5.206257e+01	-6.964882e+02
2.200000e-07	-7.237007e-06	-1.055157e-08	-5.162469e+01	-6.937322e+02
2.300000e-07	-7.172996e-06	-1.052398e-08	-5.116807e+01	-6.908054e+02
2.400000e-07	-7.106309e-06	-1.047646e-08	-5.069237e+01	-6.877037e+02
2.500000e-07	-7.036921e-06	-1.042218e-08	-5.019739e+01	-6.844264e+02
2.600000e-07	-6.964711e-06	-1.036454e-08	-4.968228e+01	-6.809769e+02
2.700000e-07	-6.889679e-06	-1.031350e-08	-4.914705e+01	-6.773621e+02
2.800000e-07	-6.811834e-06	-1.026864e-08	-4.859175e+01	-6.735915e+02
2.900000e-07	-6.731232e-06	-1.021367e-08	-4.801678e+01	-6.696763e+02
3.000000e-07	-6.648246e-06	-1.016176e-08	-4.742481e+01	-6.656276e+02
3.100000e-07	-6.563047e-06	-1.008472e-08	-4.681705e+01	-6.614545e+02
3.200000e-07	-6.475526e-06	-1.000642e-08	-4.619271e+01	-6.571630e+02
3.300000e-07	-6.385623e-06	-9.941787e-09	-4.555140e+01	-6.527547e+02
3.400000e-07	-6.293412e-06	-9.871386e-09	-4.489362e+01	-6.482262e+02
3.500000e-07	-6.198967e-06	-9.794005e-09	-4.421990e+01	-6.435697e+02
3.600000e-07	-6.102210e-06	-9.723635e-09	-4.352970e+01	-6.387736e+02
3.700000e-07	-6.003222e-06	-9.661454e-09	-4.282357e+01	-6.338244e+02
3.800000e-07	-5.902096e-06	-9.583977e-09	-4.210219e+01	-6.287081e+02
3.900000e-07	-5.798779e-06	-9.497000e-09	-4.136519e+01	-6.234126e+02
4.000000e-07	-5.693390e-06	-9.411274e-09	-4.061340e+01	-6.179289e+02
4.100000e-07	-5.586072e-06	-9.324414e-09	-3.984786e+01	-6.122527e+02
4.200000e-07	-5.476800e-06	-9.234127e-09	-3.906838e+01	-6.063844e+02
4.300000e-07	-5.365517e-06	-9.143831e-09	-3.827455e+01	-6.003291e+02
4.400000e-07	-5.252160e-06	-9.056210e-09	-3.746592e+01	-5.940946e+02
4.500000e-07	-5.136791e-06	-8.960170e-09	-3.664295e+01	-5.876903e+02
4.600000e-07	-5.019569e-06	-8.852210e-09	-3.580675e+01	-5.811247e+02
4.700000e-07	-4.900502e-06	-8.744906e-09	-3.495739e+01	-5.744031e+02
4.800000e-07	-4.779562e-06	-8.646271e-09	-3.409467e+01	-5.675261e+02
4.900000e-07	-4.656860e-06	-8.546757e-09	-3.321939e+01	-5.604884e+02
5.000000e-07	-4.532527e-06	-8.435542e-09	-3.233247e+01	-5.532787e+02
5.100000e-07	-4.406632e-06	-8.314350e-09	-3.143441e+01	-5.458805e+02
5.200000e-07	-4.279016e-06	-8.193412e-09	-3.052407e+01	-5.382737e+02
5.300000e-07	-4.149734e-06	-8.074224e-09	-2.960184e+01	-5.304373e+02
5.400000e-07	-4.019020e-06	-7.950389e-09	-2.866940e+01	-5.223514e+02
5.500000e-07	-3.886811e-06	-7.821272e-09	-2.772630e+01	-5.140002e+02
5.600000e-07	-3.753147e-06	-7.691584e-09	-2.677281e+01	-5.053733e+02
5.700000e-07	-3.617993e-06	-7.560154e-09	-2.580870e+01	-4.964672e+02
5.800000e-07	-3.481331e-06	-7.420838e-09	-2.483383e+01	-4.872844e+02
5.900000e-07	-3.343328e-06	-7.275360e-09	-2.384940e+01	-4.778323e+02
6.000000e-07	-3.204041e-06	-7.128056e-09	-2.285581e+01	-4.681210e+02
6.100000e-07	-3.063401e-06	-6.975167e-09	-2.185256e+01	-4.581599e+02
6.200000e-07	-2.921362e-06	-6.817775e-09	-2.083933e+01	-4.479549e+02
6.300000e-07	-2.778146e-06	-6.659914e-09	-1.981772e+01	-4.375051e+02
6.400000e-07	-2.633969e-06	-6.499954e-09	-1.878924e+01	-4.268013e+02
6.500000e-07	-2.488865e-06	-6.332703e-09	-1.775415e+01	-4.158252e+02
6.600000e-07	-2.342985e-06	-6.156674e-09	-1.671352e+01	-4.045499e+02
6.700000e-07	-2.196355e-06	-5.975149e-09	-1.566754e+01	-3.929421e+02
6.800000e-07	-2.048919e-06	-5.788755e-09	-1.461582e+01	-3.809659e+02
6.900000e-07	-1.900759e-06	-5.598515e-09	-1.355893e+01	-3.685857e+02
7.000000e-07	-1.751969e-06	-5.404386e-09	-1.249755e+01	-3.557711e+02
7.100000e-07	-1.602674e-06	-5.202044e-09	-1.143256e+01	-3.424993e+02
7.200000e-07	-1.452898e-06	-4.990882e-09	-1.036415e+01	-3.287577e+02
7.300000e-07	-1.302634e-06	-4.776307e-09	-9.292251e+00	-3.145430e+02
7.400000e-07	-1.151919e-06	-4.557069e-09	-8.217134e+00	-2.998598e+02
7.500000e-07	-1.000759e-06	-4.331108e-09	-7.138842e+00	-2.847166e+02
7.600000e-07	-8.492201e-07	-4.097276e-09	-6.057853e+00	-2.691197e+02
7.700000e-07	-6.973736e-07	-3.854914e-09	-4.974667e+00	-2.530674e+02
7.800000e-07	-5.452346e-07	-3.602800e-09	-3.889393e+00	-2.365435e+02
7.900000e-07	-3.928905e-07	-3.340018e-09	-2.802657e+00	-2.195122e+02
8.000000e-07	-2.404514e-07	-3.068199e-09	-1.715243e+00	-2.019154e+02
8.100000e-07	-8.785488e-08	-2.785816e-09	-6.267067e-01	-1.836725e+02
8.200000e-07	6.490670e-08	-2.491848e-09	4.630075e-01	-1.646838e+02
8.300000e-07	2.177102e-07	-2.185416e-09	1.553021e+00	-1.448379e+02
8.400000e-07	3.704192e-07	-1.865148e-09	2.642360e+00	-1.240214e+02
8.500000e-07	5.229561e-07	-1.532558e-09	3.730471e+00	-1.021314e+02
8.600000e-07	6.753504e-07	-1.186228e-09	4.817565e+00	-7.908915e+01
8.700000e-07	8.275910e-07	-8.228306e-10	5.903563e+00	-5.485279e+01
8.800000e-07	9.795672e-07	-4.406805e-10	6.987675e+00	-2.942878e+01
8.900000e-07	1.131167e-06	-4.069488e-11	8.069100e+00	-2.879855e+00
9.000000e-07	1.282267e-06	3.748776e-10	9.146964e+00	2.467146e+01
9.100000e-07	1.432811e-06	8.058538e-10	1.022086e+01	5.304428e+01
9.200000e-07	1.582859e-06	1.251045e-09	1.129122e+01	8.200595e+01
9.300000e-07	1.732361e-06	1.705435e-09	1.235768e+01	1.112835e+02
9.400000e-07	1.881145e-06	2.159881e-09	1.341902e+01	1.405788e+02
9.500000e-07	2.029247e-06	2.606117e-09	1.447549e+01	1.695862e+02
9.600000e-07	2.176676e-06	3.039992e-09	1.552717e+01	1.980108e+02
9.700000e-07	2.323284e-06	3.458642e-09	1.657299e+01	2.255859e+02
9.800000e-07	2.469042e-06	3.858248e-09	1.761274e+01	2.520878e+02
9.900000e-07	2.613965e-06	4.238798e-09	1.864654e+01	2.773466e+02
1.000000e-06	2.757941e-06	4.598200e-09	1.967358e+01	3.012524e+02
1.010000e-06	2.900805e-06	4.935615e-09	2.069269e+01	3.237558e+02
1.020000e-06	3.042444e-06	5.252778e-09	2.170306e+01	3.448643e+02
1.030000e-06	3.182811e-06	5.553158e-09	2.270436e+01	3.646339e+02
1.040000e-06	3.321958e-06	5.837462e-09	2.369696e+01	3.831572e+02
1.050000e-06	3.459860e-06	6.102852e-09	2.468067e+01	4.005510e+02
1.060000e-06	3.596445e-06	6.353135e-09	2.565499e+01	4.169423e+02
1.070000e-06	3.731649e-06	6.592569e-09	2.661946e+01	4.324563e+02
1.080000e-06	3.865525e-06	6.821466e-09	2.757445e+01	4.472063e+02
1.090000e-06	3.997989e-06	7.039094e-09	2.851938e+01	4.612870e+02
1.100000e-06	4.129005e-06	7.245582e-09	2.945397e+01	4.747703e+02
1.110000e-06	4.258633e-06	7.441585e-09	3.037867e+01	4.877058e+02
1.120000e-06	4.386733e-06	7.626217e-09	3.129246e+01	5.001229e+02
1.130000e-06	4.513285e-06	7.800586e-09	3.219520e+01	5.120352e+02
1.140000e-06	4.638302e-06	7.968656e-09	3.308701e+01	5.234466e+02
1.150000e-06	4.761736e-06	8.132293e-09	3.396752e+01	5.343569e+02
1.160000e-06	4.883560e-06	8.289835e-09	3.483654e+01	5.447673e+02
1.170000e-06	5.003602e-06	8.441009e-09	3.569285e+01	5.546839e+02
1.180000e-06	5.121719e-06	8.585859e-09	3.653543e+01	5.641201e+02
1.190000e-06	5.237870e-06	8.724460e-09	3.736399e+01	5.730971e+02
1.200000e-06	5.352055e-06	8.857278e-09	3.817851e+01	5.816427e+02
1.210000e-06	5.464185e-06	8.983897e-09	3.897839e+01	5.897889e+02
1.220000e-06	5.574269e-06	9.105547e-09	3.976366e+01	5.975691e+02
1.230000e-06	5.682453e-06	9.220836e-09	4.053539e+01	6.050152e+02
1.240000e-06	5.788689e-06	9.328391e-09	4.129322e+01	6.121549e+02
1.250000e-06	5.892743e-06	9.431097e-09	4.203548e+01	6.190105e+02
1.260000e-06	5.994614e-06	9.531341e-09	4.276216e+01	6.255981e+02
1.270000e-06	6.094301e-06	9.627300e-09	4.347327e+01	6.319281e+02
1.280000e-06	6.191636e-06	9.717014e-09	4.416761e+01	6.380066e+02
1.290000e-06	6.286686e-06	9.803058e-09	4.484564e+01	6.438372e+02
1.300000e-06	6.379535e-06	9.887541e-09	4.550797e+01	6.494231e+02
1.310000e-06	6.470140e-06	9.968155e-09	4.615429e+01	6.547689e+02
1.320000e-06	6.558358e-06	1.004546e-08	4.678359e+01	6.598816e+02
1.330000e-06	6.644218e-06	1.011976e-08	4.739607e+01	6.647714e+02
1.340000e-06	6.727809e-06	1.019227e-08	4.799236e+01	6.694507e+02
1.350000e-06	6.809006e-06	1.026176e-08	4.857157e+01	6.739337e+02
1.360000e-06	6.887679e-06	1.032696e-08	4.913278e+01	6.782340e+02
1.370000e-06	6.963779e-06	1.039057e-08	4.967563e+01	6.823637e+02
1.380000e-06	7.037200e-06	1.045279e-08	5.019938e+01	6.863312e+02
1.390000e-06	7.108000e-06	1.051236e-08	5.070443e+01	6.901402e+02
1.400000e-06	7.176349e-06	1.056951e-08	5.119199e+01	6.937893e+02
1.410000e-06	7.242190e-06	1.062354e-08	5.166166e+01	6.972728e+02
1.420000e-06	7.305475e-06	1.067234e-08	5.211310e+01	7.005810e+02
1.430000e-06	7.366272e-06	1.071579e-08	5.254680e+01	7.037028e+02
1.440000e-06	7.424438e-06	1.075717e-08	5.296171e+01	7.066271e+02
1.450000e-06	7.479917e-06	1.079772e-08	5.335747e+01	7.093452e+02
1.460000e-06	7.532619e-06	1.083486e-08	5.373342e+01	7.118525e+02
1.470000e-06	7.582276e-06	1.087009e-08	5.408764e+01	7.141491e+02
1.480000e-06	7.629000e-06	1.090286e-08	5.442094e+01	7.162411e+02
1.490000e-06	7.673062e-06	1.093157e-08	5.473526e+01	7.181391e+02
1.500000e-06	7.714345e-06	1.095865e-08	5.502974e+01	7.198580e+02
1.510000e-06	7.752797e-06	1.098483e-08	5.530404e+01	7.214142e+02
1.520000e-06	7.788595e-06	1.101003e-08	5.555940e+01	7.228247e+02
1.530000e-06	7.821641e-06	1.103127e-08	5.579513e+01	7.241040e+02
1.540000e-06	7.851913e-06	1.104666e-08	5.601108e+01	7.252635e+02
1.550000e-06	7.879468e-06	1.105895e-08	5.620764e+01	7.263096e+02
1.560000e-06	7.904120e-06	1.107094e-08	5.638349e+01	7.272440e+02
1.570000e-06	7.925927e-06	1.108439e-08	5.653905e+01	7.280637e+02
1.580000e-06	7.945009e-06	1.109683e-08	5.667517e+01	7.287621e+02
1.590000e-06	7.961139e-06	1.110643e-08	5.679024e+01	7.293306e+02
1.600000e-06	7.974214e-06	1.111205e-08	5.688351e+01	7.297604e+02
1.610000e-06	7.984172e-06	1.111422e-08	5.695454e+01	7.300441e+02
1.620000e-06	7.991081e-06	1.111651e-08	5.700382e+01	7.301770e+02
1.630000e-06	7.995133e-06	1.111892e-08	5.703273e+01	7.301580e+02
1.640000e-06	7.996363e-06	1.112033e-08	5.704150e+01	7.299902e+02
1.650000e-06	7.994905e-06	1.111906e-08	5.703110e+01	7.296802e+02
1.660000e-06	7.990894e-06	1.111200e-08	5.700249e+01	7.292374e+02
1.670000e-06	7.984181e-06	1.110566e-08	5.695460e+01	7.286727e+02
1.680000e-06	7.974790e-06	1.109913e-08	5.688761e+01	7.279977e+02
1.690000e-06	7.962611e-06	1.108933e-08	5.680073e+01	7.272226e+02
1.700000e-06	7.947564e-06	1.107740e-08	5.669340e+01	7.263561e+02
1.710000e-06	7.930067e-06	1.106256e-08	5.656859e+01	7.254039e+02
1.720000e-06	7.910328e-06	1.103904e-08	5.642778e+01	7.243694e+02
1.730000e-06	7.887985e-06	1.099059e-08	5.626840e+01	7.232530e+02
1.740000e-06	7.862404e-06	1.096970e-08	5.608592e+01	7.220534e+02
1.750000e-06	7.833199e-06	1.097375e-08	5.587758e+01	7.207674e+02
1.760000e-06	7.800719e-06	1.096883e-08	5.564589e+01	7.193916e+02
1.770000e-06	7.765719e-06	1.095895e-08	5.539622e+01	7.179217e+02
1.780000e-06	7.728348e-06	1.094563e-08	5.512964e+01	7.163537e+02
1.790000e-06	7.688775e-06	1.089574e-08	5.484734e+01	7.146836e+02
1.800000e-06	7.647207e-06	1.083946e-08	5.455082e+01	7.129071e+02
1.810000e-06	7.603107e-06	1.084459e-08	5.423624e+01	7.110190e+02
1.820000e-06	7.556312e-06	1.081245e-08	5.390243e+01	7.090134e+02
1.830000e-06	7.506846e-06	1.081874e-08	5.354957e+01	7.068829e+02
1.840000e-06	7.454325e-06	1.081256e-08	5.317491e+01	7.046191e+02
1.850000e-06	7.398934e-06	1.075703e-08	5.277978e+01	7.022123e+02
1.860000e-06	7.340880e-06	1.073252e-08	5.236566e+01	6.996528e+02
1.870000e-06	7.280131e-06	1.064206e-08	5.193231e+01	6.969313e+02
1.880000e-06	7.216641e-06	1.059475e-08	5.147941e+01	6.940402e+02
1.890000e-06	7.150424e-06	1.055926e-08	5.100705e+01	6.909749e+02
1.900000e-06	7.081441e-06	1.051900e-08	5.051497e+01	6.877338e+02
1.910000e-06	7.009539e-06	1.048462e-08	5.000206e+01	6.843194e+02
1.920000e-06	6.934973e-06	1.040008e-08	4.947015e+01	6.807379e+02
1.930000e-06	6.857694e-06	1.034578e-08	4.891889e+01	6.769985e+02
1.940000e-06	6.777694e-06	1.026452e-08	4.834822e+01	6.731120e+02
1.950000e-06	6.695293e-06	1.021373e-08	4.776041e+01	6.690898e+02
1.960000e-06	6.610394e-06	1.017637e-08	4.715479e+01	6.649414e+02
1.970000e-06	6.522983e-06	1.011233e-08	4.653125e+01	6.606737e+02
1.980000e-06	6.433232e-06	1.005424e-08	4.589102e+01	6.562892e+02
1.990000e-06	6.341258e-06	9.971005e-09	4.523492e+01	6.517856e+02
2.000000e-06	6.247060e-06	9.897264e-09	4.456297e+01	6.471561e+02
2.010000e-06	6.150585e-06	9.806736e-09	4.387477e+01	6.423898e+02
2.020000e-06	6.051889e-06	9.734528e-09	4.317073e+01	6.374733e+02
2.030000e-06	5.950988e-06	9.661632e-09	4.245096e+01	6.323926e+02
2.040000e-06	5.848005e-06	9.588746e-09	4.171634e+01	6.271350e+02
2.050000e-06	5.742993e-06	9.512051e-09	4.096724e+01	6.216909e+02
2.060000e-06	5.636035e-06	9.418613e-09	4.020427e+01	6.160547e+02
2.070000e-06	5.527147e-06	9.321926e-09	3.942752e+01	6.102261e+02
2.080000e-06	5.416240e-06	9.216814e-09	3.863637e+01	6.042089e+02
2.090000e-06	5.303350e-06	9.125786e-09	3.783108e+01	5.980107e+02
2.100000e-06	5.188415e-06	9.035749e-09	3.701120e+01	5.916407e+02
2.110000e-06	5.071388e-06	8.949822e-09	3.617639e+01	5.851078e+02
2.120000e-06	4.952401e-06	8.849868e-09	3.532761e+01	5.784181e+02
2.130000e-06	4.831619e-06	8.743035e-09	3.446602e+01	5.715733e+02
2.140000e-06	4.709169e-06	8.629346e-09	3.359253e+01	5.645695e+02
2.150000e-06	4.585000e-06	8.517389e-09	3.270678e+01	5.573966e+02
2.160000e-06	4.459099e-06	8.406253e-09	3.180867e+01	5.500391e+02
2.170000e-06	4.331645e-06	8.290886e-09	3.089949e+01	5.424775e+02
2.180000e-06	4.202602e-06	8.172317e-09	2.997897e+01	5.346907e+02
2.190000e-06	4.072055e-06	8.048216e-09	2.904772e+01	5.266584e+02
2.200000e-06	3.939883e-06	7.918231e-09	2.810488e+01	5.183638e+02
2.210000e-06	3.806077e-06	7.782917e-09	2.715039e+01	5.097953e+02
2.220000e-06	3.670925e-06	7.652541e-09	2.618629e+01	5.009477e+02
2.230000e-06	3.534526e-06	7.520414e-09	2.521330e+01	4.918223e+02
2.240000e-06	3.396775e-06	7.382324e-09	2.423066e+01	4.824259e+02
2.250000e-06	3.257650e-06	7.236158e-09	2.323822e+01	4.727679e+02
2.260000e-06	3.117228e-06	7.085671e-09	2.223653e+01	4.628584e+02
2.270000e-06	2.975562e-06	6.926702e-09	2.122596e+01	4.527041e+02
2.280000e-06	2.832767e-06	6.761272e-09	2.020735e+01	4.423059e+02
2.290000e-06	2.689014e-06	6.596374e-09	1.918189e+01	4.316565e+02
2.300000e-06	2.544358e-06	6.432588e-09	1.815000e+01	4.207395e+02
2.310000e-06	2.398769e-06	6.265516e-09	1.711145e+01	4.095296e+02
2.320000e-06	2.252381e-06	6.092225e-09	1.606720e+01	3.979948e+02
2.330000e-06	2.105247e-06	5.913392e-09	1.501763e+01	3.860992e+02
2.340000e-06	1.957316e-06	5.724912e-09	1.396238e+01	3.738071e+02
2.350000e-06	1.808619e-06	5.526938e-09	1.290166e+01	3.610865e+02
2.360000e-06	1.659301e-06	5.323002e-09	1.183651e+01	3.479128e+02
2.370000e-06	1.509462e-06	5.113508e-09	1.076764e+01	3.342711e+02
2.380000e-06	1.359134e-06	4.900093e-09	9.695285e+00	3.201563e+02
2.390000e-06	1.208388e-06	4.680426e-09	8.619950e+00	3.055716e+02
2.400000e-06	1.057281e-06	4.451829e-09	7.542041e+00	2.905249e+02
2.410000e-06	9.058652e-07	4.214937e-09	6.461927e+00	2.750237e+02
2.420000e-06	7.542453e-07	3.972255e-09	5.380357e+00	2.590684e+02
2.430000e-06	6.024239e-07	3.724370e-09	4.297350e+00	2.426466e+02
2.440000e-06	4.504250e-07	3.467766e-09	3.213075e+00	2.257269e+02
2.450000e-06	2.983060e-07	3.199734e-09	2.127945e+00	2.082560e+02
2.460000e-06	1.460481e-07	2.919415e-09	1.041824e+00	1.901580e+02
2.470000e-06	-6.368448e-09	2.626656e-09	-4.542888e-02	1.713369e+02
2.480000e-06	-1.588921e-07	2.322049e-09	-1.133446e+00	1.516830e+02
2.490000e-06	-3.113536e-07	2.004316e-09	-2.221019e+00	1.310824e+02
2.500000e-06	-4.636649e-07	1.673818e-09	-3.307522e+00	1.094288e+02
2.510000e-06	-6.158534e-07	1.328375e-09	-4.393147e+00	8.663718e+01
2.520000e-06	-7.677992e-07	9.662261e-10	-5.477042e+00	6.265663e+01
2.530000e-06	-9.195013e-07	5.880040e-10	-6.559199e+00	3.748254e+01
2.540000e-06	-1.071005e-06	1.927361e-10	-7.639943e+00	1.116509e+01
2.550000e-06	-1.222150e-06	-2.197033e-10	-8.718122e+00	-1.618604e+01
2.560000e-06	-1.372844e-06	-6.499508e-10	-9.793087e+00	-4.440209e+01
2.570000e-06	-1.523070e-06	-1.095085e-09	-1.086471e+01	-7.326070e+01
2.580000e-06	-1.672812e-06	-1.548982e-09	-1.193289e+01	-1.024964e+02
2.590000e-06	-1.822002e-06	-2.004594e-09	-1.299712e+01	-1.318150e+02
2.600000e-06	-1.970420e-06	-2.455805e-09	-1.405586e+01	-1.609108e+02
2.610000e-06	-2.117967e-06	-2.898798e-09	-1.510837e+01	-1.894853e+02
2.620000e-06	-2.264706e-06	-3.325515e-09	-1.615513e+01	-2.172642e+02
2.630000e-06	-2.410663e-06	-3.728918e-09	-1.719630e+01	-2.440137e+02
2.640000e-06	-2.555659e-06	-4.111943e-09	-1.823062e+01	-2.695515e+02
2.650000e-06	-2.699579e-06	-4.477185e-09	-1.925726e+01	-2.937547e+02
2.660000e-06	-2.842495e-06	-4.822574e-09	-2.027674e+01	-3.165611e+02
2.670000e-06	-2.984388e-06	-5.147273e-09	-2.128893e+01	-3.379666e+02
2.680000e-06	-3.125126e-06	-5.455445e-09	-2.229287e+01	-3.580177e+02
2.690000e-06	-3.264532e-06	-5.746423e-09	-2.328731e+01	-3.768002e+02
2.700000e-06	-3.402646e-06	-6.017940e-09	-2.427254e+01	-3.944268e+02
2.710000e-06	-3.539460e-06	-6.271857e-09	-2.524849e+01	-4.110234e+02
2.720000e-06	-3.674929e-06	-6.514613e-09	-2.621486e+01	-4.267167e+02
2.730000e-06	-3.809144e-06	-6.747017e-09	-2.717226e+01	-4.416230e+02
2.740000e-06	-3.941958e-06	-6.967783e-09	-2.811968e+01	-4.558415e+02
2.750000e-06	-4.073300e-06	-7.179856e-09	-2.905660e+01	-4.694492e+02
2.760000e-06	-4.203286e-06	-7.383339e-09	-2.998385e+01	-4.825004e+02
2.770000e-06	-4.331810e-06	-7.577311e-09	-3.090067e+01	-4.950282e+02
2.780000e-06	-4.458886e-06	-7.759549e-09	-3.180716e+01	-5.070494e+02
2.790000e-06	-4.584548e-06	-7.931505e-09	-3.270355e+01	-5.185694e+02
2.800000e-06	-4.708496e-06	-8.095814e-09	-3.358773e+01	-5.295885e+02
2.810000e-06	-4.830711e-06	-8.253716e-09	-3.445954e+01	-5.401070e+02
2.820000e-06	-4.951191e-06	-8.404852e-09	-3.531898e+01	-5.501298e+02
2.830000e-06	-5.069838e-06	-8.550537e-09	-3.616534e+01	-5.596687e+02
2.840000e-06	-5.186516e-06	-8.692504e-09	-3.699765e+01	-5.687433e+02
2.850000e-06	-5.300970e-06	-8.829436e-09	-3.781411e+01	-5.773801e+02
2.860000e-06	-5.413328e-06	-8.956207e-09	-3.861560e+01	-5.856104e+02
2.870000e-06	-5.523676e-06	-9.074673e-09	-3.940276e+01	-5.934675e+02
2.880000e-06	-5.631971e-06	-9.190267e-09	-4.017528e+01	-6.009840e+02
2.890000e-06	-5.738331e-06	-9.301420e-09	-4.093399e+01	-6.081886e+02
2.900000e-06	-5.842695e-06	-9.407467e-09	-4.167846e+01	-6.151048e+02
2.910000e-06	-5.944887e-06	-9.506414e-09	-4.240744e+01	-6.217501e+02
2.920000e-06	-6.044841e-06	-9.600935e-09	-4.312046e+01	-6.281360e+02
2.930000e-06	-6.142650e-06	-9.692967e-09	-4.381817e+01	-6.342693e+02
2.940000e-06	-6.238284e-06	-9.782614e-09	-4.450037e+01	-6.401541e+02
