# Temperatura_=_30.7
# Concentracion g/m^3_=_10000.0
# C_Vs_to_Am_M_A/Vsm_=_65563218390.804596
# pendiente_HvsI_1/m_=_3716.3
# ordenada_HvsI_A/m_=_1297.0
# frecuencia_Hz_=_302613.64400359173

Tiempo_(s)	Campo_(V.s)	Magnetizacion_(V.s)	Campo_(kA/m)	Magnetizacion_(A/m)
0.000000e+00	-7.941398e-06	-8.270687e-09	-5.683692e+01	-5.424444e+02
1.000000e-08	-7.939207e-06	-8.272525e-09	-5.682124e+01	-5.422297e+02
2.000000e-08	-7.934251e-06	-8.270271e-09	-5.678576e+01	-5.419187e+02
3.000000e-08	-7.926725e-06	-8.264269e-09	-5.673190e+01	-5.415211e+02
4.000000e-08	-7.916494e-06	-8.259340e-09	-5.665867e+01	-5.410490e+02
5.000000e-08	-7.903368e-06	-8.251057e-09	-5.656474e+01	-5.405155e+02
6.000000e-08	-7.887265e-06	-8.239108e-09	-5.644948e+01	-5.399330e+02
7.000000e-08	-7.868551e-06	-8.229892e-09	-5.631554e+01	-5.393113e+02
8.000000e-08	-7.847608e-06	-8.222907e-09	-5.616566e+01	-5.386567e+02
9.000000e-08	-7.824027e-06	-8.254588e-09	-5.599688e+01	-5.379708e+02
1.000000e-07	-7.797272e-06	-8.272483e-09	-5.580540e+01	-5.372508e+02
1.100000e-07	-7.767364e-06	-8.213331e-09	-5.559135e+01	-5.364898e+02
1.200000e-07	-7.734586e-06	-8.168381e-09	-5.535676e+01	-5.356775e+02
1.300000e-07	-7.699138e-06	-8.151190e-09	-5.510305e+01	-5.348018e+02
1.400000e-07	-7.661255e-06	-8.119050e-09	-5.483192e+01	-5.338504e+02
1.500000e-07	-7.621303e-06	-8.084168e-09	-5.454598e+01	-5.328117e+02
1.600000e-07	-7.579151e-06	-8.116337e-09	-5.424430e+01	-5.316763e+02
1.700000e-07	-7.534258e-06	-8.127446e-09	-5.392300e+01	-5.304380e+02
1.800000e-07	-7.486669e-06	-8.019618e-09	-5.358240e+01	-5.290934e+02
1.900000e-07	-7.436258e-06	-8.023994e-09	-5.322161e+01	-5.276424e+02
2.000000e-07	-7.382810e-06	-8.011697e-09	-5.283908e+01	-5.260874e+02
2.100000e-07	-7.326598e-06	-7.941558e-09	-5.243676e+01	-5.244323e+02
2.200000e-07	-7.267694e-06	-7.967345e-09	-5.201519e+01	-5.226820e+02
2.300000e-07	-7.206124e-06	-7.955341e-09	-5.157453e+01	-5.208412e+02
2.400000e-07	-7.141958e-06	-7.924651e-09	-5.111529e+01	-5.189136e+02
2.500000e-07	-7.075041e-06	-7.866309e-09	-5.063637e+01	-5.169017e+02
2.600000e-07	-7.005460e-06	-7.839849e-09	-5.013837e+01	-5.148067e+02
2.700000e-07	-6.933215e-06	-7.809205e-09	-4.962131e+01	-5.126280e+02
2.800000e-07	-6.858155e-06	-7.752554e-09	-4.908410e+01	-5.103645e+02
2.900000e-07	-6.780283e-06	-7.730762e-09	-4.852677e+01	-5.080137e+02
3.000000e-07	-6.699598e-06	-7.702287e-09	-4.794930e+01	-5.055734e+02
3.100000e-07	-6.616480e-06	-7.679706e-09	-4.735442e+01	-5.030411e+02
3.200000e-07	-6.531163e-06	-7.624664e-09	-4.674380e+01	-5.004143e+02
3.300000e-07	-6.443571e-06	-7.569705e-09	-4.611691e+01	-4.976911e+02
3.400000e-07	-6.353648e-06	-7.535215e-09	-4.547332e+01	-4.948692e+02
3.500000e-07	-6.261385e-06	-7.488722e-09	-4.481299e+01	-4.919461e+02
3.600000e-07	-6.166894e-06	-7.450504e-09	-4.413672e+01	-4.889191e+02
3.700000e-07	-6.070158e-06	-7.413683e-09	-4.344437e+01	-4.857846e+02
3.800000e-07	-5.971156e-06	-7.367928e-09	-4.273581e+01	-4.825384e+02
3.900000e-07	-5.869973e-06	-7.301314e-09	-4.201164e+01	-4.791759e+02
4.000000e-07	-5.766694e-06	-7.240231e-09	-4.127247e+01	-4.756921e+02
4.100000e-07	-5.661386e-06	-7.186539e-09	-4.051877e+01	-4.720822e+02
4.200000e-07	-5.554134e-06	-7.131901e-09	-3.975117e+01	-4.683422e+02
4.300000e-07	-5.444971e-06	-7.086326e-09	-3.896989e+01	-4.644690e+02
4.400000e-07	-5.333893e-06	-7.032030e-09	-3.817489e+01	-4.604605e+02
4.500000e-07	-5.220786e-06	-6.963703e-09	-3.736538e+01	-4.563162e+02
4.600000e-07	-5.105583e-06	-6.885077e-09	-3.654087e+01	-4.520361e+02
4.700000e-07	-4.988416e-06	-6.810985e-09	-3.570230e+01	-4.476208e+02
4.800000e-07	-4.869447e-06	-6.743877e-09	-3.485083e+01	-4.430704e+02
4.900000e-07	-4.748678e-06	-6.683545e-09	-3.398648e+01	-4.383838e+02
5.000000e-07	-4.626123e-06	-6.621070e-09	-3.310936e+01	-4.335582e+02
5.100000e-07	-4.501953e-06	-6.543100e-09	-3.222067e+01	-4.285885e+02
5.200000e-07	-4.376197e-06	-6.456235e-09	-3.132063e+01	-4.234669e+02
5.300000e-07	-4.248837e-06	-6.371001e-09	-3.040910e+01	-4.181836e+02
5.400000e-07	-4.119897e-06	-6.283293e-09	-2.948628e+01	-4.127270e+02
5.500000e-07	-3.989377e-06	-6.191057e-09	-2.855214e+01	-4.070849e+02
5.600000e-07	-3.857337e-06	-6.104260e-09	-2.760712e+01	-4.012454e+02
5.700000e-07	-3.723849e-06	-6.023892e-09	-2.665174e+01	-3.951983e+02
5.800000e-07	-3.588996e-06	-5.934260e-09	-2.568660e+01	-3.889355e+02
5.900000e-07	-3.452757e-06	-5.830353e-09	-2.471152e+01	-3.824521e+02
6.000000e-07	-3.315129e-06	-5.723606e-09	-2.372652e+01	-3.757458e+02
6.100000e-07	-3.176188e-06	-5.615804e-09	-2.273211e+01	-3.688167e+02
6.200000e-07	-3.035929e-06	-5.502786e-09	-2.172827e+01	-3.616662e+02
6.300000e-07	-2.894304e-06	-5.392803e-09	-2.071465e+01	-3.542954e+02
6.400000e-07	-2.751490e-06	-5.285740e-09	-1.969253e+01	-3.467034e+02
6.500000e-07	-2.607634e-06	-5.168125e-09	-1.866294e+01	-3.388863e+02
6.600000e-07	-2.462800e-06	-5.037589e-09	-1.762636e+01	-3.308353e+02
6.700000e-07	-2.317162e-06	-4.902964e-09	-1.658403e+01	-3.225368e+02
6.800000e-07	-2.170778e-06	-4.771599e-09	-1.553635e+01	-3.139725e+02
6.900000e-07	-2.023636e-06	-4.638487e-09	-1.448325e+01	-3.051202e+02
7.000000e-07	-1.875793e-06	-4.502123e-09	-1.342513e+01	-2.959557e+02
7.100000e-07	-1.727411e-06	-4.359164e-09	-1.236315e+01	-2.864547e+02
7.200000e-07	-1.578542e-06	-4.206033e-09	-1.129769e+01	-2.765952e+02
7.300000e-07	-1.429213e-06	-4.046156e-09	-1.022894e+01	-2.663594e+02
7.400000e-07	-1.279427e-06	-3.882346e-09	-9.156910e+00	-2.557349e+02
7.500000e-07	-1.129184e-06	-3.716011e-09	-8.081616e+00	-2.447150e+02
7.600000e-07	-9.785972e-07	-3.545184e-09	-7.003861e+00	-2.332980e+02
7.700000e-07	-8.276756e-07	-3.366939e-09	-5.923709e+00	-2.214849e+02
7.800000e-07	-6.764296e-07	-3.181513e-09	-4.841235e+00	-2.092767e+02
7.900000e-07	-5.249656e-07	-2.990292e-09	-3.757201e+00	-1.966707e+02
8.000000e-07	-3.733251e-07	-2.792734e-09	-2.671904e+00	-1.836570e+02
8.100000e-07	-2.214808e-07	-2.587788e-09	-1.585147e+00	-1.702152e+02
8.200000e-07	-6.940027e-08	-2.372978e-09	-4.967006e-01	-1.563129e+02
8.300000e-07	8.278145e-08	-2.150348e-09	5.924703e-01	-1.419049e+02
8.400000e-07	2.349143e-07	-1.922006e-09	1.681291e+00	-1.269354e+02
8.500000e-07	3.869644e-07	-1.684796e-09	2.769520e+00	-1.113418e+02
8.600000e-07	5.388589e-07	-1.436977e-09	3.856636e+00	-9.506093e+01
8.700000e-07	6.905943e-07	-1.179020e-09	4.942612e+00	-7.803584e+01
8.800000e-07	8.421471e-07	-9.107616e-10	6.027282e+00	-6.022472e+01
8.900000e-07	9.934015e-07	-6.283652e-10	7.109816e+00	-4.160881e+01
9.000000e-07	1.144295e-06	-3.345283e-10	8.189766e+00	-2.219967e+01
9.100000e-07	1.294813e-06	-3.326911e-11	9.267034e+00	-2.044499e+00
9.200000e-07	1.444837e-06	2.804925e-10	1.034076e+01	1.877132e+01
9.300000e-07	1.594289e-06	6.084004e-10	1.141040e+01	4.012480e+01
9.400000e-07	1.743198e-06	9.447512e-10	1.247614e+01	6.185929e+01
9.500000e-07	1.891487e-06	1.282999e-09	1.353745e+01	8.379161e+01
9.600000e-07	2.039155e-06	1.620117e-09	1.459432e+01	1.057217e+02
9.700000e-07	2.186119e-06	1.953909e-09	1.564615e+01	1.274443e+02
9.800000e-07	2.332229e-06	2.281162e-09	1.669186e+01	1.487604e+02
9.900000e-07	2.477508e-06	2.595543e-09	1.773163e+01	1.694897e+02
1.000000e-06	2.621855e-06	2.898146e-09	1.876472e+01	1.894796e+02
1.010000e-06	2.765164e-06	3.187147e-09	1.979040e+01	2.086133e+02
1.020000e-06	2.907361e-06	3.460901e-09	2.080810e+01	2.268135e+02
1.030000e-06	3.048307e-06	3.720190e-09	2.181686e+01	2.440432e+02
1.040000e-06	3.188064e-06	3.965773e-09	2.281711e+01	2.603028e+02
1.050000e-06	3.326641e-06	4.199189e-09	2.380891e+01	2.756246e+02
1.060000e-06	3.463946e-06	4.419024e-09	2.479160e+01	2.900647e+02
1.070000e-06	3.599898e-06	4.626479e-09	2.576462e+01	3.036942e+02
1.080000e-06	3.734458e-06	4.823934e-09	2.672767e+01	3.165899e+02
1.090000e-06	3.867671e-06	5.010611e-09	2.768108e+01	3.288261e+02
1.100000e-06	3.999486e-06	5.186961e-09	2.862449e+01	3.404680e+02
1.110000e-06	4.129863e-06	5.357555e-09	2.955760e+01	3.515675e+02
1.120000e-06	4.258854e-06	5.521225e-09	3.048079e+01	3.621615e+02
1.130000e-06	4.386366e-06	5.676400e-09	3.139340e+01	3.722724e+02
1.140000e-06	4.512329e-06	5.824926e-09	3.229493e+01	3.819112e+02
1.150000e-06	4.636735e-06	5.964861e-09	3.318530e+01	3.910810e+02
1.160000e-06	4.759566e-06	6.095769e-09	3.406441e+01	3.997826e+02
1.170000e-06	4.880752e-06	6.218234e-09	3.493174e+01	4.080182e+02
1.180000e-06	5.000091e-06	6.333642e-09	3.578586e+01	4.157962e+02
1.190000e-06	5.117557e-06	6.443975e-09	3.662657e+01	4.231328e+02
1.200000e-06	5.233182e-06	6.548177e-09	3.745410e+01	4.300532e+02
1.210000e-06	5.346844e-06	6.648496e-09	3.826758e+01	4.365908e+02
1.220000e-06	5.458420e-06	6.745343e-09	3.906614e+01	4.427848e+02
1.230000e-06	5.568014e-06	6.838117e-09	3.985051e+01	4.486768e+02
1.240000e-06	5.675701e-06	6.924864e-09	4.062123e+01	4.543075e+02
1.250000e-06	5.781367e-06	7.007815e-09	4.137749e+01	4.597123e+02
1.260000e-06	5.884865e-06	7.089786e-09	4.211822e+01	4.649194e+02
1.270000e-06	5.986150e-06	7.167477e-09	4.284313e+01	4.699470e+02
1.280000e-06	6.085278e-06	7.238210e-09	4.355259e+01	4.748037e+02
1.290000e-06	6.182091e-06	7.305114e-09	4.424548e+01	4.794889e+02
1.300000e-06	6.276551e-06	7.370913e-09	4.492153e+01	4.839948e+02
1.310000e-06	6.368808e-06	7.434950e-09	4.558182e+01	4.883094e+02
1.320000e-06	6.458792e-06	7.496323e-09	4.622584e+01	4.924198e+02
1.330000e-06	6.546424e-06	7.555591e-09	4.685303e+01	4.963151e+02
1.340000e-06	6.631759e-06	7.611608e-09	4.746377e+01	4.999890e+02
1.350000e-06	6.714820e-06	7.663752e-09	4.805824e+01	5.034412e+02
1.360000e-06	6.795454e-06	7.712749e-09	4.863535e+01	5.066781e+02
1.370000e-06	6.873578e-06	7.758875e-09	4.919448e+01	5.097124e+02
1.380000e-06	6.949142e-06	7.802976e-09	4.973530e+01	5.125609e+02
1.390000e-06	7.022001e-06	7.844091e-09	5.025675e+01	5.152430e+02
1.400000e-06	7.092327e-06	7.883157e-09	5.076008e+01	5.177777e+02
1.410000e-06	7.160232e-06	7.921864e-09	5.124608e+01	5.201817e+02
1.420000e-06	7.225542e-06	7.958131e-09	5.171350e+01	5.224674e+02
1.430000e-06	7.288285e-06	7.991079e-09	5.216256e+01	5.246417e+02
1.440000e-06	7.348595e-06	8.021737e-09	5.259420e+01	5.267062e+02
1.450000e-06	7.406349e-06	8.049978e-09	5.300755e+01	5.286578e+02
1.460000e-06	7.461366e-06	8.076244e-09	5.340131e+01	5.304897e+02
1.470000e-06	7.513543e-06	8.100075e-09	5.377474e+01	5.321943e+02
1.480000e-06	7.562658e-06	8.122780e-09	5.412626e+01	5.337642e+02
1.490000e-06	7.608856e-06	8.144641e-09	5.445690e+01	5.351947e+02
1.500000e-06	7.652461e-06	8.163836e-09	5.476898e+01	5.364851e+02
1.510000e-06	7.693341e-06	8.182045e-09	5.506156e+01	5.376388e+02
1.520000e-06	7.731447e-06	8.200690e-09	5.533429e+01	5.386641e+02
1.530000e-06	7.766882e-06	8.218524e-09	5.558790e+01	5.395723e+02
1.540000e-06	7.799542e-06	8.233373e-09	5.582165e+01	5.403768e+02
1.550000e-06	7.829431e-06	8.244328e-09	5.603557e+01	5.410914e+02
1.560000e-06	7.856587e-06	8.253746e-09	5.622992e+01	5.417280e+02
1.570000e-06	7.880834e-06	8.261837e-09	5.640346e+01	5.422955e+02
1.580000e-06	7.902230e-06	8.269313e-09	5.655659e+01	5.427985e+02
1.590000e-06	7.920922e-06	8.277006e-09	5.669037e+01	5.432371e+02
1.600000e-06	7.936698e-06	8.284254e-09	5.680328e+01	5.436073e+02
1.610000e-06	7.949344e-06	8.289722e-09	5.689379e+01	5.439018e+02
1.620000e-06	7.958790e-06	8.292143e-09	5.696139e+01	5.441118e+02
1.630000e-06	7.965304e-06	8.294505e-09	5.700801e+01	5.442286e+02
1.640000e-06	7.969083e-06	8.297223e-09	5.703506e+01	5.442453e+02
1.650000e-06	7.969983e-06	8.299406e-09	5.704150e+01	5.441584e+02
1.660000e-06	7.968198e-06	8.296715e-09	5.702873e+01	5.439685e+02
1.670000e-06	7.963864e-06	8.288537e-09	5.699771e+01	5.436804e+02
1.680000e-06	7.956791e-06	8.283558e-09	5.694709e+01	5.433029e+02
1.690000e-06	7.947045e-06	8.278189e-09	5.687733e+01	5.428478e+02
1.700000e-06	7.934547e-06	8.271811e-09	5.678788e+01	5.423281e+02
1.710000e-06	7.919256e-06	8.267855e-09	5.667845e+01	5.417564e+02
1.720000e-06	7.901536e-06	8.261201e-09	5.655162e+01	5.411433e+02
1.730000e-06	7.881608e-06	8.237168e-09	5.640900e+01	5.404961e+02
1.740000e-06	7.859027e-06	8.154108e-09	5.624739e+01	5.398177e+02
1.750000e-06	7.833114e-06	8.143431e-09	5.606192e+01	5.391063e+02
1.760000e-06	7.803575e-06	8.186554e-09	5.585051e+01	5.383560e+02
1.770000e-06	7.770852e-06	8.181952e-09	5.561631e+01	5.375572e+02
1.780000e-06	7.735746e-06	8.182898e-09	5.536506e+01	5.366981e+02
1.790000e-06	7.698266e-06	8.212165e-09	5.509681e+01	5.357664e+02
1.800000e-06	7.658589e-06	8.181296e-09	5.481284e+01	5.347500e+02
1.810000e-06	7.616924e-06	8.099059e-09	5.451464e+01	5.336391e+02
1.820000e-06	7.572691e-06	8.149503e-09	5.419806e+01	5.324265e+02
1.830000e-06	7.525769e-06	8.115305e-09	5.386224e+01	5.311082e+02
1.840000e-06	7.476161e-06	8.109042e-09	5.350719e+01	5.296832e+02
1.850000e-06	7.423481e-06	8.131050e-09	5.313017e+01	5.281535e+02
1.860000e-06	7.367956e-06	8.020070e-09	5.273277e+01	5.265226e+02
1.870000e-06	7.309766e-06	8.006231e-09	5.231630e+01	5.247953e+02
1.880000e-06	7.248906e-06	7.935006e-09	5.188072e+01	5.229762e+02
1.890000e-06	7.185356e-06	7.947522e-09	5.142589e+01	5.210696e+02
1.900000e-06	7.119036e-06	7.962058e-09	5.095124e+01	5.190782e+02
1.910000e-06	7.049946e-06	7.895409e-09	5.045675e+01	5.170035e+02
1.920000e-06	6.977995e-06	7.906658e-09	4.994180e+01	5.148455e+02
1.930000e-06	6.903420e-06	7.811251e-09	4.940806e+01	5.126029e+02
1.940000e-06	6.826141e-06	7.785406e-09	4.885498e+01	5.102737e+02
1.950000e-06	6.746137e-06	7.738725e-09	4.828238e+01	5.078556e+02
1.960000e-06	6.663699e-06	7.702895e-09	4.769237e+01	5.053461e+02
1.970000e-06	6.578795e-06	7.702703e-09	4.708471e+01	5.027428e+02
1.980000e-06	6.491419e-06	7.633015e-09	4.645936e+01	5.000434e+02
1.990000e-06	6.401704e-06	7.620627e-09	4.581726e+01	4.972460e+02
2.000000e-06	6.309855e-06	7.548141e-09	4.515989e+01	4.943480e+02
2.010000e-06	6.215770e-06	7.491899e-09	4.448652e+01	4.913469e+02
2.020000e-06	6.119359e-06	7.431618e-09	4.379651e+01	4.882392e+02
2.030000e-06	6.020798e-06	7.394918e-09	4.309110e+01	4.850209e+02
2.040000e-06	5.920064e-06	7.364492e-09	4.237015e+01	4.816875e+02
2.050000e-06	5.817130e-06	7.314098e-09	4.163344e+01	4.782341e+02
2.060000e-06	5.712135e-06	7.266511e-09	4.088198e+01	4.746557e+02
2.070000e-06	5.605295e-06	7.176357e-09	4.011733e+01	4.709482e+02
2.080000e-06	5.496599e-06	7.106237e-09	3.933939e+01	4.671080e+02
2.090000e-06	5.385863e-06	7.044242e-09	3.854684e+01	4.631331e+02
2.100000e-06	5.273086e-06	7.007140e-09	3.773970e+01	4.590224e+02
2.110000e-06	5.158357e-06	6.954744e-09	3.691857e+01	4.547758e+02
2.120000e-06	5.041596e-06	6.896241e-09	3.608292e+01	4.503938e+02
2.130000e-06	4.922839e-06	6.814459e-09	3.523296e+01	4.458767e+02
2.140000e-06	4.802240e-06	6.722736e-09	3.436983e+01	4.412240e+02
2.150000e-06	4.679919e-06	6.641322e-09	3.349437e+01	4.364331e+02
2.160000e-06	4.555990e-06	6.575610e-09	3.260741e+01	4.314996e+02
2.170000e-06	4.430349e-06	6.514141e-09	3.170819e+01	4.264164e+02
2.180000e-06	4.302951e-06	6.439173e-09	3.079640e+01	4.211741e+02
2.190000e-06	4.173947e-06	6.362413e-09	2.987311e+01	4.157616e+02
2.200000e-06	4.043522e-06	6.269680e-09	2.893966e+01	4.101666e+02
2.210000e-06	3.911649e-06	6.169742e-09	2.799584e+01	4.043771e+02
2.220000e-06	3.778219e-06	6.069029e-09	2.704087e+01	3.983823e+02
2.230000e-06	3.643320e-06	5.980910e-09	2.607539e+01	3.921736e+02
2.240000e-06	3.507128e-06	5.886899e-09	2.510066e+01	3.857452e+02
2.250000e-06	3.369650e-06	5.789344e-09	2.411673e+01	3.790943e+02
2.260000e-06	3.230885e-06	5.688887e-09	2.312358e+01	3.722204e+02
2.270000e-06	3.090828e-06	5.582423e-09	2.212119e+01	3.651247e+02
2.280000e-06	2.949464e-06	5.463171e-09	2.110943e+01	3.578085e+02
2.290000e-06	2.806977e-06	5.343286e-09	2.008965e+01	3.502716e+02
2.300000e-06	2.663485e-06	5.230989e-09	1.906268e+01	3.425110e+02
2.310000e-06	2.519048e-06	5.117267e-09	1.802893e+01	3.345191e+02
2.320000e-06	2.373736e-06	4.997776e-09	1.698893e+01	3.262837e+02
2.330000e-06	2.227649e-06	4.867548e-09	1.594338e+01	3.177874e+02
2.340000e-06	2.080864e-06	4.727204e-09	1.489283e+01	3.090089e+02
2.350000e-06	1.933377e-06	4.578577e-09	1.383726e+01	2.999243e+02
2.360000e-06	1.785273e-06	4.430979e-09	1.277727e+01	2.905091e+02
2.370000e-06	1.636596e-06	4.286810e-09	1.171319e+01	2.807407e+02
2.380000e-06	1.487350e-06	4.139072e-09	1.064503e+01	2.705999e+02
2.390000e-06	1.337594e-06	3.983133e-09	9.573219e+00	2.600730e+02
2.400000e-06	1.187374e-06	3.816350e-09	8.498086e+00	2.491519e+02
2.410000e-06	1.036739e-06	3.640858e-09	7.419987e+00	2.378337e+02
2.420000e-06	8.857651e-07	3.460168e-09	6.339458e+00	2.261191e+02
2.430000e-06	7.345024e-07	3.276068e-09	5.256864e+00	2.140093e+02
2.440000e-06	5.829927e-07	3.088748e-09	4.172503e+00	2.015029e+02
2.450000e-06	4.313031e-07	2.893856e-09	3.086854e+00	1.885922e+02
2.460000e-06	2.794801e-07	2.690506e-09	2.000251e+00	1.752596e+02
2.470000e-06	1.275330e-07	2.477959e-09	9.127591e-01	1.614757e+02
2.480000e-06	-2.450311e-08	2.256601e-09	-1.753698e-01	1.471985e+02
2.490000e-06	-1.765328e-07	2.025677e-09	-1.263452e+00	1.323747e+02
2.500000e-06	-3.285436e-07	1.785905e-09	-2.351400e+00	1.169428e+02
2.510000e-06	-4.804722e-07	1.539221e-09	-3.438759e+00	1.008390e+02
2.520000e-06	-6.322113e-07	1.282581e-09	-4.524763e+00	8.400418e+01
2.530000e-06	-7.837456e-07	1.015239e-09	-5.609300e+00	6.639194e+01
2.540000e-06	-9.350394e-07	7.352017e-10	-6.692116e+00	4.797701e+01
2.550000e-06	-1.086057e-06	4.435572e-10	-7.772956e+00	2.876280e+01
2.560000e-06	-1.236701e-06	1.424185e-10	-8.851118e+00	8.787219e+00
2.570000e-06	-1.386832e-06	-1.697692e-10	-9.925617e+00	-1.187396e+01
2.580000e-06	-1.536425e-06	-4.923103e-10	-1.099626e+01	-3.310691e+01
2.590000e-06	-1.685479e-06	-8.248086e-10	-1.206304e+01	-5.476286e+01
2.600000e-06	-1.833922e-06	-1.161790e-09	-1.312545e+01	-7.666442e+01
2.610000e-06	-1.981669e-06	-1.502195e-09	-1.418289e+01	-9.861478e+01
2.620000e-06	-2.128662e-06	-1.841817e-09	-1.523492e+01	-1.204087e+02
2.630000e-06	-2.274849e-06	-2.171628e-09	-1.628119e+01	-1.418447e+02
2.640000e-06	-2.420153e-06	-2.486339e-09	-1.732113e+01	-1.627367e+02
2.650000e-06	-2.564520e-06	-2.788097e-09	-1.835438e+01	-1.829243e+02
2.660000e-06	-2.707928e-06	-3.081047e-09	-1.938075e+01	-2.022813e+02
2.670000e-06	-2.850294e-06	-3.361928e-09	-2.039967e+01	-2.207203e+02
2.680000e-06	-2.991512e-06	-3.627674e-09	-2.141038e+01	-2.381944e+02
2.690000e-06	-3.131514e-06	-3.879451e-09	-2.241237e+01	-2.546950e+02
2.700000e-06	-3.270255e-06	-4.118652e-09	-2.340535e+01	-2.702472e+02
2.710000e-06	-3.407723e-06	-4.345466e-09	-2.438921e+01	-2.849019e+02
2.720000e-06	-3.543907e-06	-4.560197e-09	-2.536389e+01	-2.987274e+02
2.730000e-06	-3.678828e-06	-4.763483e-09	-2.632953e+01	-3.117997e+02
2.740000e-06	-3.812486e-06	-4.954486e-09	-2.728612e+01	-3.241946e+02
2.750000e-06	-3.944719e-06	-5.133123e-09	-2.823252e+01	-3.359801e+02
2.760000e-06	-4.075504e-06	-5.303472e-09	-2.916855e+01	-3.472116e+02
2.770000e-06	-4.204928e-06	-5.467608e-09	-3.009484e+01	-3.579297e+02
2.780000e-06	-4.332886e-06	-5.624371e-09	-3.101064e+01	-3.681604e+02
2.790000e-06	-4.459361e-06	-5.771711e-09	-3.191584e+01	-3.779171e+02
2.800000e-06	-4.584336e-06	-5.910473e-09	-3.281028e+01	-3.872046e+02
2.810000e-06	-4.707666e-06	-6.043216e-09	-3.369296e+01	-3.960235e+02
2.820000e-06	-4.829312e-06	-6.171106e-09	-3.456358e+01	-4.043756e+02
2.830000e-06	-4.949203e-06	-6.291650e-09	-3.542165e+01	-4.122672e+02
2.840000e-06	-5.067195e-06	-6.405238e-09	-3.626612e+01	-4.197125e+02
2.850000e-06	-5.183124e-06	-6.513886e-09	-3.709583e+01	-4.267345e+02
2.860000e-06	-5.296941e-06	-6.616748e-09	-3.791042e+01	-4.333648e+02
2.870000e-06	-5.408731e-06	-6.713250e-09	-3.871051e+01	-4.396412e+02
2.880000e-06	-5.518469e-06	-6.803291e-09	-3.949591e+01	-4.456053e+02
2.890000e-06	-5.626227e-06	-6.889903e-09	-4.026714e+01	-4.512981e+02
2.900000e-06	-5.732062e-06	-6.974205e-09	-4.102461e+01	-4.567569e+02
2.910000e-06	-5.835788e-06	-7.056015e-09	-4.176698e+01	-4.620117e+02
2.920000e-06	-5.937293e-06	-7.134417e-09	-4.249345e+01	-4.670834e+02
2.930000e-06	-6.036588e-06	-7.208995e-09	-4.320411e+01	-4.719830e+02
2.940000e-06	-6.133730e-06	-7.280848e-09	-4.389936e+01	-4.767120e+02
