# Temperatura_=_43.7
# Concentracion g/m^3_=_10000.0
# C_Vs_to_Am_M_A/Vsm_=_65563218390.804596
# pendiente_HvsI_1/m_=_3716.3
# ordenada_HvsI_A/m_=_1297.0
# frecuencia_Hz_=_302615.93047961575

Tiempo_(s)	Campo_(V.s)	Magnetizacion_(V.s)	Campo_(kA/m)	Magnetizacion_(A/m)
0.000000e+00	-7.869947e-06	-8.631119e-09	-5.683473e+01	-5.655807e+02
1.000000e-08	-7.867560e-06	-8.633804e-09	-5.681749e+01	-5.653332e+02
2.000000e-08	-7.862489e-06	-8.631748e-09	-5.678087e+01	-5.649871e+02
3.000000e-08	-7.854936e-06	-8.625746e-09	-5.672633e+01	-5.645563e+02
4.000000e-08	-7.844621e-06	-8.614673e-09	-5.665183e+01	-5.640564e+02
5.000000e-08	-7.831362e-06	-8.600398e-09	-5.655608e+01	-5.635023e+02
6.000000e-08	-7.815205e-06	-8.586760e-09	-5.643940e+01	-5.629062e+02
7.000000e-08	-7.796587e-06	-8.575726e-09	-5.630495e+01	-5.622762e+02
8.000000e-08	-7.775794e-06	-8.574241e-09	-5.615478e+01	-5.616153e+02
9.000000e-08	-7.752278e-06	-8.609112e-09	-5.598496e+01	-5.609207e+02
1.000000e-07	-7.725548e-06	-8.611882e-09	-5.579192e+01	-5.601849e+02
1.100000e-07	-7.695749e-06	-8.560249e-09	-5.557672e+01	-5.593963e+02
1.200000e-07	-7.663164e-06	-8.525016e-09	-5.534140e+01	-5.585410e+02
1.300000e-07	-7.627892e-06	-8.502406e-09	-5.508667e+01	-5.576046e+02
1.400000e-07	-7.590170e-06	-8.455485e-09	-5.481426e+01	-5.565737e+02
1.500000e-07	-7.550350e-06	-8.414105e-09	-5.452668e+01	-5.554376e+02
1.600000e-07	-7.508316e-06	-8.483482e-09	-5.422312e+01	-5.541891e+02
1.700000e-07	-7.463659e-06	-8.460733e-09	-5.390062e+01	-5.528248e+02
1.800000e-07	-7.416338e-06	-8.395967e-09	-5.355889e+01	-5.513449e+02
1.900000e-07	-7.366171e-06	-8.427396e-09	-5.319659e+01	-5.497528e+02
2.000000e-07	-7.313013e-06	-8.339293e-09	-5.281270e+01	-5.480537e+02
2.100000e-07	-7.257094e-06	-8.280226e-09	-5.240887e+01	-5.462537e+02
2.200000e-07	-7.198534e-06	-8.265924e-09	-5.198596e+01	-5.443587e+02
2.300000e-07	-7.137401e-06	-8.234700e-09	-5.154447e+01	-5.423734e+02
2.400000e-07	-7.073657e-06	-8.238051e-09	-5.108413e+01	-5.403011e+02
2.500000e-07	-7.007132e-06	-8.204464e-09	-5.060371e+01	-5.381433e+02
2.600000e-07	-6.937930e-06	-8.178527e-09	-5.010394e+01	-5.358998e+02
2.700000e-07	-6.866136e-06	-8.145845e-09	-4.958546e+01	-5.335695e+02
2.800000e-07	-6.791536e-06	-8.105669e-09	-4.904672e+01	-5.311506e+02
2.900000e-07	-6.714086e-06	-8.061764e-09	-4.848740e+01	-5.286414e+02
3.000000e-07	-6.633916e-06	-8.035976e-09	-4.790844e+01	-5.260403e+02
3.100000e-07	-6.551313e-06	-8.012289e-09	-4.731190e+01	-5.233463e+02
3.200000e-07	-6.466542e-06	-7.930095e-09	-4.669970e+01	-5.205587e+02
3.300000e-07	-6.379589e-06	-7.884001e-09	-4.607175e+01	-5.176765e+02
3.400000e-07	-6.290335e-06	-7.852408e-09	-4.542718e+01	-5.146984e+02
3.500000e-07	-6.198808e-06	-7.793593e-09	-4.476620e+01	-5.116220e+02
3.600000e-07	-6.105100e-06	-7.743884e-09	-4.408946e+01	-5.084436e+02
3.700000e-07	-6.009078e-06	-7.710335e-09	-4.339601e+01	-5.051579e+02
3.800000e-07	-5.910756e-06	-7.667035e-09	-4.268596e+01	-5.017583e+02
3.900000e-07	-5.810329e-06	-7.595769e-09	-4.196070e+01	-4.982375e+02
4.000000e-07	-5.707927e-06	-7.539758e-09	-4.122118e+01	-4.945877e+02
4.100000e-07	-5.603522e-06	-7.488880e-09	-4.046720e+01	-4.908021e+02
4.200000e-07	-5.497120e-06	-7.428051e-09	-3.969878e+01	-4.868751e+02
4.300000e-07	-5.388756e-06	-7.360070e-09	-3.891621e+01	-4.828032e+02
4.400000e-07	-5.278508e-06	-7.308644e-09	-3.812003e+01	-4.785851e+02
4.500000e-07	-5.166262e-06	-7.255380e-09	-3.730942e+01	-4.742217e+02
4.600000e-07	-5.051933e-06	-7.171016e-09	-3.648376e+01	-4.697151e+02
4.700000e-07	-4.935739e-06	-7.084271e-09	-3.564463e+01	-4.650681e+02
4.800000e-07	-4.817774e-06	-7.016171e-09	-3.479273e+01	-4.602831e+02
4.900000e-07	-4.698001e-06	-6.949555e-09	-3.392776e+01	-4.553602e+02
5.000000e-07	-4.576474e-06	-6.871242e-09	-3.305011e+01	-4.502971e+02
5.100000e-07	-4.453272e-06	-6.795625e-09	-3.216039e+01	-4.450880e+02
5.200000e-07	-4.328426e-06	-6.714180e-09	-3.125878e+01	-4.397234e+02
5.300000e-07	-4.202074e-06	-6.621935e-09	-3.034629e+01	-4.341910e+02
5.400000e-07	-4.074165e-06	-6.528704e-09	-2.942257e+01	-4.284766e+02
5.500000e-07	-3.944738e-06	-6.442563e-09	-2.848788e+01	-4.225653e+02
5.600000e-07	-3.813803e-06	-6.351975e-09	-2.754230e+01	-4.164436e+02
5.700000e-07	-3.681302e-06	-6.252220e-09	-2.658541e+01	-4.101004e+02
5.800000e-07	-3.547498e-06	-6.150315e-09	-2.561912e+01	-4.035283e+02
5.900000e-07	-3.412430e-06	-6.043962e-09	-2.464369e+01	-3.967244e+02
6.000000e-07	-3.275978e-06	-5.932008e-09	-2.365827e+01	-3.896895e+02
6.100000e-07	-3.138248e-06	-5.816785e-09	-2.266362e+01	-3.824275e+02
6.200000e-07	-2.999291e-06	-5.704391e-09	-2.166011e+01	-3.749436e+02
6.300000e-07	-2.859028e-06	-5.591495e-09	-2.064716e+01	-3.672420e+02
6.400000e-07	-2.717472e-06	-5.475104e-09	-1.962488e+01	-3.593238e+02
6.500000e-07	-2.574845e-06	-5.354492e-09	-1.859487e+01	-3.511849e+02
6.600000e-07	-2.431352e-06	-5.227180e-09	-1.755860e+01	-3.428150e+02
6.700000e-07	-2.287006e-06	-5.089723e-09	-1.651617e+01	-3.341965e+02
6.800000e-07	-2.141726e-06	-4.947088e-09	-1.546700e+01	-3.253057e+02
6.900000e-07	-1.995651e-06	-4.803942e-09	-1.441208e+01	-3.161142e+02
7.000000e-07	-1.849005e-06	-4.657723e-09	-1.335304e+01	-3.065912e+02
7.100000e-07	-1.701840e-06	-4.506121e-09	-1.229025e+01	-2.967069e+02
7.200000e-07	-1.554102e-06	-4.345227e-09	-1.122333e+01	-2.864351e+02
7.300000e-07	-1.405851e-06	-4.178898e-09	-1.015270e+01	-2.757559e+02
7.400000e-07	-1.257178e-06	-4.008823e-09	-9.079015e+00	-2.646568e+02
7.500000e-07	-1.108102e-06	-3.837022e-09	-8.002427e+00	-2.531333e+02
7.600000e-07	-9.587237e-07	-3.663265e-09	-6.923656e+00	-2.411873e+02
7.700000e-07	-8.091022e-07	-3.480368e-09	-5.843128e+00	-2.288240e+02
7.800000e-07	-6.592709e-07	-3.285054e-09	-4.761085e+00	-2.160480e+02
7.900000e-07	-5.092095e-07	-3.082204e-09	-3.677380e+00	-2.028587e+02
8.000000e-07	-3.589193e-07	-2.874479e-09	-2.592023e+00	-1.892456e+02
8.100000e-07	-2.084903e-07	-2.657375e-09	-1.505663e+00	-1.751847e+02
8.200000e-07	-5.789620e-08	-2.431576e-09	-4.181115e-01	-1.606362e+02
8.300000e-07	9.276054e-08	-2.198581e-09	6.698927e-01	-1.455445e+02
8.400000e-07	2.433561e-07	-1.957892e-09	1.757455e+00	-1.298414e+02
8.500000e-07	3.938915e-07	-1.707493e-09	2.844583e+00	-1.134509e+02
8.600000e-07	5.443216e-07	-1.448280e-09	3.930951e+00	-9.629711e+01
8.700000e-07	6.945628e-07	-1.180573e-09	5.015954e+00	-7.831358e+01
8.800000e-07	8.445592e-07	-8.979130e-10	6.099189e+00	-5.945311e+01
8.900000e-07	9.943309e-07	-5.986879e-10	7.180802e+00	-3.969757e+01
9.000000e-07	1.143837e-06	-2.868224e-10	8.260493e+00	-1.906589e+01
9.100000e-07	1.293032e-06	3.680191e-11	9.337943e+00	2.380404e+00
9.200000e-07	1.441869e-06	3.744881e-10	1.041280e+01	2.453519e+01
9.300000e-07	1.590216e-06	7.250474e-10	1.148413e+01	4.724962e+01
9.400000e-07	1.737966e-06	1.082405e-09	1.255115e+01	7.033796e+01
9.500000e-07	1.885021e-06	1.439694e-09	1.361313e+01	9.358695e+01
9.600000e-07	2.031350e-06	1.793959e-09	1.466989e+01	1.167680e+02
9.700000e-07	2.177048e-06	2.143917e-09	1.572208e+01	1.396507e+02
9.800000e-07	2.321903e-06	2.486998e-09	1.676819e+01	1.620172e+02
9.900000e-07	2.465803e-06	2.817697e-09	1.780740e+01	1.836748e+02
1.000000e-06	2.608788e-06	3.133965e-09	1.884000e+01	2.044666e+02
1.010000e-06	2.750728e-06	3.431895e-09	1.986505e+01	2.242786e+02
1.020000e-06	2.891642e-06	3.711953e-09	2.088270e+01	2.430431e+02
1.030000e-06	3.031337e-06	3.977661e-09	2.189154e+01	2.607374e+02
1.040000e-06	3.169663e-06	4.229012e-09	2.289049e+01	2.773800e+02
1.050000e-06	3.306794e-06	4.466766e-09	2.388081e+01	2.930220e+02
1.060000e-06	3.442706e-06	4.691941e-09	2.486234e+01	3.077377e+02
1.070000e-06	3.577288e-06	4.904990e-09	2.583425e+01	3.216140e+02
1.080000e-06	3.710620e-06	5.108049e-09	2.679714e+01	3.347398e+02
1.090000e-06	3.842673e-06	5.299524e-09	2.775080e+01	3.471976e+02
1.100000e-06	3.973239e-06	5.479752e-09	2.869371e+01	3.590569e+02
1.110000e-06	4.102366e-06	5.653071e-09	2.962623e+01	3.703699e+02
1.120000e-06	4.230087e-06	5.817963e-09	3.054860e+01	3.811718e+02
1.130000e-06	4.356314e-06	5.973530e-09	3.146018e+01	3.914815e+02
1.140000e-06	4.481160e-06	6.121391e-09	3.236178e+01	4.013064e+02
1.150000e-06	4.604425e-06	6.262007e-09	3.325197e+01	4.106468e+02
1.160000e-06	4.725955e-06	6.395310e-09	3.412963e+01	4.195022e+02
1.170000e-06	4.845828e-06	6.521022e-09	3.499533e+01	4.278755e+02
1.180000e-06	4.963950e-06	6.638960e-09	3.584837e+01	4.357772e+02
1.190000e-06	5.080249e-06	6.751466e-09	3.668825e+01	4.432274e+02
1.200000e-06	5.194546e-06	6.858428e-09	3.751367e+01	4.502558e+02
1.210000e-06	5.306792e-06	6.960887e-09	3.832429e+01	4.569003e+02
1.220000e-06	5.417171e-06	7.058846e-09	3.912142e+01	4.632039e+02
1.230000e-06	5.525724e-06	7.152333e-09	3.990535e+01	4.692105e+02
1.240000e-06	5.632268e-06	7.239875e-09	4.067479e+01	4.749615e+02
1.250000e-06	5.736739e-06	7.323994e-09	4.142925e+01	4.804915e+02
1.260000e-06	5.839172e-06	7.407681e-09	4.216899e+01	4.858262e+02
1.270000e-06	5.939464e-06	7.488042e-09	4.289328e+01	4.909809e+02
1.280000e-06	6.037461e-06	7.562637e-09	4.360099e+01	4.959607e+02
1.290000e-06	6.133104e-06	7.631818e-09	4.429170e+01	5.007622e+02
1.300000e-06	6.226561e-06	7.698277e-09	4.496662e+01	5.053759e+02
1.310000e-06	6.317864e-06	7.762828e-09	4.562599e+01	5.097896e+02
1.320000e-06	6.406898e-06	7.825517e-09	4.626897e+01	5.139919e+02
1.330000e-06	6.493644e-06	7.887055e-09	4.689543e+01	5.179744e+02
1.340000e-06	6.578145e-06	7.945646e-09	4.750567e+01	5.217348e+02
1.350000e-06	6.660330e-06	7.999813e-09	4.809919e+01	5.252767e+02
1.360000e-06	6.740044e-06	8.048664e-09	4.867486e+01	5.286101e+02
1.370000e-06	6.817279e-06	8.094843e-09	4.923264e+01	5.317500e+02
1.380000e-06	6.891912e-06	8.141168e-09	4.977161e+01	5.347140e+02
1.390000e-06	6.963941e-06	8.185889e-09	5.029179e+01	5.375199e+02
1.400000e-06	7.033549e-06	8.227681e-09	5.079448e+01	5.401837e+02
1.410000e-06	7.100672e-06	8.267040e-09	5.127923e+01	5.427169e+02
1.420000e-06	7.165218e-06	8.304687e-09	5.174536e+01	5.451260e+02
1.430000e-06	7.227268e-06	8.339022e-09	5.219347e+01	5.474118e+02
1.440000e-06	7.286855e-06	8.370386e-09	5.262379e+01	5.495703e+02
1.450000e-06	7.343891e-06	8.399718e-09	5.303569e+01	5.515944e+02
1.460000e-06	7.398281e-06	8.425707e-09	5.342848e+01	5.534754e+02
1.470000e-06	7.449723e-06	8.448296e-09	5.379998e+01	5.552060e+02
1.480000e-06	7.498115e-06	8.471350e-09	5.414945e+01	5.567818e+02
1.490000e-06	7.543743e-06	8.494586e-09	5.447897e+01	5.582031e+02
1.500000e-06	7.586770e-06	8.513793e-09	5.478970e+01	5.594753e+02
1.510000e-06	7.627057e-06	8.530996e-09	5.508064e+01	5.606090e+02
1.520000e-06	7.664624e-06	8.548181e-09	5.535194e+01	5.616187e+02
1.530000e-06	7.699616e-06	8.565978e-09	5.560465e+01	5.625213e+02
1.540000e-06	7.731842e-06	8.582421e-09	5.583737e+01	5.633336e+02
1.550000e-06	7.761272e-06	8.594577e-09	5.604991e+01	5.640704e+02
1.560000e-06	7.787905e-06	8.603613e-09	5.624225e+01	5.647424e+02
1.570000e-06	7.811642e-06	8.610595e-09	5.641366e+01	5.653552e+02
1.580000e-06	7.832651e-06	8.618435e-09	5.656539e+01	5.659084e+02
1.590000e-06	7.850999e-06	8.627185e-09	5.669790e+01	5.663966e+02
1.600000e-06	7.866426e-06	8.635161e-09	5.680930e+01	5.668101e+02
1.610000e-06	7.878735e-06	8.639460e-09	5.689820e+01	5.671369e+02
1.620000e-06	7.887931e-06	8.640656e-09	5.696461e+01	5.673651e+02
1.630000e-06	7.894234e-06	8.643057e-09	5.701012e+01	5.674847e+02
1.640000e-06	7.897825e-06	8.645911e-09	5.703606e+01	5.674898e+02
1.650000e-06	7.898578e-06	8.647732e-09	5.704150e+01	5.673793e+02
1.660000e-06	7.896624e-06	8.643195e-09	5.702738e+01	5.671577e+02
1.670000e-06	7.892195e-06	8.638139e-09	5.699540e+01	5.668346e+02
1.680000e-06	7.885094e-06	8.635235e-09	5.694412e+01	5.664230e+02
1.690000e-06	7.875266e-06	8.630398e-09	5.687315e+01	5.659385e+02
1.700000e-06	7.862676e-06	8.624211e-09	5.678222e+01	5.653961e+02
1.710000e-06	7.847305e-06	8.618729e-09	5.667121e+01	5.648090e+02
1.720000e-06	7.829535e-06	8.614323e-09	5.654289e+01	5.641866e+02
1.730000e-06	7.809595e-06	8.581536e-09	5.639888e+01	5.635329e+02
1.740000e-06	7.787007e-06	8.512486e-09	5.623576e+01	5.628468e+02
1.750000e-06	7.761105e-06	8.510082e-09	5.604870e+01	5.621217e+02
1.760000e-06	7.731637e-06	8.537621e-09	5.583590e+01	5.613470e+02
1.770000e-06	7.699006e-06	8.532043e-09	5.560024e+01	5.605093e+02
1.780000e-06	7.663954e-06	8.545625e-09	5.534710e+01	5.595939e+02
1.790000e-06	7.626612e-06	8.574337e-09	5.507743e+01	5.585873e+02
1.800000e-06	7.587115e-06	8.491485e-09	5.479219e+01	5.574778e+02
1.810000e-06	7.545554e-06	8.455026e-09	5.449205e+01	5.562574e+02
1.820000e-06	7.501523e-06	8.471089e-09	5.417407e+01	5.549216e+02
1.830000e-06	7.454911e-06	8.401469e-09	5.383745e+01	5.534699e+02
1.840000e-06	7.405541e-06	8.456665e-09	5.348091e+01	5.519050e+02
1.850000e-06	7.353161e-06	8.436594e-09	5.310263e+01	5.502315e+02
1.860000e-06	7.297980e-06	8.395745e-09	5.270413e+01	5.484557e+02
1.870000e-06	7.240124e-06	8.396937e-09	5.228631e+01	5.465834e+02
1.880000e-06	7.179687e-06	8.287783e-09	5.184985e+01	5.446198e+02
1.890000e-06	7.116529e-06	8.274272e-09	5.139374e+01	5.425686e+02
1.900000e-06	7.050556e-06	8.236142e-09	5.091730e+01	5.404315e+02
1.910000e-06	6.981921e-06	8.196553e-09	5.042163e+01	5.382090e+02
1.920000e-06	6.910507e-06	8.194826e-09	4.990591e+01	5.359000e+02
1.930000e-06	6.836448e-06	8.138469e-09	4.937107e+01	5.335030e+02
1.940000e-06	6.759691e-06	8.106148e-09	4.881675e+01	5.310160e+02
1.950000e-06	6.680196e-06	8.028437e-09	4.824265e+01	5.284375e+02
1.960000e-06	6.598250e-06	8.017830e-09	4.765087e+01	5.257663e+02
1.970000e-06	6.513921e-06	7.992897e-09	4.704186e+01	5.230016e+02
1.980000e-06	6.427175e-06	7.928944e-09	4.641540e+01	5.201427e+02
1.990000e-06	6.338044e-06	7.912626e-09	4.577173e+01	5.171882e+02
2.000000e-06	6.246787e-06	7.849504e-09	4.511269e+01	5.141362e+02
2.010000e-06	6.153333e-06	7.786348e-09	4.443778e+01	5.109833e+02
2.020000e-06	6.057526e-06	7.720277e-09	4.374589e+01	5.077244e+02
2.030000e-06	5.959579e-06	7.689954e-09	4.303854e+01	5.043535e+02
2.040000e-06	5.859571e-06	7.649333e-09	4.231631e+01	5.008632e+02
2.050000e-06	5.757476e-06	7.590255e-09	4.157901e+01	4.972458e+02
2.060000e-06	5.653290e-06	7.538646e-09	4.082660e+01	4.934942e+02
2.070000e-06	5.547195e-06	7.472212e-09	4.006042e+01	4.896025e+02
2.080000e-06	5.439244e-06	7.397056e-09	3.928082e+01	4.855665e+02
2.090000e-06	5.329381e-06	7.315783e-09	3.848742e+01	4.813845e+02
2.100000e-06	5.217533e-06	7.267866e-09	3.767968e+01	4.770567e+02
2.110000e-06	5.103741e-06	7.210307e-09	3.685791e+01	4.725851e+02
2.120000e-06	4.988039e-06	7.138914e-09	3.602234e+01	4.679725e+02
2.130000e-06	4.870350e-06	7.065891e-09	3.517241e+01	4.632213e+02
2.140000e-06	4.750700e-06	6.997939e-09	3.430833e+01	4.583325e+02
2.150000e-06	4.629241e-06	6.916780e-09	3.343119e+01	4.533044e+02
2.160000e-06	4.506163e-06	6.829407e-09	3.254235e+01	4.481320e+02
2.170000e-06	4.381437e-06	6.752400e-09	3.164161e+01	4.428068e+02
2.180000e-06	4.255122e-06	6.674175e-09	3.072939e+01	4.373171e+02
2.190000e-06	4.127204e-06	6.586792e-09	2.980561e+01	4.316491e+02
2.200000e-06	3.997745e-06	6.490546e-09	2.887069e+01	4.257879e+02
2.210000e-06	3.866881e-06	6.396979e-09	2.792562e+01	4.197195e+02
2.220000e-06	3.734566e-06	6.300441e-09	2.697007e+01	4.134320e+02
2.230000e-06	3.600871e-06	6.208271e-09	2.600456e+01	4.069171e+02
2.240000e-06	3.465905e-06	6.116411e-09	2.502987e+01	4.001707e+02
2.250000e-06	3.329530e-06	6.022077e-09	2.404501e+01	3.931927e+02
2.260000e-06	3.191881e-06	5.910647e-09	2.305094e+01	3.859865e+02
2.270000e-06	3.053065e-06	5.787675e-09	2.204845e+01	3.785571e+02
2.280000e-06	2.913013e-06	5.661221e-09	2.103703e+01	3.709092e+02
2.290000e-06	2.771851e-06	5.537330e-09	2.001760e+01	3.630448e+02
2.300000e-06	2.629692e-06	5.417066e-09	1.899096e+01	3.549613e+02
2.310000e-06	2.486541e-06	5.296700e-09	1.795716e+01	3.466500e+02
2.320000e-06	2.342367e-06	5.173080e-09	1.691597e+01	3.380951e+02
2.330000e-06	2.197335e-06	5.040303e-09	1.586859e+01	3.292744e+02
2.340000e-06	2.051643e-06	4.902889e-09	1.481644e+01	3.201604e+02
2.350000e-06	1.905335e-06	4.757799e-09	1.375984e+01	3.107226e+02
2.360000e-06	1.758444e-06	4.606198e-09	1.269903e+01	3.009308e+02
2.370000e-06	1.611018e-06	4.449835e-09	1.163435e+01	2.907576e+02
2.380000e-06	1.463076e-06	4.290382e-09	1.056596e+01	2.801811e+02
2.390000e-06	1.314564e-06	4.126599e-09	9.493446e+00	2.691872e+02
2.400000e-06	1.165533e-06	3.954193e-09	8.417178e+00	2.577694e+02
2.410000e-06	1.016115e-06	3.772344e-09	7.338121e+00	2.459281e+02
2.420000e-06	8.664011e-07	3.582682e-09	6.256926e+00	2.336680e+02
2.430000e-06	7.164845e-07	3.387849e-09	5.174267e+00	2.209945e+02
2.440000e-06	5.664185e-07	3.191582e-09	4.090529e+00	2.079085e+02
2.450000e-06	4.162735e-07	2.991242e-09	3.006220e+00	1.944026e+02
2.460000e-06	2.660064e-07	2.780500e-09	1.921030e+00	1.804562e+02
2.470000e-06	1.156043e-07	2.555654e-09	8.348642e-01	1.660337e+02
2.480000e-06	-3.482685e-08	2.320015e-09	-2.515106e-01	1.510832e+02
2.490000e-06	-1.852187e-07	2.078121e-09	-1.337601e+00	1.355394e+02
2.500000e-06	-3.355840e-07	1.828278e-09	-2.423501e+00	1.193275e+02
2.510000e-06	-4.859168e-07	1.568551e-09	-3.509166e+00	1.023708e+02
2.520000e-06	-6.361350e-07	1.296474e-09	-4.594003e+00	8.459960e+01
2.530000e-06	-7.861769e-07	1.012862e-09	-5.677567e+00	6.596085e+01
2.540000e-06	-9.360412e-07	7.185088e-10	-6.759848e+00	4.642836e+01
2.550000e-06	-1.085722e-06	4.132432e-10	-7.840806e+00	2.601116e+01
2.560000e-06	-1.235137e-06	9.464372e-11	-8.919844e+00	4.759811e+00
2.570000e-06	-1.384058e-06	-2.400106e-10	-9.995314e+00	-1.723071e+01
2.580000e-06	-1.532356e-06	-5.891397e-10	-1.106628e+01	-3.982185e+01
2.590000e-06	-1.680082e-06	-9.464839e-10	-1.213312e+01	-6.283633e+01
2.600000e-06	-1.827201e-06	-1.303190e-09	-1.319558e+01	-8.606672e+01
2.610000e-06	-1.973602e-06	-1.660487e-09	-1.425284e+01	-1.092870e+02
2.620000e-06	-2.119314e-06	-2.016438e-09	-1.530514e+01	-1.322659e+02
2.630000e-06	-2.264376e-06	-2.363525e-09	-1.635274e+01	-1.547813e+02
2.640000e-06	-2.408523e-06	-2.694767e-09	-1.739373e+01	-1.766329e+02
2.650000e-06	-2.551555e-06	-3.008248e-09	-1.842667e+01	-1.976541e+02
2.660000e-06	-2.693553e-06	-3.308363e-09	-1.945215e+01	-2.177197e+02
2.670000e-06	-2.834498e-06	-3.596853e-09	-2.047001e+01	-2.367504e+02
2.680000e-06	-2.974287e-06	-3.871409e-09	-2.147953e+01	-2.547126e+02
2.690000e-06	-3.112869e-06	-4.130607e-09	-2.248034e+01	-2.716150e+02
2.700000e-06	-3.250337e-06	-4.375446e-09	-2.347310e+01	-2.875014e+02
2.710000e-06	-3.386594e-06	-4.606087e-09	-2.445711e+01	-3.024413e+02
2.720000e-06	-3.521419e-06	-4.825214e-09	-2.543078e+01	-3.165195e+02
2.730000e-06	-3.654965e-06	-5.033009e-09	-2.639522e+01	-3.298253e+02
2.740000e-06	-3.787287e-06	-5.227836e-09	-2.735081e+01	-3.424436e+02
2.750000e-06	-3.918232e-06	-5.409535e-09	-2.829646e+01	-3.544473e+02
2.760000e-06	-4.047858e-06	-5.581285e-09	-2.923259e+01	-3.658935e+02
2.770000e-06	-4.176133e-06	-5.747736e-09	-3.015896e+01	-3.768213e+02
2.780000e-06	-4.302854e-06	-5.909015e-09	-3.107411e+01	-3.872535e+02
2.790000e-06	-4.428139e-06	-6.061673e-09	-3.197888e+01	-3.971999e+02
2.800000e-06	-4.551938e-06	-6.204160e-09	-3.287292e+01	-4.066621e+02
2.810000e-06	-4.674076e-06	-6.340027e-09	-3.375497e+01	-4.156391e+02
2.820000e-06	-4.794509e-06	-6.470285e-09	-3.462471e+01	-4.241328e+02
2.830000e-06	-4.913079e-06	-6.592299e-09	-3.548100e+01	-4.321514e+02
2.840000e-06	-5.029729e-06	-6.706674e-09	-3.632341e+01	-4.397126e+02
2.850000e-06	-5.144357e-06	-6.816866e-09	-3.715122e+01	-4.468437e+02
2.860000e-06	-5.256877e-06	-6.921605e-09	-3.796381e+01	-4.535808e+02
2.870000e-06	-5.367351e-06	-7.018846e-09	-3.876163e+01	-4.599659e+02
2.880000e-06	-5.475915e-06	-7.112530e-09	-3.954565e+01	-4.660433e+02
2.890000e-06	-5.582641e-06	-7.204084e-09	-4.031640e+01	-4.718551e+02
2.900000e-06	-5.687409e-06	-7.292031e-09	-4.107301e+01	-4.774380e+02
2.910000e-06	-5.790039e-06	-7.375294e-09	-4.181417e+01	-4.828202e+02
2.920000e-06	-5.890465e-06	-7.453590e-09	-4.253943e+01	-4.880196e+02
2.930000e-06	-5.988785e-06	-7.528570e-09	-4.324946e+01	-4.930437e+02
2.940000e-06	-6.085005e-06	-7.600530e-09	-4.394434e+01	-4.978910e+02
