# Temperatura_=_67.53
# Concentracion g/m^3_=_10000.0
# C_Vs_to_Am_M_A/Vsm_=_65563218390.804596
# pendiente_HvsI_1/m_=_3716.3
# ordenada_HvsI_A/m_=_1297.0
# frecuencia_Hz_=_302619.31228583126

Tiempo_(s)	Campo_(V.s)	Magnetizacion_(V.s)	Campo_(kA/m)	Magnetizacion_(A/m)
0.000000e+00	-7.852070e-06	-1.041352e-08	-5.683213e+01	-6.820770e+02
1.000000e-08	-7.849937e-06	-1.041305e-08	-5.681669e+01	-6.817720e+02
2.000000e-08	-7.845170e-06	-1.040935e-08	-5.678219e+01	-6.813285e+02
3.000000e-08	-7.837922e-06	-1.040115e-08	-5.672973e+01	-6.807585e+02
4.000000e-08	-7.827957e-06	-1.039006e-08	-5.665760e+01	-6.800769e+02
5.000000e-08	-7.815075e-06	-1.037533e-08	-5.656436e+01	-6.792997e+02
6.000000e-08	-7.799255e-06	-1.035892e-08	-5.644986e+01	-6.784430e+02
7.000000e-08	-7.780868e-06	-1.034514e-08	-5.631678e+01	-6.775204e+02
8.000000e-08	-7.760270e-06	-1.033716e-08	-5.616769e+01	-6.765421e+02
9.000000e-08	-7.737101e-06	-1.034871e-08	-5.600000e+01	-6.755138e+02
1.000000e-07	-7.710814e-06	-1.035663e-08	-5.580974e+01	-6.744362e+02
1.100000e-07	-7.681366e-06	-1.031606e-08	-5.559660e+01	-6.733049e+02
1.200000e-07	-7.649168e-06	-1.026654e-08	-5.536355e+01	-6.721112e+02
1.300000e-07	-7.614327e-06	-1.022964e-08	-5.511138e+01	-6.708427e+02
1.400000e-07	-7.576978e-06	-1.017905e-08	-5.484105e+01	-6.694846e+02
1.500000e-07	-7.537521e-06	-1.013827e-08	-5.455547e+01	-6.680212e+02
1.600000e-07	-7.495869e-06	-1.017860e-08	-5.425400e+01	-6.664366e+02
1.700000e-07	-7.451602e-06	-1.016332e-08	-5.393360e+01	-6.647165e+02
1.800000e-07	-7.404679e-06	-1.009642e-08	-5.359398e+01	-6.628485e+02
1.900000e-07	-7.354998e-06	-1.009956e-08	-5.323439e+01	-6.608231e+02
2.000000e-07	-7.302270e-06	-1.002279e-08	-5.285276e+01	-6.586341e+02
2.100000e-07	-7.246684e-06	-9.949461e-09	-5.245044e+01	-6.562782e+02
2.200000e-07	-7.188475e-06	-9.924110e-09	-5.202913e+01	-6.537555e+02
2.300000e-07	-7.127695e-06	-9.880845e-09	-5.158921e+01	-6.510689e+02
2.400000e-07	-7.064387e-06	-9.857636e-09	-5.113100e+01	-6.482236e+02
2.500000e-07	-6.998319e-06	-9.821244e-09	-5.065281e+01	-6.452266e+02
2.600000e-07	-6.929555e-06	-9.780124e-09	-5.015510e+01	-6.420861e+02
2.700000e-07	-6.858196e-06	-9.728089e-09	-4.963861e+01	-6.388109e+02
2.800000e-07	-6.784077e-06	-9.671836e-09	-4.910215e+01	-6.354093e+02
2.900000e-07	-6.707295e-06	-9.621096e-09	-4.854642e+01	-6.318888e+02
3.000000e-07	-6.627791e-06	-9.579035e-09	-4.797097e+01	-6.282553e+02
3.100000e-07	-6.545678e-06	-9.537393e-09	-4.737666e+01	-6.245124e+02
3.200000e-07	-6.461336e-06	-9.458502e-09	-4.676620e+01	-6.206612e+02
3.300000e-07	-6.374776e-06	-9.388888e-09	-4.613969e+01	-6.167000e+02
3.400000e-07	-6.285958e-06	-9.328236e-09	-4.549684e+01	-6.126244e+02
3.500000e-07	-6.194851e-06	-9.248546e-09	-4.483742e+01	-6.084277e+02
3.600000e-07	-6.101535e-06	-9.180987e-09	-4.416202e+01	-6.041016e+02
3.700000e-07	-6.006030e-06	-9.129252e-09	-4.347076e+01	-5.996370e+02
3.800000e-07	-5.908195e-06	-9.065434e-09	-4.276265e+01	-5.950246e+02
3.900000e-07	-5.808182e-06	-8.981349e-09	-4.203877e+01	-5.902565e+02
4.000000e-07	-5.706160e-06	-8.906685e-09	-4.130035e+01	-5.853264e+02
4.100000e-07	-5.602230e-06	-8.834830e-09	-4.054811e+01	-5.802305e+02
4.200000e-07	-5.496288e-06	-8.750112e-09	-3.978132e+01	-5.749677e+02
4.300000e-07	-5.388304e-06	-8.665442e-09	-3.899976e+01	-5.695392e+02
4.400000e-07	-5.278439e-06	-8.594738e-09	-3.820457e+01	-5.639480e+02
4.500000e-07	-5.166762e-06	-8.519454e-09	-3.739626e+01	-5.581979e+02
4.600000e-07	-5.053101e-06	-8.416696e-09	-3.657360e+01	-5.522922e+02
4.700000e-07	-4.937314e-06	-8.309375e-09	-3.573555e+01	-5.462328e+02
4.800000e-07	-4.819682e-06	-8.217066e-09	-3.488415e+01	-5.400187e+02
4.900000e-07	-4.700389e-06	-8.124900e-09	-3.402072e+01	-5.336456e+02
5.000000e-07	-4.579364e-06	-8.025641e-09	-3.314476e+01	-5.271052e+02
5.100000e-07	-4.456554e-06	-7.927594e-09	-3.225588e+01	-5.203862e+02
5.200000e-07	-4.332142e-06	-7.823218e-09	-3.135541e+01	-5.134742e+02
5.300000e-07	-4.206189e-06	-7.705632e-09	-3.044378e+01	-5.063540e+02
5.400000e-07	-4.078782e-06	-7.584436e-09	-2.952163e+01	-4.990103e+02
5.500000e-07	-3.949945e-06	-7.471240e-09	-2.858912e+01	-4.914298e+02
5.600000e-07	-3.819520e-06	-7.358582e-09	-2.764513e+01	-4.836026e+02
5.700000e-07	-3.687547e-06	-7.238105e-09	-2.668993e+01	-4.755228e+02
5.800000e-07	-3.554155e-06	-7.110158e-09	-2.572445e+01	-4.671889e+02
5.900000e-07	-3.419452e-06	-6.976520e-09	-2.474949e+01	-4.586035e+02
6.000000e-07	-3.283583e-06	-6.839096e-09	-2.376609e+01	-4.497717e+02
6.100000e-07	-3.146501e-06	-6.697578e-09	-2.277391e+01	-4.406996e+02
6.200000e-07	-3.008013e-06	-6.554059e-09	-2.177156e+01	-4.313919e+02
6.300000e-07	-2.868213e-06	-6.409408e-09	-2.075971e+01	-4.218499e+02
6.400000e-07	-2.727268e-06	-6.263212e-09	-1.973957e+01	-4.120693e+02
6.500000e-07	-2.585275e-06	-6.114855e-09	-1.871184e+01	-4.020395e+02
6.600000e-07	-2.442192e-06	-5.960244e-09	-1.767623e+01	-3.917431e+02
6.700000e-07	-2.298049e-06	-5.794519e-09	-1.663294e+01	-3.811563e+02
6.800000e-07	-2.153099e-06	-5.621726e-09	-1.558382e+01	-3.702513e+02
6.900000e-07	-2.007459e-06	-5.445341e-09	-1.452969e+01	-3.589983e+02
7.000000e-07	-1.861098e-06	-5.266981e-09	-1.347035e+01	-3.473685e+02
7.100000e-07	-1.714097e-06	-5.086797e-09	-1.240638e+01	-3.353371e+02
7.200000e-07	-1.566637e-06	-4.897430e-09	-1.133909e+01	-3.228854e+02
7.300000e-07	-1.418809e-06	-4.698889e-09	-1.026913e+01	-3.100021e+02
7.400000e-07	-1.270600e-06	-4.495262e-09	-9.196414e+00	-2.966834e+02
7.500000e-07	-1.122000e-06	-4.289220e-09	-8.120873e+00	-2.829311e+02
7.600000e-07	-9.730773e-07	-4.080202e-09	-7.042990e+00	-2.687495e+02
7.700000e-07	-8.238577e-07	-3.864449e-09	-5.962961e+00	-2.541415e+02
7.800000e-07	-6.743521e-07	-3.638220e-09	-4.880861e+00	-2.391031e+02
7.900000e-07	-5.246233e-07	-3.401778e-09	-3.797147e+00	-2.236189e+02
8.000000e-07	-3.747165e-07	-3.157214e-09	-2.712143e+00	-2.076582e+02
8.100000e-07	-2.246790e-07	-2.903285e-09	-1.626194e+00	-1.911722e+02
8.200000e-07	-7.453663e-08	-2.639977e-09	-5.394852e-01	-1.740942e+02
8.300000e-07	7.572345e-08	-2.365242e-09	5.480752e-01	-1.563421e+02
8.400000e-07	2.259951e-07	-2.081576e-09	1.635720e+00	-1.378236e+02
8.500000e-07	3.761999e-07	-1.786680e-09	2.722879e+00	-1.184444e+02
8.600000e-07	5.262679e-07	-1.477445e-09	3.809050e+00	-9.811753e+01
8.700000e-07	6.761933e-07	-1.155398e-09	4.894188e+00	-7.677493e+01
8.800000e-07	8.259511e-07	-8.189759e-10	5.978113e+00	-5.437791e+01
8.900000e-07	9.754425e-07	-4.669649e-10	7.060109e+00	-3.092693e+01
9.000000e-07	1.124628e-06	-9.802940e-11	8.139892e+00	-6.468876e+00
9.100000e-07	1.273465e-06	2.857875e-10	9.217156e+00	1.889905e+01
9.200000e-07	1.421953e-06	6.836831e-10	1.029189e+01	4.502945e+01
9.300000e-07	1.569993e-06	1.093432e-09	1.136338e+01	7.172906e+01
9.400000e-07	1.717509e-06	1.511564e-09	1.243108e+01	9.876728e+01
9.500000e-07	1.864417e-06	1.931383e-09	1.349437e+01	1.258880e+02
9.600000e-07	2.010616e-06	2.344811e-09	1.455255e+01	1.528241e+02
9.700000e-07	2.156075e-06	2.750770e-09	1.560535e+01	1.793125e+02
9.800000e-07	2.300669e-06	3.145265e-09	1.665191e+01	2.051099e+02
9.900000e-07	2.444316e-06	3.520017e-09	1.769160e+01	2.300057e+02
1.000000e-06	2.587002e-06	3.874380e-09	1.872434e+01	2.538330e+02
1.010000e-06	2.728705e-06	4.212658e-09	1.974996e+01	2.764752e+02
1.020000e-06	2.869386e-06	4.535788e-09	2.076820e+01	2.978685e+02
1.030000e-06	3.008930e-06	4.841003e-09	2.177820e+01	3.180002e+02
1.040000e-06	3.147162e-06	5.129501e-09	2.277869e+01	3.369028e+02
1.050000e-06	3.284017e-06	5.399636e-09	2.376923e+01	3.546453e+02
1.060000e-06	3.419584e-06	5.651904e-09	2.475045e+01	3.713222e+02
1.070000e-06	3.553933e-06	5.891281e-09	2.572285e+01	3.870419e+02
1.080000e-06	3.687075e-06	6.120833e-09	2.668651e+01	4.019156e+02
1.090000e-06	3.819019e-06	6.339147e-09	2.764150e+01	4.160473e+02
1.100000e-06	3.949574e-06	6.545931e-09	2.858644e+01	4.295266e+02
1.110000e-06	4.078580e-06	6.742165e-09	2.952017e+01	4.424243e+02
1.120000e-06	4.206100e-06	6.927856e-09	3.044313e+01	4.547906e+02
1.130000e-06	4.332185e-06	7.104607e-09	3.135572e+01	4.666566e+02
1.140000e-06	4.456887e-06	7.274811e-09	3.225829e+01	4.780375e+02
1.150000e-06	4.580102e-06	7.438779e-09	3.315010e+01	4.889376e+02
1.160000e-06	4.701624e-06	7.595810e-09	3.402967e+01	4.993556e+02
1.170000e-06	4.821416e-06	7.746175e-09	3.489670e+01	5.092899e+02
1.180000e-06	4.939492e-06	7.890531e-09	3.575132e+01	5.187430e+02
1.190000e-06	5.055749e-06	8.029780e-09	3.659277e+01	5.277244e+02
1.200000e-06	5.169966e-06	8.161394e-09	3.741945e+01	5.362517e+02
1.210000e-06	5.282155e-06	8.284305e-09	3.823146e+01	5.443506e+02
1.220000e-06	5.392479e-06	8.400885e-09	3.902997e+01	5.520528e+02
1.230000e-06	5.501037e-06	8.515818e-09	3.981570e+01	5.593935e+02
1.240000e-06	5.607672e-06	8.625964e-09	4.058751e+01	5.664082e+02
1.250000e-06	5.712168e-06	8.728619e-09	4.134383e+01	5.731298e+02
1.260000e-06	5.814581e-06	8.826351e-09	4.208509e+01	5.795862e+02
1.270000e-06	5.914937e-06	8.920649e-09	4.281145e+01	5.857986e+02
1.280000e-06	6.013043e-06	9.010733e-09	4.352152e+01	5.917813e+02
1.290000e-06	6.108788e-06	9.096693e-09	4.421451e+01	5.975421e+02
1.300000e-06	6.202352e-06	9.178558e-09	4.489171e+01	6.030839e+02
1.310000e-06	6.293746e-06	9.256367e-09	4.555321e+01	6.084065e+02
1.320000e-06	6.382828e-06	9.331820e-09	4.619797e+01	6.135088e+02
1.330000e-06	6.469604e-06	9.405003e-09	4.682604e+01	6.183908e+02
1.340000e-06	6.554170e-06	9.477183e-09	4.743812e+01	6.230551e+02
1.350000e-06	6.636425e-06	9.548142e-09	4.803347e+01	6.275071e+02
1.360000e-06	6.716225e-06	9.613729e-09	4.861105e+01	6.317554e+02
1.370000e-06	6.793584e-06	9.674297e-09	4.917096e+01	6.358108e+02
1.380000e-06	6.868346e-06	9.731887e-09	4.971208e+01	6.396849e+02
1.390000e-06	6.940443e-06	9.788483e-09	5.023390e+01	6.433884e+02
1.400000e-06	7.010082e-06	9.843714e-09	5.073794e+01	6.469298e+02
1.410000e-06	7.077305e-06	9.896430e-09	5.122449e+01	6.503139e+02
1.420000e-06	7.142021e-06	9.946844e-09	5.169290e+01	6.535418e+02
1.430000e-06	7.204233e-06	9.993194e-09	5.214318e+01	6.566101e+02
1.440000e-06	7.263983e-06	1.003597e-08	5.257565e+01	6.595124e+02
1.450000e-06	7.321154e-06	1.007620e-08	5.298944e+01	6.622405e+02
1.460000e-06	7.375663e-06	1.011466e-08	5.338397e+01	6.647858e+02
1.470000e-06	7.427286e-06	1.015060e-08	5.375760e+01	6.671417e+02
1.480000e-06	7.475850e-06	1.018339e-08	5.410911e+01	6.693046e+02
1.490000e-06	7.521679e-06	1.021301e-08	5.444081e+01	6.712754e+02
1.500000e-06	7.564899e-06	1.023913e-08	5.475363e+01	6.730598e+02
1.510000e-06	7.605387e-06	1.026415e-08	5.504668e+01	6.746681e+02
1.520000e-06	7.643183e-06	1.028845e-08	5.532023e+01	6.761142e+02
1.530000e-06	7.678315e-06	1.031040e-08	5.557452e+01	6.774143e+02
1.540000e-06	7.710681e-06	1.032928e-08	5.580877e+01	6.785847e+02
1.550000e-06	7.740346e-06	1.034510e-08	5.602349e+01	6.796401e+02
1.560000e-06	7.767303e-06	1.035877e-08	5.621860e+01	6.805917e+02
1.570000e-06	7.791394e-06	1.037085e-08	5.639296e+01	6.814464e+02
1.580000e-06	7.812698e-06	1.038230e-08	5.654716e+01	6.822057e+02
1.590000e-06	7.831296e-06	1.039390e-08	5.668177e+01	6.828662e+02
1.600000e-06	7.847018e-06	1.040442e-08	5.679557e+01	6.834204e+02
1.610000e-06	7.859703e-06	1.041146e-08	5.688738e+01	6.838580e+02
1.620000e-06	7.869293e-06	1.041433e-08	5.695678e+01	6.841678e+02
1.630000e-06	7.875933e-06	1.041646e-08	5.700485e+01	6.843397e+02
1.640000e-06	7.879874e-06	1.041845e-08	5.703337e+01	6.843662e+02
1.650000e-06	7.880997e-06	1.041949e-08	5.704150e+01	6.842438e+02
1.660000e-06	7.879345e-06	1.041809e-08	5.702954e+01	6.839742e+02
1.670000e-06	7.875115e-06	1.041233e-08	5.699892e+01	6.835638e+02
1.680000e-06	7.868208e-06	1.040636e-08	5.694893e+01	6.830236e+02
1.690000e-06	7.858676e-06	1.039971e-08	5.687994e+01	6.823677e+02
1.700000e-06	7.846457e-06	1.039160e-08	5.679151e+01	6.816123e+02
1.710000e-06	7.831451e-06	1.038188e-08	5.668289e+01	6.807735e+02
1.720000e-06	7.813978e-06	1.036875e-08	5.655642e+01	6.798657e+02
1.730000e-06	7.794326e-06	1.034140e-08	5.641419e+01	6.789000e+02
1.740000e-06	7.772136e-06	1.027799e-08	5.625358e+01	6.778833e+02
1.750000e-06	7.746680e-06	1.024506e-08	5.606933e+01	6.768177e+02
1.760000e-06	7.717612e-06	1.026221e-08	5.585894e+01	6.756999e+02
1.770000e-06	7.685330e-06	1.026449e-08	5.562529e+01	6.745222e+02
1.780000e-06	7.650625e-06	1.026954e-08	5.537410e+01	6.732731e+02
1.790000e-06	7.613678e-06	1.028222e-08	5.510668e+01	6.719383e+02
1.800000e-06	7.574537e-06	1.022978e-08	5.482339e+01	6.705021e+02
1.810000e-06	7.533335e-06	1.018446e-08	5.452517e+01	6.689486e+02
1.820000e-06	7.489672e-06	1.018041e-08	5.420915e+01	6.672631e+02
1.830000e-06	7.443414e-06	1.013738e-08	5.387434e+01	6.654324e+02
1.840000e-06	7.394468e-06	1.015392e-08	5.352008e+01	6.634466e+02
1.850000e-06	7.342597e-06	1.015076e-08	5.314464e+01	6.612983e+02
1.860000e-06	7.287840e-06	1.009681e-08	5.274832e+01	6.589836e+02
1.870000e-06	7.230284e-06	1.007590e-08	5.233174e+01	6.565018e+02
1.880000e-06	7.170243e-06	9.988965e-09	5.189717e+01	6.538552e+02
1.890000e-06	7.107605e-06	9.935717e-09	5.144380e+01	6.510484e+02
1.900000e-06	7.042138e-06	9.895235e-09	5.096996e+01	6.480879e+02
1.910000e-06	6.973965e-06	9.837325e-09	5.047654e+01	6.449820e+02
1.920000e-06	6.903008e-06	9.826485e-09	4.996296e+01	6.417390e+02
1.930000e-06	6.829440e-06	9.759935e-09	4.943049e+01	6.383677e+02
1.940000e-06	6.753213e-06	9.700294e-09	4.887876e+01	6.348757e+02
1.950000e-06	6.674195e-06	9.626324e-09	4.830685e+01	6.312694e+02
1.960000e-06	6.592702e-06	9.571180e-09	4.771701e+01	6.275531e+02
1.970000e-06	6.508897e-06	9.542071e-09	4.711044e+01	6.237284e+02
1.980000e-06	6.422640e-06	9.471113e-09	4.648613e+01	6.197944e+02
1.990000e-06	6.333924e-06	9.438323e-09	4.584401e+01	6.157473e+02
2.000000e-06	6.243077e-06	9.363102e-09	4.518648e+01	6.115811e+02
2.010000e-06	6.150063e-06	9.270630e-09	4.451325e+01	6.072876e+02
2.020000e-06	6.054761e-06	9.192032e-09	4.382347e+01	6.028579e+02
2.030000e-06	5.957242e-06	9.133051e-09	4.311765e+01	5.982827e+02
2.040000e-06	5.857703e-06	9.078565e-09	4.239719e+01	5.935535e+02
2.050000e-06	5.756108e-06	9.001035e-09	4.166187e+01	5.886638e+02
2.060000e-06	5.652331e-06	8.936197e-09	4.091074e+01	5.836090e+02
2.070000e-06	5.546599e-06	8.845705e-09	4.014547e+01	5.783873e+02
2.080000e-06	5.439059e-06	8.746464e-09	3.936711e+01	5.729994e+02
2.090000e-06	5.329700e-06	8.647895e-09	3.857559e+01	5.674479e+02
2.100000e-06	5.218366e-06	8.576577e-09	3.776977e+01	5.617366e+02
2.110000e-06	5.105086e-06	8.498752e-09	3.694986e+01	5.558689e+02
2.120000e-06	4.989904e-06	8.404020e-09	3.611619e+01	5.498474e+02
2.130000e-06	4.872680e-06	8.312472e-09	3.526774e+01	5.436716e+02
2.140000e-06	4.753510e-06	8.220312e-09	3.440521e+01	5.373383e+02
2.150000e-06	4.632578e-06	8.116372e-09	3.352992e+01	5.308401e+02
2.160000e-06	4.509947e-06	8.001635e-09	3.264233e+01	5.241663e+02
2.170000e-06	4.385799e-06	7.902227e-09	3.174377e+01	5.173034e+02
2.180000e-06	4.260031e-06	7.800838e-09	3.083348e+01	5.102361e+02
2.190000e-06	4.132527e-06	7.691157e-09	2.991062e+01	5.029491e+02
2.200000e-06	4.003515e-06	7.570981e-09	2.897685e+01	4.954283e+02
2.210000e-06	3.873008e-06	7.449719e-09	2.803226e+01	4.876629e+02
2.220000e-06	3.741216e-06	7.322877e-09	2.707837e+01	4.796459e+02
2.230000e-06	3.608091e-06	7.199000e-09	2.611483e+01	4.713748e+02
2.240000e-06	3.473440e-06	7.080516e-09	2.514025e+01	4.628513e+02
2.250000e-06	3.337453e-06	6.961538e-09	2.415599e+01	4.540799e+02
2.260000e-06	3.200256e-06	6.828037e-09	2.316299e+01	4.450668e+02
2.270000e-06	3.061955e-06	6.678536e-09	2.216198e+01	4.358171e+02
2.280000e-06	2.922587e-06	6.524238e-09	2.115326e+01	4.263332e+02
2.290000e-06	2.782046e-06	6.368192e-09	2.013604e+01	4.166124e+02
2.300000e-06	2.640215e-06	6.215225e-09	1.910949e+01	4.066458e+02
2.310000e-06	2.497308e-06	6.063904e-09	1.807515e+01	3.964174e+02
2.320000e-06	2.353542e-06	5.911190e-09	1.703459e+01	3.859051e+02
2.330000e-06	2.208995e-06	5.749622e-09	1.598838e+01	3.750818e+02
2.340000e-06	2.063703e-06	5.579683e-09	1.493678e+01	3.639180e+02
2.350000e-06	1.917681e-06	5.401043e-09	1.387989e+01	3.523843e+02
2.360000e-06	1.771059e-06	5.216776e-09	1.281866e+01	3.404547e+02
2.370000e-06	1.623942e-06	5.027486e-09	1.175385e+01	3.281089e+02
2.380000e-06	1.476399e-06	4.832221e-09	1.068596e+01	3.153335e+02
2.390000e-06	1.328477e-06	4.632136e-09	9.615320e+00	3.021231e+02
2.400000e-06	1.180170e-06	4.424859e-09	8.541895e+00	2.884782e+02
2.410000e-06	1.031462e-06	4.207638e-09	7.465567e+00	2.744030e+02
2.420000e-06	8.823703e-07	3.981978e-09	6.386467e+00	2.599010e+02
2.430000e-06	7.329314e-07	3.752350e-09	5.304850e+00	2.449705e+02
2.440000e-06	5.831999e-07	3.522207e-09	4.221115e+00	2.295994e+02
2.450000e-06	4.331910e-07	3.287488e-09	3.135373e+00	2.137611e+02
2.460000e-06	2.829582e-07	3.040476e-09	2.048010e+00	1.974114e+02
2.470000e-06	1.325776e-07	2.775972e-09	9.595772e-01	1.804880e+02
2.480000e-06	-1.792183e-08	2.496468e-09	-1.297155e-01	1.629122e+02
2.490000e-06	-1.684072e-07	2.207469e-09	-1.218906e+00	1.445936e+02
2.500000e-06	-3.187893e-07	1.911061e-09	-2.307350e+00	1.254376e+02
2.510000e-06	-4.690804e-07	1.607116e-09	-3.395135e+00	1.053543e+02
2.520000e-06	-6.191938e-07	1.291592e-09	-4.481634e+00	8.427002e+01
2.530000e-06	-7.690519e-07	9.596070e-10	-5.566285e+00	6.213765e+01
2.540000e-06	-9.186507e-07	6.100027e-10	-6.649059e+00	3.894707e+01
2.550000e-06	-1.067899e-06	2.442900e-10	-7.729293e+00	1.473307e+01
2.560000e-06	-1.216756e-06	-1.367266e-10	-8.806699e+00	-1.041988e+01
2.570000e-06	-1.365163e-06	-5.327393e-10	-9.880852e+00	-3.637669e+01
2.580000e-06	-1.513062e-06	-9.419964e-10	-1.095132e+01	-6.295494e+01
2.590000e-06	-1.660468e-06	-1.359715e-09	-1.201823e+01	-8.993234e+01
2.600000e-06	-1.807322e-06	-1.779035e-09	-1.308113e+01	-1.170579e+02
2.610000e-06	-1.953521e-06	-2.195729e-09	-1.413929e+01	-1.440659e+02
2.620000e-06	-2.099007e-06	-2.607439e-09	-1.519231e+01	-1.706906e+02
2.630000e-06	-2.243790e-06	-3.008101e-09	-1.624022e+01	-1.966826e+02
2.640000e-06	-2.387783e-06	-3.391222e-09	-1.728242e+01	-2.218219e+02
2.650000e-06	-2.530778e-06	-3.755261e-09	-1.831740e+01	-2.459299e+02
2.660000e-06	-2.672639e-06	-4.099860e-09	-1.934417e+01	-2.688770e+02
2.670000e-06	-2.813311e-06	-4.426999e-09	-2.036233e+01	-2.905862e+02
2.680000e-06	-2.952803e-06	-4.738803e-09	-2.137195e+01	-3.110325e+02
2.690000e-06	-3.091102e-06	-5.033999e-09	-2.237294e+01	-3.302377e+02
2.700000e-06	-3.228250e-06	-5.310352e-09	-2.336560e+01	-3.482628e+02
2.710000e-06	-3.364369e-06	-5.568519e-09	-2.435081e+01	-3.651968e+02
2.720000e-06	-3.499214e-06	-5.813595e-09	-2.532679e+01	-3.811460e+02
2.730000e-06	-3.632632e-06	-6.049492e-09	-2.629245e+01	-3.962216e+02
2.740000e-06	-3.764763e-06	-6.275845e-09	-2.724880e+01	-4.105303e+02
2.750000e-06	-3.895586e-06	-6.490500e-09	-2.819568e+01	-4.241659e+02
2.760000e-06	-4.025065e-06	-6.692443e-09	-2.913283e+01	-4.372040e+02
2.770000e-06	-4.153231e-06	-6.883331e-09	-3.006048e+01	-4.497002e+02
2.780000e-06	-4.279889e-06	-7.065023e-09	-3.097721e+01	-4.616899e+02
2.790000e-06	-4.404971e-06	-7.237437e-09	-3.188253e+01	-4.731919e+02
2.800000e-06	-4.528658e-06	-7.400297e-09	-3.277776e+01	-4.842128e+02
2.810000e-06	-4.650812e-06	-7.556457e-09	-3.366189e+01	-4.947522e+02
2.820000e-06	-4.771246e-06	-7.707501e-09	-3.453358e+01	-5.048080e+02
2.830000e-06	-4.889756e-06	-7.853511e-09	-3.539134e+01	-5.143814e+02
2.840000e-06	-5.006235e-06	-7.995323e-09	-3.623440e+01	-5.234799e+02
2.850000e-06	-5.120725e-06	-8.131281e-09	-3.706305e+01	-5.321193e+02
2.860000e-06	-5.233105e-06	-8.260174e-09	-3.787644e+01	-5.403231e+02
2.870000e-06	-5.343433e-06	-8.379695e-09	-3.867498e+01	-5.481219e+02
2.880000e-06	-5.451966e-06	-8.492805e-09	-3.946053e+01	-5.555502e+02
2.890000e-06	-5.558700e-06	-8.603035e-09	-4.023306e+01	-5.626437e+02
2.900000e-06	-5.663474e-06	-8.708208e-09	-4.099140e+01	-5.694363e+02
2.910000e-06	-5.766101e-06	-8.808039e-09	-4.173419e+01	-5.759574e+02
2.920000e-06	-5.866564e-06	-8.901771e-09	-4.246133e+01	-5.822298e+02
2.930000e-06	-5.964993e-06	-8.991871e-09	-4.317374e+01	-5.882695e+02
2.940000e-06	-6.061323e-06	-9.079798e-09	-4.387096e+01	-5.940860e+02
