# Temperatura_=_60.96
# Concentracion g/m^3_=_10000.0
# C_Vs_to_Am_M_A/Vsm_=_65563218390.804596
# pendiente_HvsI_1/m_=_3716.3
# ordenada_HvsI_A/m_=_1297.0
# frecuencia_Hz_=_302621.35791240697

Tiempo_(s)	Campo_(V.s)	Magnetizacion_(V.s)	Campo_(kA/m)	Magnetizacion_(A/m)
0.000000e+00	-7.972526e-06	-9.960331e-09	-5.681510e+01	-6.525177e+02
1.000000e-08	-7.967737e-06	-9.956109e-09	-5.678097e+01	-6.521247e+02
2.000000e-08	-7.960398e-06	-9.946830e-09	-5.672867e+01	-6.516201e+02
3.000000e-08	-7.950326e-06	-9.937962e-09	-5.665689e+01	-6.510146e+02
4.000000e-08	-7.937374e-06	-9.926563e-09	-5.656459e+01	-6.503190e+02
5.000000e-08	-7.921419e-06	-9.911867e-09	-5.645088e+01	-6.495426e+02
6.000000e-08	-7.902815e-06	-9.902293e-09	-5.631831e+01	-6.486931e+02
7.000000e-08	-7.882000e-06	-9.900951e-09	-5.616997e+01	-6.477752e+02
8.000000e-08	-7.858608e-06	-9.922211e-09	-5.600327e+01	-6.467912e+02
9.000000e-08	-7.832065e-06	-9.926934e-09	-5.581412e+01	-6.457403e+02
1.000000e-07	-7.802375e-06	-9.870866e-09	-5.560254e+01	-6.446197e+02
1.100000e-07	-7.769802e-06	-9.819414e-09	-5.537041e+01	-6.434247e+02
1.200000e-07	-7.734473e-06	-9.791343e-09	-5.511865e+01	-6.421494e+02
1.300000e-07	-7.696706e-06	-9.752192e-09	-5.484950e+01	-6.407872e+02
1.400000e-07	-7.656817e-06	-9.709831e-09	-5.456524e+01	-6.393316e+02
1.500000e-07	-7.614622e-06	-9.718589e-09	-5.426454e+01	-6.377757e+02
1.600000e-07	-7.569764e-06	-9.722652e-09	-5.394487e+01	-6.361129e+02
1.700000e-07	-7.522191e-06	-9.649564e-09	-5.360585e+01	-6.343367e+02
1.800000e-07	-7.471750e-06	-9.638750e-09	-5.324639e+01	-6.324405e+02
1.900000e-07	-7.418282e-06	-9.607916e-09	-5.286535e+01	-6.304180e+02
2.000000e-07	-7.361996e-06	-9.535827e-09	-5.246424e+01	-6.282631e+02
2.100000e-07	-7.303027e-06	-9.521380e-09	-5.204400e+01	-6.259702e+02
2.200000e-07	-7.241419e-06	-9.485614e-09	-5.160496e+01	-6.235349e+02
2.300000e-07	-7.177234e-06	-9.448295e-09	-5.114756e+01	-6.209539e+02
2.400000e-07	-7.110312e-06	-9.401502e-09	-5.067064e+01	-6.182260e+02
2.500000e-07	-7.040658e-06	-9.365650e-09	-5.017427e+01	-6.153521e+02
2.600000e-07	-6.968283e-06	-9.322748e-09	-4.965849e+01	-6.123356e+02
2.700000e-07	-6.893105e-06	-9.265075e-09	-4.912275e+01	-6.091817e+02
2.800000e-07	-6.815116e-06	-9.224798e-09	-4.856698e+01	-6.058971e+02
2.900000e-07	-6.734368e-06	-9.182260e-09	-4.799154e+01	-6.024895e+02
3.000000e-07	-6.651180e-06	-9.138832e-09	-4.739871e+01	-5.989659e+02
3.100000e-07	-6.565750e-06	-9.068075e-09	-4.678990e+01	-5.953321e+02
3.200000e-07	-6.477988e-06	-9.000383e-09	-4.616448e+01	-5.915913e+02
3.300000e-07	-6.387880e-06	-8.947709e-09	-4.552234e+01	-5.877436e+02
3.400000e-07	-6.295481e-06	-8.884570e-09	-4.486386e+01	-5.837856e+02
3.500000e-07	-6.200815e-06	-8.826764e-09	-4.418925e+01	-5.797106e+02
3.600000e-07	-6.103843e-06	-8.772339e-09	-4.349819e+01	-5.755092e+02
3.700000e-07	-6.004591e-06	-8.707795e-09	-4.279088e+01	-5.711704e+02
3.800000e-07	-5.903197e-06	-8.629867e-09	-4.206831e+01	-5.666828e+02
3.900000e-07	-5.799762e-06	-8.558441e-09	-4.133120e+01	-5.620365e+02
4.000000e-07	-5.694293e-06	-8.488434e-09	-4.057958e+01	-5.572238e+02
4.100000e-07	-5.586807e-06	-8.409404e-09	-3.981360e+01	-5.522405e+02
4.200000e-07	-5.477354e-06	-8.333107e-09	-3.903360e+01	-5.470859e+02
4.300000e-07	-5.365945e-06	-8.257291e-09	-3.823966e+01	-5.417630e+02
4.400000e-07	-5.252484e-06	-8.177084e-09	-3.743109e+01	-5.362774e+02
4.500000e-07	-5.136890e-06	-8.085766e-09	-3.660733e+01	-5.306358e+02
4.600000e-07	-5.019352e-06	-7.990334e-09	-3.576972e+01	-5.248446e+02
4.700000e-07	-4.900055e-06	-7.901323e-09	-3.491956e+01	-5.189078e+02
4.800000e-07	-4.778911e-06	-7.815999e-09	-3.405624e+01	-5.128262e+02
4.900000e-07	-4.655969e-06	-7.725639e-09	-3.318011e+01	-5.065956e+02
5.000000e-07	-4.531393e-06	-7.625234e-09	-3.229234e+01	-5.002071e+02
5.100000e-07	-4.405208e-06	-7.520746e-09	-3.139310e+01	-4.936473e+02
5.200000e-07	-4.277413e-06	-7.417786e-09	-3.048239e+01	-4.868994e+02
5.300000e-07	-4.148034e-06	-7.308968e-09	-2.956039e+01	-4.799452e+02
5.400000e-07	-4.017076e-06	-7.193204e-09	-2.862713e+01	-4.727668e+02
5.500000e-07	-3.884618e-06	-7.079394e-09	-2.768319e+01	-4.653490e+02
5.600000e-07	-3.750726e-06	-6.967962e-09	-2.672903e+01	-4.576805e+02
5.700000e-07	-3.615392e-06	-6.848725e-09	-2.576459e+01	-4.497552e+02
5.800000e-07	-3.478655e-06	-6.721768e-09	-2.479015e+01	-4.415722e+02
5.900000e-07	-3.340524e-06	-6.594959e-09	-2.380578e+01	-4.331352e+02
6.000000e-07	-3.201062e-06	-6.463727e-09	-2.281192e+01	-4.244504e+02
6.100000e-07	-3.060262e-06	-6.324510e-09	-2.180853e+01	-4.155247e+02
6.200000e-07	-2.918132e-06	-6.185071e-09	-2.079566e+01	-4.063630e+02
6.300000e-07	-2.774754e-06	-6.045630e-09	-1.977390e+01	-3.969659e+02
6.400000e-07	-2.630236e-06	-5.898304e-09	-1.874401e+01	-3.873275e+02
6.500000e-07	-2.484808e-06	-5.742633e-09	-1.770764e+01	-3.774350e+02
6.600000e-07	-2.338624e-06	-5.583717e-09	-1.666588e+01	-3.672682e+02
6.700000e-07	-2.191707e-06	-5.423137e-09	-1.561889e+01	-3.568014e+02
6.800000e-07	-2.044102e-06	-5.256175e-09	-1.456701e+01	-3.460053e+02
6.900000e-07	-1.895870e-06	-5.085216e-09	-1.351066e+01	-3.348502e+02
7.000000e-07	-1.747020e-06	-4.912129e-09	-1.244989e+01	-3.233089e+02
7.100000e-07	-1.597637e-06	-4.730429e-09	-1.138534e+01	-3.113596e+02
7.200000e-07	-1.447820e-06	-4.541001e-09	-1.031768e+01	-2.989877e+02
7.300000e-07	-1.297541e-06	-4.347930e-09	-9.246746e+00	-2.861865e+02
7.400000e-07	-1.146745e-06	-4.149190e-09	-8.172119e+00	-2.729559e+02
7.500000e-07	-9.954669e-07	-3.944034e-09	-7.094056e+00	-2.593000e+02
7.600000e-07	-8.438406e-07	-3.733517e-09	-6.013512e+00	-2.452229e+02
7.700000e-07	-6.918976e-07	-3.514737e-09	-4.930712e+00	-2.307237e+02
7.800000e-07	-5.396462e-07	-3.286845e-09	-3.845713e+00	-2.157916e+02
7.900000e-07	-3.872037e-07	-3.050784e-09	-2.759353e+00	-2.004014e+02
8.000000e-07	-2.346301e-07	-2.805103e-09	-1.672059e+00	-1.845106e+02
8.100000e-07	-8.187962e-08	-2.551401e-09	-5.835037e-01	-1.680587e+02
8.200000e-07	7.101886e-08	-2.289438e-09	5.061060e-01	-1.509691e+02
8.300000e-07	2.239603e-07	-2.017909e-09	1.596022e+00	-1.331539e+02
8.400000e-07	3.768243e-07	-1.733826e-09	2.685386e+00	-1.145216e+02
8.500000e-07	5.294790e-07	-1.435911e-09	3.773258e+00	-9.498667e+01
8.600000e-07	6.819603e-07	-1.125984e-09	4.859895e+00	-7.448027e+01
8.700000e-07	8.342225e-07	-8.018322e-10	5.944970e+00	-5.296156e+01
8.800000e-07	9.861565e-07	-4.614214e-10	7.027707e+00	-3.042742e+01
8.900000e-07	1.137717e-06	-1.061231e-10	8.107782e+00	-6.920014e+00
9.000000e-07	1.288816e-06	2.634655e-10	9.184571e+00	1.746898e+01
9.100000e-07	1.439392e-06	6.464544e-10	1.025762e+01	4.259824e+01
9.200000e-07	1.589437e-06	1.039523e-09	1.132690e+01	6.828093e+01
9.300000e-07	1.738937e-06	1.439632e-09	1.239229e+01	9.429305e+01
9.400000e-07	1.887858e-06	1.842174e-09	1.345356e+01	1.203853e+02
9.500000e-07	2.036160e-06	2.241752e-09	1.451041e+01	1.462972e+02
9.600000e-07	2.183769e-06	2.633392e-09	1.556232e+01	1.717727e+02
9.700000e-07	2.330593e-06	3.013340e-09	1.660865e+01	1.965754e+02
9.800000e-07	2.476550e-06	3.375848e-09	1.764879e+01	2.205014e+02
9.900000e-07	2.621579e-06	3.720712e-09	1.868232e+01	2.433903e+02
1.000000e-06	2.765586e-06	4.046587e-09	1.970856e+01	2.651316e+02
1.010000e-06	2.908489e-06	4.352685e-09	2.072694e+01	2.856667e+02
1.020000e-06	3.050218e-06	4.640901e-09	2.173695e+01	3.049870e+02
1.030000e-06	3.190726e-06	4.915033e-09	2.273826e+01	3.231274e+02
1.040000e-06	3.329994e-06	5.175758e-09	2.373074e+01	3.401582e+02
1.050000e-06	3.467996e-06	5.420611e-09	2.471419e+01	3.561729e+02
1.060000e-06	3.604588e-06	5.652697e-09	2.568759e+01	3.712775e+02
1.070000e-06	3.739772e-06	5.874731e-09	2.665096e+01	3.855791e+02
1.080000e-06	3.873669e-06	6.084568e-09	2.760516e+01	3.991763e+02
1.090000e-06	4.006229e-06	6.282124e-09	2.854983e+01	4.121528e+02
1.100000e-06	4.137408e-06	6.470886e-09	2.948466e+01	4.245729e+02
1.110000e-06	4.267089e-06	6.650443e-09	3.040881e+01	4.364808e+02
1.120000e-06	4.395120e-06	6.820872e-09	3.132121e+01	4.479025e+02
1.130000e-06	4.521624e-06	6.984138e-09	3.222272e+01	4.588488e+02
1.140000e-06	4.646660e-06	7.141834e-09	3.311378e+01	4.693213e+02
1.150000e-06	4.770159e-06	7.293919e-09	3.399387e+01	4.793175e+02
1.160000e-06	4.892043e-06	7.439188e-09	3.486246e+01	4.888357e+02
1.170000e-06	5.012046e-06	7.576534e-09	3.571765e+01	4.978797e+02
1.180000e-06	5.130165e-06	7.707192e-09	3.655941e+01	5.064609e+02
1.190000e-06	5.246461e-06	7.831087e-09	3.738817e+01	5.145995e+02
1.200000e-06	5.360738e-06	7.948513e-09	3.820255e+01	5.223233e+02
1.210000e-06	5.472879e-06	8.060993e-09	3.900171e+01	5.296662e+02
1.220000e-06	5.583004e-06	8.170641e-09	3.978650e+01	5.366648e+02
1.230000e-06	5.691242e-06	8.274165e-09	4.055784e+01	5.433556e+02
1.240000e-06	5.797522e-06	8.371308e-09	4.131523e+01	5.497715e+02
1.250000e-06	5.901606e-06	8.466750e-09	4.205698e+01	5.559398e+02
1.260000e-06	6.003487e-06	8.559732e-09	4.278301e+01	5.618808e+02
1.270000e-06	6.103262e-06	8.646399e-09	4.349405e+01	5.676074e+02
1.280000e-06	6.200665e-06	8.725136e-09	4.418817e+01	5.731260e+02
1.290000e-06	6.295652e-06	8.800548e-09	4.486508e+01	5.784382e+02
1.300000e-06	6.388462e-06	8.875666e-09	4.552648e+01	5.835424e+02
1.310000e-06	6.479012e-06	8.949740e-09	4.617178e+01	5.884363e+02
1.320000e-06	6.567166e-06	9.022900e-09	4.679999e+01	5.931189e+02
1.330000e-06	6.653066e-06	9.093265e-09	4.741215e+01	5.975914e+02
1.340000e-06	6.736733e-06	9.160394e-09	4.800839e+01	6.018579e+02
1.350000e-06	6.817918e-06	9.222654e-09	4.858694e+01	6.059257e+02
1.360000e-06	6.896547e-06	9.281238e-09	4.914728e+01	6.098036e+02
1.370000e-06	6.972645e-06	9.338266e-09	4.968958e+01	6.135014e+02
1.380000e-06	7.046085e-06	9.392411e-09	5.021294e+01	6.170282e+02
1.390000e-06	7.116953e-06	9.444382e-09	5.071797e+01	6.203910e+02
1.400000e-06	7.185352e-06	9.494093e-09	5.120541e+01	6.235935e+02
1.410000e-06	7.251146e-06	9.541657e-09	5.167428e+01	6.266363e+02
1.420000e-06	7.314350e-06	9.585108e-09	5.212470e+01	6.295168e+02
1.430000e-06	7.375144e-06	9.624355e-09	5.255793e+01	6.322300e+02
1.440000e-06	7.433399e-06	9.662259e-09	5.297308e+01	6.347701e+02
1.450000e-06	7.488945e-06	9.698774e-09	5.336892e+01	6.371317e+02
1.460000e-06	7.541634e-06	9.731681e-09	5.374440e+01	6.393114e+02
1.470000e-06	7.591186e-06	9.761535e-09	5.409753e+01	6.413091e+02
1.480000e-06	7.637815e-06	9.788601e-09	5.442982e+01	6.431287e+02
1.490000e-06	7.681866e-06	9.811997e-09	5.474374e+01	6.447781e+02
1.500000e-06	7.723188e-06	9.834620e-09	5.503822e+01	6.462687e+02
1.510000e-06	7.761714e-06	9.858029e-09	5.531277e+01	6.476143e+02
1.520000e-06	7.797559e-06	9.880994e-09	5.556822e+01	6.488296e+02
1.530000e-06	7.830552e-06	9.901079e-09	5.580334e+01	6.499286e+02
1.540000e-06	7.860728e-06	9.917593e-09	5.601838e+01	6.509228e+02
1.550000e-06	7.888231e-06	9.931091e-09	5.621438e+01	6.518204e+02
1.560000e-06	7.912801e-06	9.941723e-09	5.638948e+01	6.526252e+02
1.570000e-06	7.934501e-06	9.952333e-09	5.654412e+01	6.533368e+02
1.580000e-06	7.953502e-06	9.963600e-09	5.667952e+01	6.539509e+02
1.590000e-06	7.969546e-06	9.973682e-09	5.679386e+01	6.544605e+02
1.600000e-06	7.982502e-06	9.979042e-09	5.688619e+01	6.548571e+02
1.610000e-06	7.992310e-06	9.980102e-09	5.695608e+01	6.551325e+02
1.620000e-06	7.999112e-06	9.983138e-09	5.700455e+01	6.552798e+02
1.630000e-06	8.003133e-06	9.986956e-09	5.703321e+01	6.552953e+02
1.640000e-06	8.004296e-06	9.988942e-09	5.704150e+01	6.551783e+02
1.650000e-06	8.002687e-06	9.987471e-09	5.703003e+01	6.549321e+02
1.660000e-06	7.998512e-06	9.980635e-09	5.700028e+01	6.545632e+02
1.670000e-06	7.991666e-06	9.976487e-09	5.695149e+01	6.540806e+02
1.680000e-06	7.982135e-06	9.969468e-09	5.688357e+01	6.534948e+02
1.690000e-06	7.969874e-06	9.959409e-09	5.679620e+01	6.528165e+02
1.700000e-06	7.954786e-06	9.949972e-09	5.668867e+01	6.520556e+02
1.710000e-06	7.937197e-06	9.934200e-09	5.656333e+01	6.512202e+02
1.720000e-06	7.917359e-06	9.901146e-09	5.642196e+01	6.503157e+02
1.730000e-06	7.894855e-06	9.830357e-09	5.626159e+01	6.493447e+02
1.740000e-06	7.869055e-06	9.811059e-09	5.607772e+01	6.483073e+02
1.750000e-06	7.839690e-06	9.841745e-09	5.586845e+01	6.472009e+02
1.760000e-06	7.807087e-06	9.839967e-09	5.563612e+01	6.460212e+02
1.770000e-06	7.771981e-06	9.833283e-09	5.538594e+01	6.447625e+02
1.780000e-06	7.734542e-06	9.843799e-09	5.511914e+01	6.434185e+02
1.790000e-06	7.694885e-06	9.815271e-09	5.483652e+01	6.419824e+02
1.800000e-06	7.653165e-06	9.747255e-09	5.453921e+01	6.404475e+02
1.810000e-06	7.608908e-06	9.764622e-09	5.422383e+01	6.388071e+02
1.820000e-06	7.561974e-06	9.744892e-09	5.388935e+01	6.370547e+02
1.830000e-06	7.512301e-06	9.725287e-09	5.353536e+01	6.351836e+02
1.840000e-06	7.459560e-06	9.716110e-09	5.315951e+01	6.331876e+02
1.850000e-06	7.403962e-06	9.633487e-09	5.276330e+01	6.310605e+02
1.860000e-06	7.345691e-06	9.621898e-09	5.234804e+01	6.287966e+02
1.870000e-06	7.284793e-06	9.558554e-09	5.191406e+01	6.263910e+02
1.880000e-06	7.221203e-06	9.529153e-09	5.146089e+01	6.238404e+02
1.890000e-06	7.154796e-06	9.519135e-09	5.098765e+01	6.211429e+02
1.900000e-06	7.085648e-06	9.450609e-09	5.049488e+01	6.182991e+02
1.910000e-06	7.013701e-06	9.423500e-09	4.998217e+01	6.153117e+02
1.920000e-06	6.939041e-06	9.344386e-09	4.945010e+01	6.121855e+02
1.930000e-06	6.861639e-06	9.299259e-09	4.889851e+01	6.089273e+02
1.940000e-06	6.781530e-06	9.238341e-09	4.832763e+01	6.055443e+02
1.950000e-06	6.698930e-06	9.185624e-09	4.773899e+01	6.020440e+02
1.960000e-06	6.613772e-06	9.158611e-09	4.713212e+01	5.984323e+02
1.970000e-06	6.526172e-06	9.087761e-09	4.650785e+01	5.947133e+02
1.980000e-06	6.436356e-06	9.050471e-09	4.586779e+01	5.908876e+02
1.990000e-06	6.344381e-06	8.980801e-09	4.521235e+01	5.869527e+02
2.000000e-06	6.250070e-06	8.906610e-09	4.454025e+01	5.829024e+02
2.010000e-06	6.153392e-06	8.825096e-09	4.385129e+01	5.787279e+02
2.020000e-06	6.054576e-06	8.758556e-09	4.314709e+01	5.744184e+02
2.030000e-06	5.953630e-06	8.701091e-09	4.242771e+01	5.699626e+02
2.040000e-06	5.850470e-06	8.635996e-09	4.169256e+01	5.653499e+02
2.050000e-06	5.745235e-06	8.571400e-09	4.094262e+01	5.605723e+02
2.060000e-06	5.638125e-06	8.482490e-09	4.017931e+01	5.556246e+02
2.070000e-06	5.529043e-06	8.397721e-09	3.940195e+01	5.505055e+02
2.080000e-06	5.417911e-06	8.311246e-09	3.860999e+01	5.452173e+02
2.090000e-06	5.304798e-06	8.240812e-09	3.780391e+01	5.397649e+02
2.100000e-06	5.189749e-06	8.162710e-09	3.698403e+01	5.341551e+02
2.110000e-06	5.072671e-06	8.077628e-09	3.614968e+01	5.283944e+02
2.120000e-06	4.953568e-06	7.981500e-09	3.530091e+01	5.224876e+02
2.130000e-06	4.832652e-06	7.882755e-09	3.443922e+01	5.164361e+02
2.140000e-06	4.710011e-06	7.786698e-09	3.356523e+01	5.102370e+02
2.150000e-06	4.585627e-06	7.690740e-09	3.267883e+01	5.038822e+02
2.160000e-06	4.459472e-06	7.594220e-09	3.177981e+01	4.973594e+02
2.170000e-06	4.331683e-06	7.492934e-09	3.086914e+01	4.906522e+02
2.180000e-06	4.202380e-06	7.391894e-09	2.994768e+01	4.837427e+02
2.190000e-06	4.071570e-06	7.281092e-09	2.901548e+01	4.766127e+02
2.200000e-06	3.939241e-06	7.164618e-09	2.807246e+01	4.692462e+02
2.210000e-06	3.805393e-06	7.044922e-09	2.711860e+01	4.616311e+02
2.220000e-06	3.670051e-06	6.927094e-09	2.615411e+01	4.537600e+02
2.230000e-06	3.533411e-06	6.805511e-09	2.518036e+01	4.456310e+02
2.240000e-06	3.395509e-06	6.683774e-09	2.419762e+01	4.372468e+02
2.250000e-06	3.256225e-06	6.558909e-09	2.320503e+01	4.286135e+02
2.260000e-06	3.115625e-06	6.423974e-09	2.220307e+01	4.197378e+02
2.270000e-06	2.973760e-06	6.277883e-09	2.119209e+01	4.106254e+02
2.280000e-06	2.830719e-06	6.129138e-09	2.017272e+01	4.012780e+02
2.290000e-06	2.686646e-06	5.984123e-09	1.914601e+01	3.916911e+02
2.300000e-06	2.541678e-06	5.838563e-09	1.811291e+01	3.818533e+02
2.310000e-06	2.395946e-06	5.690301e-09	1.707437e+01	3.717462e+02
2.320000e-06	2.249482e-06	5.533785e-09	1.603062e+01	3.613450e+02
2.330000e-06	2.102215e-06	5.366782e-09	1.498115e+01	3.506210e+02
2.340000e-06	1.954093e-06	5.191967e-09	1.392557e+01	3.395442e+02
2.350000e-06	1.805287e-06	5.017472e-09	1.286513e+01	3.280866e+02
2.360000e-06	1.655972e-06	4.841293e-09	1.180105e+01	3.162252e+02
2.370000e-06	1.506133e-06	4.654166e-09	1.073324e+01	3.039436e+02
2.380000e-06	1.355748e-06	4.460398e-09	9.661547e+00	2.912335e+02
2.390000e-06	1.204843e-06	4.261984e-09	8.586144e+00	2.780936e+02
2.400000e-06	1.053528e-06	4.054703e-09	7.507820e+00	2.645274e+02
2.410000e-06	9.018983e-07	3.837787e-09	6.427252e+00	2.505393e+02
2.420000e-06	7.500122e-07	3.616492e-09	5.344857e+00	2.361300e+02
2.430000e-06	5.978688e-07	3.392280e-09	4.260628e+00	2.212911e+02
2.440000e-06	4.454991e-07	3.160612e-09	3.174787e+00	2.060010e+02
2.450000e-06	2.930025e-07	2.919440e-09	2.088042e+00	1.902209e+02
2.460000e-06	1.403843e-07	2.668307e-09	1.000429e+00	1.738941e+02
2.470000e-06	-1.233111e-08	2.405769e-09	-8.787591e-02	1.569472e+02
2.480000e-06	-1.650528e-07	2.130081e-09	-1.176225e+00	1.392941e+02
2.490000e-06	-3.177381e-07	1.843285e-09	-2.264316e+00	1.208435e+02
2.500000e-06	-4.703519e-07	1.547844e-09	-3.351897e+00	1.015074e+02
2.510000e-06	-6.228231e-07	1.241590e-09	-4.438462e+00	8.121264e+01
2.520000e-06	-7.750818e-07	9.227527e-10	-5.523513e+00	5.991147e+01
2.530000e-06	-9.271082e-07	5.877678e-10	-6.606907e+00	3.759194e+01
2.540000e-06	-1.078820e-06	2.347189e-10	-7.688062e+00	1.428602e+01
2.550000e-06	-1.230078e-06	-1.331057e-10	-8.765980e+00	-9.925371e+00
2.560000e-06	-1.380883e-06	-5.147596e-10	-9.840673e+00	-3.491134e+01
2.570000e-06	-1.531240e-06	-9.075773e-10	-1.091217e+01	-6.049426e+01
2.580000e-06	-1.681105e-06	-1.307464e-09	-1.198016e+01	-8.645719e+01
2.590000e-06	-1.830337e-06	-1.708334e-09	-1.304364e+01	-1.125551e+02
2.600000e-06	-1.978710e-06	-2.107161e-09	-1.410100e+01	-1.385286e+02
2.610000e-06	-2.126231e-06	-2.502761e-09	-1.515229e+01	-1.641196e+02
2.620000e-06	-2.272992e-06	-2.888874e-09	-1.619816e+01	-1.890859e+02
2.630000e-06	-2.418949e-06	-3.257579e-09	-1.723830e+01	-2.132159e+02
2.640000e-06	-2.564044e-06	-3.607048e-09	-1.827230e+01	-2.363393e+02
2.650000e-06	-2.708179e-06	-3.938386e-09	-1.929946e+01	-2.583343e+02
2.660000e-06	-2.851297e-06	-4.252454e-09	-2.031937e+01	-2.791313e+02
2.670000e-06	-2.993379e-06	-4.550033e-09	-2.133190e+01	-2.987113e+02
2.680000e-06	-3.134225e-06	-4.831190e-09	-2.233562e+01	-3.171008e+02
2.690000e-06	-3.273681e-06	-5.096846e-09	-2.332943e+01	-3.343631e+02
2.700000e-06	-3.411824e-06	-5.346076e-09	-2.431389e+01	-3.505880e+02
2.710000e-06	-3.548720e-06	-5.582506e-09	-2.528945e+01	-3.658795e+02
2.720000e-06	-3.684315e-06	-5.810358e-09	-2.625576e+01	-3.803455e+02
2.730000e-06	-3.818582e-06	-6.027943e-09	-2.721259e+01	-3.940871e+02
2.740000e-06	-3.951452e-06	-6.232090e-09	-2.815947e+01	-4.071916e+02
2.750000e-06	-4.082852e-06	-6.423845e-09	-2.909587e+01	-4.197276e+02
2.760000e-06	-4.212858e-06	-6.606379e-09	-3.002234e+01	-4.317436e+02
2.770000e-06	-4.341490e-06	-6.779902e-09	-3.093903e+01	-4.432691e+02
2.780000e-06	-4.468668e-06	-6.943958e-09	-3.184534e+01	-4.543180e+02
2.790000e-06	-4.594257e-06	-7.100662e-09	-3.274033e+01	-4.648933e+02
2.800000e-06	-4.718164e-06	-7.253783e-09	-3.362334e+01	-4.749928e+02
2.810000e-06	-4.840441e-06	-7.402640e-09	-3.449473e+01	-4.846144e+02
2.820000e-06	-4.961071e-06	-7.543993e-09	-3.535438e+01	-4.937605e+02
2.830000e-06	-5.079836e-06	-7.677128e-09	-3.620074e+01	-5.024405e+02
2.840000e-06	-5.196499e-06	-7.804122e-09	-3.703213e+01	-5.106729e+02
2.850000e-06	-5.311026e-06	-7.925762e-09	-3.784828e+01	-5.184840e+02
2.860000e-06	-5.423422e-06	-8.039340e-09	-3.864926e+01	-5.259065e+02
2.870000e-06	-5.533692e-06	-8.146558e-09	-3.943509e+01	-5.329769e+02
2.880000e-06	-5.642017e-06	-8.250258e-09	-4.020705e+01	-5.397318e+02
2.890000e-06	-5.748470e-06	-8.349735e-09	-4.096567e+01	-5.462051e+02
2.900000e-06	-5.852884e-06	-8.445417e-09	-4.170976e+01	-5.524256e+02
2.910000e-06	-5.955081e-06	-8.536422e-09	-4.243806e+01	-5.584150e+02
2.920000e-06	-6.054980e-06	-8.623953e-09	-4.314997e+01	-5.641878e+02
2.930000e-06	-6.152675e-06	-8.708029e-09	-4.384618e+01	-5.697519e+02
2.940000e-06	-6.248213e-06	-8.787564e-09	-4.452702e+01	-5.751094e+02
