# Temperatura_=_30.2
# Concentracion g/m^3_=_10000.0
# C_Vs_to_Am_M_A/Vsm_=_65563218390.804596
# pendiente_HvsI_1/m_=_3716.3
# ordenada_HvsI_A/m_=_1297.0
# frecuencia_Hz_=_302609.9719272477

Tiempo_(s)	Campo_(V.s)	Magnetizacion_(V.s)	Campo_(kA/m)	Magnetizacion_(A/m)
0.000000e+00	-7.875900e-06	-8.170980e-09	-5.684335e+01	-5.355912e+02
1.000000e-08	-7.873783e-06	-8.175392e-09	-5.682807e+01	-5.353883e+02
2.000000e-08	-7.868968e-06	-8.173956e-09	-5.679332e+01	-5.350802e+02
3.000000e-08	-7.861612e-06	-8.167931e-09	-5.674023e+01	-5.346790e+02
4.000000e-08	-7.851576e-06	-8.163021e-09	-5.666779e+01	-5.342004e+02
5.000000e-08	-7.838670e-06	-8.154479e-09	-5.657465e+01	-5.336622e+02
6.000000e-08	-7.822774e-06	-8.141113e-09	-5.645992e+01	-5.330818e+02
7.000000e-08	-7.804278e-06	-8.129668e-09	-5.632643e+01	-5.324742e+02
8.000000e-08	-7.783618e-06	-8.116058e-09	-5.617732e+01	-5.318502e+02
9.000000e-08	-7.760390e-06	-8.143146e-09	-5.600967e+01	-5.312149e+02
1.000000e-07	-7.733984e-06	-8.182542e-09	-5.581909e+01	-5.305675e+02
1.100000e-07	-7.704431e-06	-8.133680e-09	-5.560580e+01	-5.299009e+02
1.200000e-07	-7.672110e-06	-8.080925e-09	-5.537252e+01	-5.292032e+02
1.300000e-07	-7.637102e-06	-8.060908e-09	-5.511985e+01	-5.284589e+02
1.400000e-07	-7.599631e-06	-8.028159e-09	-5.484941e+01	-5.276505e+02
1.500000e-07	-7.560073e-06	-7.981897e-09	-5.456391e+01	-5.267609e+02
1.600000e-07	-7.518285e-06	-8.010051e-09	-5.426231e+01	-5.257746e+02
1.700000e-07	-7.473851e-06	-8.063300e-09	-5.394161e+01	-5.246793e+02
1.800000e-07	-7.426757e-06	-7.936667e-09	-5.360172e+01	-5.234669e+02
1.900000e-07	-7.376898e-06	-7.944086e-09	-5.324187e+01	-5.221333e+02
2.000000e-07	-7.324054e-06	-7.947852e-09	-5.286047e+01	-5.206786e+02
2.100000e-07	-7.268380e-06	-7.849092e-09	-5.245865e+01	-5.191063e+02
2.200000e-07	-7.210004e-06	-7.874709e-09	-5.203732e+01	-5.174218e+02
2.300000e-07	-7.149089e-06	-7.850664e-09	-5.159768e+01	-5.156319e+02
2.400000e-07	-7.085648e-06	-7.834608e-09	-5.113980e+01	-5.137432e+02
2.500000e-07	-7.019454e-06	-7.782519e-09	-5.066205e+01	-5.117617e+02
2.600000e-07	-6.950575e-06	-7.753452e-09	-5.016493e+01	-5.096918e+02
2.700000e-07	-6.879073e-06	-7.741539e-09	-4.964887e+01	-5.075360e+02
2.800000e-07	-6.804786e-06	-7.685259e-09	-4.911272e+01	-5.052953e+02
2.900000e-07	-6.727649e-06	-7.653198e-09	-4.855599e+01	-5.029692e+02
3.000000e-07	-6.647800e-06	-7.622636e-09	-4.797969e+01	-5.005562e+02
3.100000e-07	-6.565490e-06	-7.606376e-09	-4.738563e+01	-4.980540e+02
3.200000e-07	-6.480923e-06	-7.549001e-09	-4.677528e+01	-4.954602e+02
3.300000e-07	-6.394150e-06	-7.490501e-09	-4.614900e+01	-4.927723e+02
3.400000e-07	-6.305071e-06	-7.468324e-09	-4.550609e+01	-4.899878e+02
3.500000e-07	-6.213695e-06	-7.415470e-09	-4.484659e+01	-4.871044e+02
3.600000e-07	-6.120116e-06	-7.372565e-09	-4.417119e+01	-4.841194e+02
3.700000e-07	-6.024302e-06	-7.336111e-09	-4.347967e+01	-4.810299e+02
3.800000e-07	-5.926224e-06	-7.291919e-09	-4.277180e+01	-4.778328e+02
3.900000e-07	-5.825972e-06	-7.228286e-09	-4.204825e+01	-4.745242e+02
4.000000e-07	-5.723721e-06	-7.165166e-09	-4.131026e+01	-4.711000e+02
4.100000e-07	-5.619497e-06	-7.119848e-09	-4.055804e+01	-4.675562e+02
4.200000e-07	-5.513203e-06	-7.066880e-09	-3.979087e+01	-4.638886e+02
4.300000e-07	-5.404897e-06	-7.018162e-09	-3.900919e+01	-4.600935e+02
4.400000e-07	-5.294800e-06	-6.962700e-09	-3.821457e+01	-4.561679e+02
4.500000e-07	-5.182766e-06	-6.901002e-09	-3.740598e+01	-4.521095e+02
4.600000e-07	-5.068642e-06	-6.825558e-09	-3.658231e+01	-4.479166e+02
4.700000e-07	-4.952534e-06	-6.748992e-09	-3.574431e+01	-4.435877e+02
4.800000e-07	-4.834584e-06	-6.684265e-09	-3.489302e+01	-4.391212e+02
4.900000e-07	-4.714881e-06	-6.622628e-09	-3.402908e+01	-4.345149e+02
5.000000e-07	-4.593435e-06	-6.557915e-09	-3.315256e+01	-4.297654e+02
5.100000e-07	-4.470318e-06	-6.482379e-09	-3.226398e+01	-4.248677e+02
5.200000e-07	-4.345590e-06	-6.402332e-09	-3.136377e+01	-4.198152e+02
5.300000e-07	-4.219292e-06	-6.320143e-09	-3.045223e+01	-4.145997e+02
5.400000e-07	-4.091430e-06	-6.234016e-09	-2.952940e+01	-4.092117e+02
5.500000e-07	-3.962122e-06	-6.142833e-09	-2.859614e+01	-4.036413e+02
5.600000e-07	-3.831295e-06	-6.053961e-09	-2.765191e+01	-3.978787e+02
5.700000e-07	-3.698904e-06	-5.968699e-09	-2.669639e+01	-3.919155e+02
5.800000e-07	-3.565154e-06	-5.877059e-09	-2.573106e+01	-3.857449e+02
5.900000e-07	-3.430098e-06	-5.777905e-09	-2.475631e+01	-3.793624e+02
6.000000e-07	-3.293715e-06	-5.674203e-09	-2.377199e+01	-3.727657e+02
6.100000e-07	-3.156096e-06	-5.570534e-09	-2.277874e+01	-3.659541e+02
6.200000e-07	-3.017247e-06	-5.463256e-09	-2.177661e+01	-3.589279e+02
6.300000e-07	-2.877008e-06	-5.355571e-09	-2.076446e+01	-3.516867e+02
6.400000e-07	-2.735446e-06	-5.247284e-09	-1.974275e+01	-3.442287e+02
6.500000e-07	-2.592782e-06	-5.130786e-09	-1.871309e+01	-3.365486e+02
6.600000e-07	-2.449228e-06	-5.006780e-09	-1.767701e+01	-3.286373e+02
6.700000e-07	-2.304839e-06	-4.876714e-09	-1.663489e+01	-3.204813e+02
6.800000e-07	-2.159511e-06	-4.744208e-09	-1.558601e+01	-3.120623e+02
6.900000e-07	-2.013389e-06	-4.608703e-09	-1.453139e+01	-3.033591e+02
7.000000e-07	-1.866665e-06	-4.473770e-09	-1.347243e+01	-2.943482e+02
7.100000e-07	-1.719396e-06	-4.334792e-09	-1.240953e+01	-2.850062e+02
7.200000e-07	-1.571613e-06	-4.185926e-09	-1.134292e+01	-2.753116e+02
7.300000e-07	-1.423331e-06	-4.029118e-09	-1.027272e+01	-2.652469e+02
7.400000e-07	-1.274655e-06	-3.866866e-09	-9.199667e+00	-2.547994e+02
7.500000e-07	-1.125641e-06	-3.700827e-09	-8.124180e+00	-2.439621e+02
7.600000e-07	-9.762590e-07	-3.530388e-09	-7.046031e+00	-2.327325e+02
7.700000e-07	-8.265539e-07	-3.357323e-09	-5.965552e+00	-2.211113e+02
7.800000e-07	-6.765770e-07	-3.177200e-09	-4.883113e+00	-2.090993e+02
7.900000e-07	-5.263717e-07	-2.988831e-09	-3.799024e+00	-1.966946e+02
8.000000e-07	-3.759540e-07	-2.793109e-09	-2.713403e+00	-1.838885e+02
8.100000e-07	-2.253143e-07	-2.591366e-09	-1.626179e+00	-1.706631e+02
8.200000e-07	-7.454602e-08	-2.381257e-09	-5.380268e-01	-1.569891e+02
8.300000e-07	7.621049e-08	-2.162108e-09	5.500400e-01	-1.428251e+02
8.400000e-07	2.269258e-07	-1.935877e-09	1.637809e+00	-1.281193e+02
8.500000e-07	3.775969e-07	-1.700928e-09	2.725260e+00	-1.128128e+02
8.600000e-07	5.282089e-07	-1.458386e-09	3.812284e+00	-9.684471e+01
8.700000e-07	6.786370e-07	-1.207957e-09	4.897980e+00	-8.015953e+01
8.800000e-07	8.287931e-07	-9.475941e-10	5.981714e+00	-6.271456e+01
8.900000e-07	9.787086e-07	-6.711112e-10	7.063711e+00	-4.448802e+01
9.000000e-07	1.128302e-06	-3.830057e-10	8.143380e+00	-2.548612e+01
9.100000e-07	1.277492e-06	-8.770093e-11	9.220145e+00	-5.748527e+00
9.200000e-07	1.426290e-06	2.198946e-10	1.029408e+01	1.464860e+01
9.300000e-07	1.574651e-06	5.411484e-10	1.136485e+01	3.559261e+01
9.400000e-07	1.722523e-06	8.721575e-10	1.243210e+01	5.693750e+01
9.500000e-07	1.869837e-06	1.204218e-09	1.349532e+01	7.851016e+01
9.600000e-07	2.016476e-06	1.535888e-09	1.455367e+01	1.001193e+02
9.700000e-07	2.162294e-06	1.867220e-09	1.560609e+01	1.215660e+02
9.800000e-07	2.307268e-06	2.193479e-09	1.665243e+01	1.426556e+02
9.900000e-07	2.451405e-06	2.506439e-09	1.769272e+01	1.632085e+02
1.000000e-06	2.594523e-06	2.805525e-09	1.872566e+01	1.830705e+02
1.010000e-06	2.736589e-06	3.090929e-09	1.975100e+01	2.021203e+02
1.020000e-06	2.877643e-06	3.363832e-09	2.076904e+01	2.202740e+02
1.030000e-06	3.017551e-06	3.624744e-09	2.177881e+01	2.374867e+02
1.040000e-06	3.156129e-06	3.871348e-09	2.277898e+01	2.537504e+02
1.050000e-06	3.293392e-06	4.104229e-09	2.376965e+01	2.690890e+02
1.060000e-06	3.429494e-06	4.323715e-09	2.475196e+01	2.835513e+02
1.070000e-06	3.564322e-06	4.530416e-09	2.572506e+01	2.972022e+02
1.080000e-06	3.697802e-06	4.727695e-09	2.668844e+01	3.101143e+02
1.090000e-06	3.830062e-06	4.915126e-09	2.764301e+01	3.223595e+02
1.100000e-06	3.960906e-06	5.092492e-09	2.858736e+01	3.340025e+02
1.110000e-06	4.090217e-06	5.263685e-09	2.952065e+01	3.450958e+02
1.120000e-06	4.218123e-06	5.427156e-09	3.044379e+01	3.556783e+02
1.130000e-06	4.344588e-06	5.581520e-09	3.135654e+01	3.657748e+02
1.140000e-06	4.469669e-06	5.727130e-09	3.225929e+01	3.753987e+02
1.150000e-06	4.593260e-06	5.863774e-09	3.315130e+01	3.845552e+02
1.160000e-06	4.715128e-06	5.993809e-09	3.403086e+01	3.932466e+02
1.170000e-06	4.835284e-06	6.117388e-09	3.489808e+01	4.014760e+02
1.180000e-06	4.953702e-06	6.234069e-09	3.575274e+01	4.092515e+02
1.190000e-06	5.070299e-06	6.344107e-09	3.659426e+01	4.165886e+02
1.200000e-06	5.184879e-06	6.446630e-09	3.742124e+01	4.235113e+02
1.210000e-06	5.297447e-06	6.544958e-09	3.823368e+01	4.300514e+02
1.220000e-06	5.408092e-06	6.639786e-09	3.903224e+01	4.362467e+02
1.230000e-06	5.516898e-06	6.732403e-09	3.981754e+01	4.421376e+02
1.240000e-06	5.623758e-06	6.820669e-09	4.058879e+01	4.477637e+02
1.250000e-06	5.728508e-06	6.904062e-09	4.134481e+01	4.531602e+02
1.260000e-06	5.831175e-06	6.984962e-09	4.208580e+01	4.583552e+02
1.270000e-06	5.931752e-06	7.062682e-09	4.281170e+01	4.633675e+02
1.280000e-06	6.030085e-06	7.135145e-09	4.352140e+01	4.682061e+02
1.290000e-06	6.126004e-06	7.203686e-09	4.421369e+01	4.728711e+02
1.300000e-06	6.219769e-06	7.269619e-09	4.489043e+01	4.773555e+02
1.310000e-06	6.311464e-06	7.333087e-09	4.555223e+01	4.816478e+02
1.320000e-06	6.400812e-06	7.394323e-09	4.619708e+01	4.857353e+02
1.330000e-06	6.487794e-06	7.450966e-09	4.682487e+01	4.896073e+02
1.340000e-06	6.572595e-06	7.503658e-09	4.743691e+01	4.932572e+02
1.350000e-06	6.655142e-06	7.555428e-09	4.803268e+01	4.966847e+02
1.360000e-06	6.735219e-06	7.605406e-09	4.861063e+01	4.998961e+02
1.370000e-06	6.812800e-06	7.652248e-09	4.917055e+01	5.029036e+02
1.380000e-06	6.887770e-06	7.696043e-09	4.971165e+01	5.057244e+02
1.390000e-06	6.960105e-06	7.737770e-09	5.023372e+01	5.083777e+02
1.400000e-06	7.030016e-06	7.777975e-09	5.073829e+01	5.108830e+02
1.410000e-06	7.097460e-06	7.815691e-09	5.122505e+01	5.132573e+02
1.420000e-06	7.162269e-06	7.849386e-09	5.169280e+01	5.155132e+02
1.430000e-06	7.224566e-06	7.880371e-09	5.214243e+01	5.176581e+02
1.440000e-06	7.284505e-06	7.910251e-09	5.257503e+01	5.196938e+02
1.450000e-06	7.341851e-06	7.938813e-09	5.298892e+01	5.216171e+02
1.460000e-06	7.396557e-06	7.965745e-09	5.338375e+01	5.234216e+02
1.470000e-06	7.448390e-06	7.990313e-09	5.375785e+01	5.250995e+02
1.480000e-06	7.497112e-06	8.013449e-09	5.410950e+01	5.266436e+02
1.490000e-06	7.543079e-06	8.033649e-09	5.444126e+01	5.280496e+02
1.500000e-06	7.586436e-06	8.050611e-09	5.475418e+01	5.293173e+02
1.510000e-06	7.627033e-06	8.067620e-09	5.504718e+01	5.304512e+02
1.520000e-06	7.664914e-06	8.085544e-09	5.532058e+01	5.314605e+02
1.530000e-06	7.700212e-06	8.102473e-09	5.557534e+01	5.323581e+02
1.540000e-06	7.732755e-06	8.116598e-09	5.581022e+01	5.331587e+02
1.550000e-06	7.762561e-06	8.128172e-09	5.602534e+01	5.338773e+02
1.560000e-06	7.789651e-06	8.138802e-09	5.622086e+01	5.345268e+02
1.570000e-06	7.813745e-06	8.148258e-09	5.639475e+01	5.351162e+02
1.580000e-06	7.835012e-06	8.157695e-09	5.654825e+01	5.356496e+02
1.590000e-06	7.853632e-06	8.167073e-09	5.668264e+01	5.361258e+02
1.600000e-06	7.869350e-06	8.173923e-09	5.679608e+01	5.365386e+02
1.610000e-06	7.882035e-06	8.177254e-09	5.688763e+01	5.368780e+02
1.620000e-06	7.891622e-06	8.178155e-09	5.695682e+01	5.371319e+02
1.630000e-06	7.898267e-06	8.179462e-09	5.700478e+01	5.372885e+02
1.640000e-06	7.902223e-06	8.181465e-09	5.703333e+01	5.373381e+02
1.650000e-06	7.903354e-06	8.184452e-09	5.704150e+01	5.372752e+02
1.660000e-06	7.901696e-06	8.183653e-09	5.702953e+01	5.370995e+02
1.670000e-06	7.897466e-06	8.176789e-09	5.699900e+01	5.368164e+02
1.680000e-06	7.890613e-06	8.175241e-09	5.694954e+01	5.364368e+02
1.690000e-06	7.881119e-06	8.172800e-09	5.688102e+01	5.359756e+02
1.700000e-06	7.868870e-06	8.166369e-09	5.679261e+01	5.354502e+02
1.710000e-06	7.853824e-06	8.159854e-09	5.668402e+01	5.348784e+02
1.720000e-06	7.836308e-06	8.152799e-09	5.655760e+01	5.342761e+02
1.730000e-06	7.816602e-06	8.142079e-09	5.641537e+01	5.336551e+02
1.740000e-06	7.794361e-06	8.052144e-09	5.625485e+01	5.330221e+02
1.750000e-06	7.768864e-06	8.021988e-09	5.607083e+01	5.323778e+02
1.760000e-06	7.739797e-06	8.071370e-09	5.586105e+01	5.317166e+02
1.770000e-06	7.707528e-06	8.074048e-09	5.562815e+01	5.310277e+02
1.780000e-06	7.672757e-06	8.072390e-09	5.537719e+01	5.302962e+02
1.790000e-06	7.635626e-06	8.120650e-09	5.510920e+01	5.295052e+02
1.800000e-06	7.596312e-06	8.109269e-09	5.482546e+01	5.286371e+02
1.810000e-06	7.555040e-06	7.979915e-09	5.452758e+01	5.276759e+02
1.820000e-06	7.511327e-06	8.061664e-09	5.421209e+01	5.266084e+02
1.830000e-06	7.465004e-06	8.033196e-09	5.387776e+01	5.254254e+02
1.840000e-06	7.415991e-06	8.000598e-09	5.352401e+01	5.241219e+02
1.850000e-06	7.363952e-06	8.064374e-09	5.314843e+01	5.226969e+02
1.860000e-06	7.309036e-06	7.937334e-09	5.275208e+01	5.211532e+02
1.870000e-06	7.251417e-06	7.960778e-09	5.233622e+01	5.194958e+02
1.880000e-06	7.191248e-06	7.878432e-09	5.190196e+01	5.177312e+02
1.890000e-06	7.128393e-06	7.855382e-09	5.144831e+01	5.158663e+02
1.900000e-06	7.062689e-06	7.899169e-09	5.097410e+01	5.139072e+02
1.910000e-06	6.994289e-06	7.799161e-09	5.048043e+01	5.118586e+02
1.920000e-06	6.923116e-06	7.818039e-09	4.996675e+01	5.097238e+02
1.930000e-06	6.849305e-06	7.735353e-09	4.943403e+01	5.075040e+02
1.940000e-06	6.772798e-06	7.714765e-09	4.888185e+01	5.051990e+02
1.950000e-06	6.693535e-06	7.673497e-09	4.830977e+01	5.028075e+02
1.960000e-06	6.611889e-06	7.619920e-09	4.772050e+01	5.003274e+02
1.970000e-06	6.527845e-06	7.640403e-09	4.711393e+01	4.977564e+02
1.980000e-06	6.441304e-06	7.547348e-09	4.648933e+01	4.950919e+02
1.990000e-06	6.352354e-06	7.538532e-09	4.584734e+01	4.923315e+02
2.000000e-06	6.261242e-06	7.480312e-09	4.518975e+01	4.894726e+02
2.010000e-06	6.168024e-06	7.428566e-09	4.451697e+01	4.865129e+02
2.020000e-06	6.072471e-06	7.366050e-09	4.382732e+01	4.834495e+02
2.030000e-06	5.974737e-06	7.313224e-09	4.312194e+01	4.802793e+02
2.040000e-06	5.874946e-06	7.291638e-09	4.240171e+01	4.769985e+02
2.050000e-06	5.773038e-06	7.236628e-09	4.166620e+01	4.736033e+02
2.060000e-06	5.669029e-06	7.197368e-09	4.091553e+01	4.700894e+02
2.070000e-06	5.563085e-06	7.116437e-09	4.015089e+01	4.664528e+02
2.080000e-06	5.455263e-06	7.053267e-09	3.937270e+01	4.626895e+02
2.090000e-06	5.345526e-06	6.982083e-09	3.858068e+01	4.587964e+02
2.100000e-06	5.233848e-06	6.938746e-09	3.777466e+01	4.547711e+02
2.110000e-06	5.120241e-06	6.889546e-09	3.695472e+01	4.506115e+02
2.120000e-06	5.004637e-06	6.827514e-09	3.612036e+01	4.463164e+02
2.130000e-06	4.887051e-06	6.748535e-09	3.527170e+01	4.418841e+02
2.140000e-06	4.767565e-06	6.665281e-09	3.440932e+01	4.373126e+02
2.150000e-06	4.646264e-06	6.594363e-09	3.353384e+01	4.325990e+02
2.160000e-06	4.523323e-06	6.523715e-09	3.264653e+01	4.277385e+02
2.170000e-06	4.398749e-06	6.459397e-09	3.174744e+01	4.227251e+02
2.180000e-06	4.272588e-06	6.381904e-09	3.083688e+01	4.175509e+02
2.190000e-06	4.144779e-06	6.303497e-09	2.991444e+01	4.122066e+02
2.200000e-06	4.015481e-06	6.209941e-09	2.898124e+01	4.066823e+02
2.210000e-06	3.884776e-06	6.117967e-09	2.803790e+01	4.009682e+02
2.220000e-06	3.752604e-06	6.025025e-09	2.708396e+01	3.950555e+02
2.230000e-06	3.619000e-06	5.937107e-09	2.611969e+01	3.889370e+02
2.240000e-06	3.484025e-06	5.843349e-09	2.514553e+01	3.826074e+02
2.250000e-06	3.347715e-06	5.748427e-09	2.416173e+01	3.760640e+02
2.260000e-06	3.210161e-06	5.650786e-09	2.316894e+01	3.693057e+02
2.270000e-06	3.071449e-06	5.543265e-09	2.216781e+01	3.623328e+02
2.280000e-06	2.931509e-06	5.425844e-09	2.115781e+01	3.551451e+02
2.290000e-06	2.790376e-06	5.305736e-09	2.013920e+01	3.477412e+02
2.300000e-06	2.648175e-06	5.192149e-09	1.911288e+01	3.401170e+02
2.310000e-06	2.505031e-06	5.078091e-09	1.807976e+01	3.322643e+02
2.320000e-06	2.360931e-06	4.963210e-09	1.703973e+01	3.241706e+02
2.330000e-06	2.216007e-06	4.837672e-09	1.599376e+01	3.158189e+02
2.340000e-06	2.070415e-06	4.700701e-09	1.494297e+01	3.071885e+02
2.350000e-06	1.924080e-06	4.555060e-09	1.388682e+01	2.982564e+02
2.360000e-06	1.777060e-06	4.412044e-09	1.282571e+01	2.889989e+02
2.370000e-06	1.629515e-06	4.271881e-09	1.176083e+01	2.793939e+02
2.380000e-06	1.481450e-06	4.124034e-09	1.069219e+01	2.694228e+02
2.390000e-06	1.332928e-06	3.969326e-09	9.620244e+00	2.590715e+02
2.400000e-06	1.184002e-06	3.806999e-09	8.545393e+00	2.483317e+02
2.410000e-06	1.034706e-06	3.635645e-09	7.467862e+00	2.371998e+02
2.420000e-06	8.850859e-07	3.458203e-09	6.388000e+00	2.256760e+02
2.430000e-06	7.351534e-07	3.277178e-09	5.305881e+00	2.137614e+02
2.440000e-06	5.850006e-07	3.091947e-09	4.222171e+00	2.014550e+02
2.450000e-06	4.346669e-07	2.899746e-09	3.137156e+00	1.887501e+02
2.460000e-06	2.841446e-07	2.700963e-09	2.050779e+00	1.756315e+02
2.470000e-06	1.334746e-07	2.492608e-09	9.633369e-01	1.620727e+02
2.480000e-06	-1.727712e-08	2.272843e-09	-1.246955e-01	1.480353e+02
2.490000e-06	-1.680208e-07	2.045089e-09	-1.212670e+00	1.334700e+02
2.500000e-06	-3.187221e-07	1.810477e-09	-2.300338e+00	1.183190e+02
2.510000e-06	-4.693331e-07	1.568391e-09	-3.387355e+00	1.025215e+02
2.520000e-06	-6.197951e-07	1.317364e-09	-4.473296e+00	8.601985e+01
2.530000e-06	-7.700452e-07	1.056021e-09	-5.557707e+00	6.876746e+01
2.540000e-06	-9.200194e-07	7.820116e-10	-6.640128e+00	5.073657e+01
2.550000e-06	-1.069705e-06	4.959564e-10	-7.720467e+00	3.192580e+01
2.560000e-06	-1.219009e-06	1.998499e-10	-8.798047e+00	1.236608e+01
2.570000e-06	-1.367865e-06	-1.066527e-10	-9.872399e+00	-7.875689e+00
2.580000e-06	-1.516274e-06	-4.236700e-10	-1.094352e+01	-2.869581e+01
2.590000e-06	-1.664184e-06	-7.503713e-10	-1.201105e+01	-4.995614e+01
2.600000e-06	-1.811531e-06	-1.081397e-09	-1.307451e+01	-7.148962e+01
2.610000e-06	-1.958200e-06	-1.414296e-09	-1.413307e+01	-9.310854e+01
2.620000e-06	-2.104070e-06	-1.747480e-09	-1.518587e+01	-1.146149e+02
2.630000e-06	-2.249222e-06	-2.073076e-09	-1.623349e+01	-1.358117e+02
2.640000e-06	-2.393594e-06	-2.385848e-09	-1.727547e+01	-1.565147e+02
2.650000e-06	-2.536937e-06	-2.688232e-09	-1.831004e+01	-1.765626e+02
2.660000e-06	-2.679118e-06	-2.980576e-09	-1.933621e+01	-1.958252e+02
2.670000e-06	-2.820184e-06	-3.259366e-09	-2.035434e+01	-2.142090e+02
2.680000e-06	-2.960165e-06	-3.523629e-09	-2.136463e+01	-2.316594e+02
2.690000e-06	-3.098932e-06	-3.774213e-09	-2.236616e+01	-2.481596e+02
2.700000e-06	-3.236500e-06	-4.012234e-09	-2.335905e+01	-2.637261e+02
2.710000e-06	-3.372948e-06	-4.238741e-09	-2.434384e+01	-2.784022e+02
2.720000e-06	-3.508144e-06	-4.455123e-09	-2.531960e+01	-2.922496e+02
2.730000e-06	-3.641933e-06	-4.660688e-09	-2.628521e+01	-3.053399e+02
2.740000e-06	-3.774399e-06	-4.852596e-09	-2.724127e+01	-3.177458e+02
2.750000e-06	-3.905578e-06	-5.031625e-09	-2.818803e+01	-3.295342e+02
2.760000e-06	-4.035432e-06	-5.201881e-09	-2.912524e+01	-3.407612e+02
2.770000e-06	-4.163999e-06	-5.365494e-09	-3.005316e+01	-3.514689e+02
2.780000e-06	-4.291069e-06	-5.521816e-09	-3.097027e+01	-3.616856e+02
2.790000e-06	-4.416528e-06	-5.668454e-09	-3.187576e+01	-3.714272e+02
2.800000e-06	-4.540496e-06	-5.808306e-09	-3.277048e+01	-3.807007e+02
2.810000e-06	-4.662880e-06	-5.943024e-09	-3.365377e+01	-3.895086e+02
2.820000e-06	-4.783616e-06	-6.071063e-09	-3.452517e+01	-3.978534e+02
2.830000e-06	-4.902517e-06	-6.193306e-09	-3.538332e+01	-4.057415e+02
2.840000e-06	-5.019443e-06	-6.308419e-09	-3.622722e+01	-4.131867e+02
2.850000e-06	-5.134382e-06	-6.417609e-09	-3.705678e+01	-4.202106e+02
2.860000e-06	-5.247167e-06	-6.519721e-09	-3.787079e+01	-4.268434e+02
2.870000e-06	-5.357861e-06	-6.614487e-09	-3.866971e+01	-4.331215e+02
2.880000e-06	-5.466665e-06	-6.705718e-09	-3.945499e+01	-4.390851e+02
2.890000e-06	-5.573683e-06	-6.793590e-09	-4.022738e+01	-4.447742e+02
2.900000e-06	-5.678823e-06	-6.877650e-09	-4.098622e+01	-4.502255e+02
2.910000e-06	-5.781769e-06	-6.957871e-09	-4.172922e+01	-4.554691e+02
2.920000e-06	-5.882482e-06	-7.035679e-09	-4.245610e+01	-4.605262e+02
2.930000e-06	-5.981107e-06	-7.112317e-09	-4.316791e+01	-4.654083e+02
2.940000e-06	-6.077730e-06	-7.185079e-09	-4.386528e+01	-4.701175e+02
