# Temperatura_=_45.68
# Concentracion g/m^3_=_10000.0
# C_Vs_to_Am_M_A/Vsm_=_65563218390.804596
# pendiente_HvsI_1/m_=_3716.3
# ordenada_HvsI_A/m_=_1297.0
# frecuencia_Hz_=_302611.5022961697

Tiempo_(s)	Campo_(V.s)	Magnetizacion_(V.s)	Campo_(kA/m)	Magnetizacion_(A/m)
0.000000e+00	-7.890396e-06	-8.436699e-09	-5.683935e+01	-5.531869e+02
1.000000e-08	-7.888087e-06	-8.438929e-09	-5.682272e+01	-5.529729e+02
2.000000e-08	-7.883086e-06	-8.438733e-09	-5.678669e+01	-5.526664e+02
3.000000e-08	-7.875562e-06	-8.433729e-09	-5.673249e+01	-5.522777e+02
4.000000e-08	-7.865329e-06	-8.426234e-09	-5.665878e+01	-5.518187e+02
5.000000e-08	-7.852275e-06	-8.416379e-09	-5.656474e+01	-5.513011e+02
6.000000e-08	-7.836336e-06	-8.405590e-09	-5.644992e+01	-5.507349e+02
7.000000e-08	-7.817749e-06	-8.394723e-09	-5.631603e+01	-5.501273e+02
8.000000e-08	-7.796886e-06	-8.388694e-09	-5.616574e+01	-5.494818e+02
9.000000e-08	-7.773399e-06	-8.404425e-09	-5.599655e+01	-5.487978e+02
1.000000e-07	-7.746747e-06	-8.420068e-09	-5.580456e+01	-5.480708e+02
1.100000e-07	-7.716948e-06	-8.382468e-09	-5.558990e+01	-5.472934e+02
1.200000e-07	-7.684342e-06	-8.340193e-09	-5.535502e+01	-5.464561e+02
1.300000e-07	-7.649047e-06	-8.321908e-09	-5.510076e+01	-5.455484e+02
1.400000e-07	-7.611321e-06	-8.291313e-09	-5.482900e+01	-5.445606e+02
1.500000e-07	-7.571520e-06	-8.253055e-09	-5.454229e+01	-5.434841e+02
1.600000e-07	-7.529528e-06	-8.272842e-09	-5.423980e+01	-5.423126e+02
1.700000e-07	-7.484905e-06	-8.282179e-09	-5.391835e+01	-5.410423e+02
1.800000e-07	-7.437594e-06	-8.204939e-09	-5.357754e+01	-5.396716e+02
1.900000e-07	-7.387504e-06	-8.192976e-09	-5.321671e+01	-5.382006e+02
2.000000e-07	-7.334392e-06	-8.169525e-09	-5.283412e+01	-5.366309e+02
2.100000e-07	-7.278430e-06	-8.116203e-09	-5.243098e+01	-5.349645e+02
2.200000e-07	-7.219794e-06	-8.129830e-09	-5.200859e+01	-5.332032e+02
2.300000e-07	-7.158609e-06	-8.116556e-09	-5.156784e+01	-5.313484e+02
2.400000e-07	-7.094849e-06	-8.079019e-09	-5.110854e+01	-5.294004e+02
2.500000e-07	-7.028327e-06	-8.032785e-09	-5.062934e+01	-5.273591e+02
2.600000e-07	-6.959161e-06	-8.000237e-09	-5.013110e+01	-5.252236e+02
2.700000e-07	-6.887322e-06	-7.973301e-09	-4.961360e+01	-5.229929e+02
2.800000e-07	-6.812695e-06	-7.932034e-09	-4.907601e+01	-5.206664e+02
2.900000e-07	-6.735313e-06	-7.898170e-09	-4.851858e+01	-5.182438e+02
3.000000e-07	-6.655219e-06	-7.860203e-09	-4.794162e+01	-5.157256e+02
3.100000e-07	-6.572617e-06	-7.825980e-09	-4.734659e+01	-5.131128e+02
3.200000e-07	-6.487784e-06	-7.779810e-09	-4.673548e+01	-5.104064e+02
3.300000e-07	-6.400738e-06	-7.732123e-09	-4.610844e+01	-5.076073e+02
3.400000e-07	-6.311342e-06	-7.697446e-09	-4.546446e+01	-5.047154e+02
3.500000e-07	-6.219623e-06	-7.645248e-09	-4.480375e+01	-5.017292e+02
3.600000e-07	-6.125660e-06	-7.599038e-09	-4.412688e+01	-4.986454e+02
3.700000e-07	-6.029440e-06	-7.562137e-09	-4.343374e+01	-4.954591e+02
3.800000e-07	-5.931008e-06	-7.512833e-09	-4.272468e+01	-4.921636e+02
3.900000e-07	-5.830474e-06	-7.451422e-09	-4.200047e+01	-4.887513e+02
4.000000e-07	-5.727882e-06	-7.393207e-09	-4.126144e+01	-4.852142e+02
4.100000e-07	-5.623234e-06	-7.341186e-09	-4.050759e+01	-4.815449e+02
4.200000e-07	-5.516655e-06	-7.283146e-09	-3.973984e+01	-4.777375e+02
4.300000e-07	-5.408184e-06	-7.229878e-09	-3.895846e+01	-4.737879e+02
4.400000e-07	-5.297791e-06	-7.172823e-09	-3.816323e+01	-4.696946e+02
4.500000e-07	-5.185395e-06	-7.104244e-09	-3.735357e+01	-4.654579e+02
4.600000e-07	-5.070948e-06	-7.027281e-09	-3.652914e+01	-4.610798e+02
4.700000e-07	-4.954567e-06	-6.954915e-09	-3.569078e+01	-4.565630e+02
4.800000e-07	-4.836317e-06	-6.891527e-09	-3.483895e+01	-4.519097e+02
4.900000e-07	-4.716185e-06	-6.827072e-09	-3.397356e+01	-4.471206e+02
5.000000e-07	-4.594329e-06	-6.755173e-09	-3.309577e+01	-4.421936e+02
5.100000e-07	-4.470876e-06	-6.672936e-09	-3.220646e+01	-4.371235e+02
5.200000e-07	-4.345786e-06	-6.586995e-09	-3.130536e+01	-4.319017e+02
5.300000e-07	-4.219130e-06	-6.500919e-09	-3.039297e+01	-4.265165e+02
5.400000e-07	-4.090938e-06	-6.413692e-09	-2.946953e+01	-4.209543e+02
5.500000e-07	-3.961285e-06	-6.323197e-09	-2.853556e+01	-4.152006e+02
5.600000e-07	-3.830187e-06	-6.232911e-09	-2.759118e+01	-4.092416e+02
5.700000e-07	-3.697570e-06	-6.144486e-09	-2.663586e+01	-4.030658e+02
5.800000e-07	-3.563483e-06	-6.050609e-09	-2.566995e+01	-3.966650e+02
5.900000e-07	-3.428075e-06	-5.947981e-09	-2.469452e+01	-3.900347e+02
6.000000e-07	-3.291348e-06	-5.840623e-09	-2.370959e+01	-3.831741e+02
6.100000e-07	-3.153349e-06	-5.729984e-09	-2.271550e+01	-3.760856e+02
6.200000e-07	-3.014081e-06	-5.616293e-09	-2.171227e+01	-3.687729e+02
6.300000e-07	-2.873505e-06	-5.503934e-09	-2.069961e+01	-3.612392e+02
6.400000e-07	-2.731707e-06	-5.389763e-09	-1.967816e+01	-3.534855e+02
6.500000e-07	-2.588794e-06	-5.268095e-09	-1.864867e+01	-3.455084e+02
6.600000e-07	-2.445007e-06	-5.138912e-09	-1.761289e+01	-3.372990e+02
6.700000e-07	-2.300461e-06	-5.005469e-09	-1.657163e+01	-3.288424e+02
6.800000e-07	-2.154941e-06	-4.869941e-09	-1.552336e+01	-3.201182e+02
6.900000e-07	-2.008506e-06	-4.730748e-09	-1.446850e+01	-3.111014e+02
7.000000e-07	-1.861526e-06	-4.588680e-09	-1.340971e+01	-3.017650e+02
7.100000e-07	-1.714072e-06	-4.441674e-09	-1.234751e+01	-2.920824e+02
7.200000e-07	-1.566092e-06	-4.285756e-09	-1.128152e+01	-2.820298e+02
7.300000e-07	-1.417616e-06	-4.123231e-09	-1.021196e+01	-2.715886e+02
7.400000e-07	-1.268656e-06	-3.957245e-09	-9.138908e+00	-2.607467e+02
7.500000e-07	-1.119275e-06	-3.787184e-09	-8.062824e+00	-2.494984e+02
7.600000e-07	-9.695587e-07	-3.612560e-09	-6.984325e+00	-2.378438e+02
7.700000e-07	-8.195317e-07	-3.430770e-09	-5.903588e+00	-2.257854e+02
7.800000e-07	-6.692259e-07	-3.240145e-09	-4.820844e+00	-2.133256e+02
7.900000e-07	-5.186977e-07	-3.042859e-09	-3.736497e+00	-2.004616e+02
8.000000e-07	-3.679389e-07	-2.839586e-09	-2.650489e+00	-1.871821e+02
8.100000e-07	-2.170052e-07	-2.630202e-09	-1.563221e+00	-1.734634e+02
8.200000e-07	-6.597407e-08	-2.412834e-09	-4.752516e-01	-1.592679e+02
8.300000e-07	8.509387e-08	-2.186534e-09	6.129832e-01	-1.445441e+02
8.400000e-07	2.361944e-07	-1.953179e-09	1.701453e+00	-1.292288e+02
8.500000e-07	3.873121e-07	-1.710142e-09	2.790046e+00	-1.132520e+02
8.600000e-07	5.383110e-07	-1.456080e-09	3.877784e+00	-9.654399e+01
8.700000e-07	6.891015e-07	-1.192066e-09	4.964020e+00	-7.904332e+01
8.800000e-07	8.396162e-07	-9.159167e-10	6.048270e+00	-6.070628e+01
8.900000e-07	9.898007e-07	-6.249546e-10	7.130140e+00	-4.151565e+01
9.000000e-07	1.139652e-06	-3.215554e-10	8.209609e+00	-2.148815e+01
9.100000e-07	1.289146e-06	-6.753233e-12	9.286509e+00	-6.797028e-01
9.200000e-07	1.438268e-06	3.210345e-10	1.036073e+01	2.081248e+01
9.300000e-07	1.586936e-06	6.593121e-10	1.143167e+01	4.285132e+01
9.400000e-07	1.734991e-06	1.004054e-09	1.249820e+01	6.526487e+01
9.500000e-07	1.882386e-06	1.350281e-09	1.355998e+01	8.785472e+01
9.600000e-07	2.029185e-06	1.695384e-09	1.461746e+01	1.104068e+02
9.700000e-07	2.175288e-06	2.038386e-09	1.566993e+01	1.327042e+02
9.800000e-07	2.320466e-06	2.373787e-09	1.671574e+01	1.545394e+02
9.900000e-07	2.464738e-06	2.694599e-09	1.775502e+01	1.757272e+02
1.000000e-06	2.608073e-06	3.001660e-09	1.878755e+01	1.961140e+02
1.010000e-06	2.750366e-06	3.295181e-09	1.981257e+01	2.155853e+02
1.020000e-06	2.891642e-06	3.574589e-09	2.083027e+01	2.340692e+02
1.030000e-06	3.031771e-06	3.838985e-09	2.183971e+01	2.515358e+02
1.040000e-06	3.170606e-06	4.088178e-09	2.283982e+01	2.679941e+02
1.050000e-06	3.308145e-06	4.322938e-09	2.383059e+01	2.834848e+02
1.060000e-06	3.444426e-06	4.544260e-09	2.481231e+01	2.980721e+02
1.070000e-06	3.579408e-06	4.754089e-09	2.578467e+01	3.118335e+02
1.080000e-06	3.713128e-06	4.953460e-09	2.674793e+01	3.248507e+02
1.090000e-06	3.845605e-06	5.141839e-09	2.770225e+01	3.372014e+02
1.100000e-06	3.976669e-06	5.320635e-09	2.864638e+01	3.489523e+02
1.110000e-06	4.106218e-06	5.493259e-09	2.957960e+01	3.601559e+02
1.120000e-06	4.234340e-06	5.658631e-09	3.050254e+01	3.708486e+02
1.130000e-06	4.361033e-06	5.814630e-09	3.141519e+01	3.810524e+02
1.140000e-06	4.486260e-06	5.962695e-09	3.231728e+01	3.907778e+02
1.150000e-06	4.609972e-06	6.103182e-09	3.320845e+01	4.000281e+02
1.160000e-06	4.731989e-06	6.235066e-09	3.408741e+01	4.088046e+02
1.170000e-06	4.852280e-06	6.357969e-09	3.495394e+01	4.171108e+02
1.180000e-06	4.970853e-06	6.474384e-09	3.580810e+01	4.249565e+02
1.190000e-06	5.087628e-06	6.586665e-09	3.664930e+01	4.323594e+02
1.200000e-06	5.202363e-06	6.693760e-09	3.747581e+01	4.393461e+02
1.210000e-06	5.315051e-06	6.795407e-09	3.828757e+01	4.459506e+02
1.220000e-06	5.425801e-06	6.891777e-09	3.908536e+01	4.522120e+02
1.230000e-06	5.534716e-06	6.984685e-09	3.986994e+01	4.581712e+02
1.240000e-06	5.641686e-06	7.072642e-09	4.064052e+01	4.638670e+02
1.250000e-06	5.746488e-06	7.155833e-09	4.139547e+01	4.693332e+02
1.260000e-06	5.849169e-06	7.236103e-09	4.213515e+01	4.745957e+02
1.270000e-06	5.949799e-06	7.313173e-09	4.286004e+01	4.796712e+02
1.280000e-06	6.048209e-06	7.385947e-09	4.356895e+01	4.845673e+02
1.290000e-06	6.144207e-06	7.455505e-09	4.426048e+01	4.892832e+02
1.300000e-06	6.238017e-06	7.523383e-09	4.493625e+01	4.938122e+02
1.310000e-06	6.329694e-06	7.588861e-09	4.559666e+01	4.981444e+02
1.320000e-06	6.419048e-06	7.650628e-09	4.624033e+01	5.022698e+02
1.330000e-06	6.506042e-06	7.708935e-09	4.686700e+01	5.061808e+02
1.340000e-06	6.590842e-06	7.764320e-09	4.747787e+01	5.098743e+02
1.350000e-06	6.673355e-06	7.816648e-09	4.807226e+01	5.133532e+02
1.360000e-06	6.753327e-06	7.865631e-09	4.864835e+01	5.166257e+02
1.370000e-06	6.830842e-06	7.910442e-09	4.920674e+01	5.197051e+02
1.380000e-06	6.905834e-06	7.952930e-09	4.974695e+01	5.226078e+02
1.390000e-06	6.978118e-06	7.995425e-09	5.026766e+01	5.253511e+02
1.400000e-06	7.047895e-06	8.037928e-09	5.077030e+01	5.279513e+02
1.410000e-06	7.115254e-06	8.078930e-09	5.125553e+01	5.304215e+02
1.420000e-06	7.180036e-06	8.115922e-09	5.172219e+01	5.327702e+02
1.430000e-06	7.242354e-06	8.148164e-09	5.217111e+01	5.350012e+02
1.440000e-06	7.302278e-06	8.177092e-09	5.260277e+01	5.371134e+02
1.450000e-06	7.359577e-06	8.204492e-09	5.301554e+01	5.391023e+02
1.460000e-06	7.414178e-06	8.231440e-09	5.340886e+01	5.409613e+02
1.470000e-06	7.465940e-06	8.256654e-09	5.378174e+01	5.426837e+02
1.480000e-06	7.514648e-06	8.280504e-09	5.413261e+01	5.442647e+02
1.490000e-06	7.560565e-06	8.302718e-09	5.446338e+01	5.457026e+02
1.500000e-06	7.603900e-06	8.322520e-09	5.477554e+01	5.469997e+02
1.510000e-06	7.644448e-06	8.341403e-09	5.506764e+01	5.481627e+02
1.520000e-06	7.682257e-06	8.359925e-09	5.534000e+01	5.492017e+02
1.530000e-06	7.717428e-06	8.376002e-09	5.559336e+01	5.501294e+02
1.540000e-06	7.749778e-06	8.389458e-09	5.582639e+01	5.509594e+02
1.550000e-06	7.779390e-06	8.402160e-09	5.603971e+01	5.517042e+02
1.560000e-06	7.806312e-06	8.413884e-09	5.623365e+01	5.523738e+02
1.570000e-06	7.830314e-06	8.423445e-09	5.640654e+01	5.529746e+02
1.580000e-06	7.851508e-06	8.431524e-09	5.655922e+01	5.535085e+02
1.590000e-06	7.869959e-06	8.438853e-09	5.669213e+01	5.539735e+02
1.600000e-06	7.885480e-06	8.445381e-09	5.680394e+01	5.543638e+02
1.610000e-06	7.898001e-06	8.449985e-09	5.689414e+01	5.546715e+02
1.620000e-06	7.907415e-06	8.453379e-09	5.696195e+01	5.548884e+02
1.630000e-06	7.913853e-06	8.455947e-09	5.700833e+01	5.550070e+02
1.640000e-06	7.917551e-06	8.457014e-09	5.703496e+01	5.550226e+02
1.650000e-06	7.918458e-06	8.457789e-09	5.704150e+01	5.549340e+02
1.660000e-06	7.916647e-06	8.456598e-09	5.702845e+01	5.547440e+02
1.670000e-06	7.912224e-06	8.453655e-09	5.699659e+01	5.544594e+02
1.680000e-06	7.905126e-06	8.452011e-09	5.694546e+01	5.540897e+02
1.690000e-06	7.895385e-06	8.447473e-09	5.687529e+01	5.536468e+02
1.700000e-06	7.882902e-06	8.440025e-09	5.678537e+01	5.531423e+02
1.710000e-06	7.867658e-06	8.432504e-09	5.667556e+01	5.525871e+02
1.720000e-06	7.849976e-06	8.424373e-09	5.654818e+01	5.519889e+02
1.730000e-06	7.830040e-06	8.400263e-09	5.640457e+01	5.513524e+02
1.740000e-06	7.807445e-06	8.340299e-09	5.624180e+01	5.506778e+02
1.750000e-06	7.781598e-06	8.317116e-09	5.605562e+01	5.499618e+02
1.760000e-06	7.752212e-06	8.344884e-09	5.584393e+01	5.491974e+02
1.770000e-06	7.719625e-06	8.350205e-09	5.560918e+01	5.483756e+02
1.780000e-06	7.684597e-06	8.350836e-09	5.535686e+01	5.474860e+02
1.790000e-06	7.647269e-06	8.369544e-09	5.508796e+01	5.465187e+02
1.800000e-06	7.607753e-06	8.339220e-09	5.480330e+01	5.454646e+02
1.810000e-06	7.566238e-06	8.278372e-09	5.450424e+01	5.443169e+02
1.820000e-06	7.522198e-06	8.298582e-09	5.418700e+01	5.430712e+02
1.830000e-06	7.475487e-06	8.276391e-09	5.385051e+01	5.417251e+02
1.840000e-06	7.426104e-06	8.265616e-09	5.349477e+01	5.402787e+02
1.850000e-06	7.373778e-06	8.269908e-09	5.311784e+01	5.387331e+02
1.860000e-06	7.318630e-06	8.186276e-09	5.272057e+01	5.370902e+02
1.870000e-06	7.260747e-06	8.167893e-09	5.230360e+01	5.353521e+02
1.880000e-06	7.200254e-06	8.120704e-09	5.186784e+01	5.335201e+02
1.890000e-06	7.137099e-06	8.103027e-09	5.141289e+01	5.315950e+02
1.900000e-06	7.071124e-06	8.107821e-09	5.093763e+01	5.295767e+02
1.910000e-06	7.002433e-06	8.050616e-09	5.044281e+01	5.274644e+02
1.920000e-06	6.930969e-06	8.034711e-09	4.992801e+01	5.252572e+02
1.930000e-06	6.856821e-06	7.970796e-09	4.939388e+01	5.229543e+02
1.940000e-06	6.780030e-06	7.935046e-09	4.884071e+01	5.205552e+02
1.950000e-06	6.700546e-06	7.902198e-09	4.826813e+01	5.180605e+02
1.960000e-06	6.618557e-06	7.861877e-09	4.767752e+01	5.154707e+02
1.970000e-06	6.534136e-06	7.848221e-09	4.706938e+01	5.127872e+02
1.980000e-06	6.447328e-06	7.779858e-09	4.644405e+01	5.100108e+02
1.990000e-06	6.358180e-06	7.751431e-09	4.580186e+01	5.071418e+02
2.000000e-06	6.266795e-06	7.697725e-09	4.514356e+01	5.041789e+02
2.010000e-06	6.173236e-06	7.635895e-09	4.446959e+01	5.011196e+02
2.020000e-06	6.077426e-06	7.589783e-09	4.377942e+01	4.979590e+02
2.030000e-06	5.979421e-06	7.542347e-09	4.307343e+01	4.946911e+02
2.040000e-06	5.879295e-06	7.504190e-09	4.235216e+01	4.913083e+02
2.050000e-06	5.777093e-06	7.446191e-09	4.161594e+01	4.878027e+02
2.060000e-06	5.672822e-06	7.397820e-09	4.086481e+01	4.841666e+02
2.070000e-06	5.566563e-06	7.325554e-09	4.009936e+01	4.803938e+02
2.080000e-06	5.458424e-06	7.253655e-09	3.932037e+01	4.764796e+02
2.090000e-06	5.348370e-06	7.189570e-09	3.852758e+01	4.724218e+02
2.100000e-06	5.236312e-06	7.140225e-09	3.772036e+01	4.682204e+02
2.110000e-06	5.122281e-06	7.084585e-09	3.689893e+01	4.638770e+02
2.120000e-06	5.006272e-06	7.014043e-09	3.606324e+01	4.593942e+02
2.130000e-06	4.888337e-06	6.938719e-09	3.521369e+01	4.547745e+02
2.140000e-06	4.768550e-06	6.858399e-09	3.435078e+01	4.500189e+02
2.150000e-06	4.646927e-06	6.784297e-09	3.347466e+01	4.451263e+02
2.160000e-06	4.523641e-06	6.710095e-09	3.258656e+01	4.400923e+02
2.170000e-06	4.398733e-06	6.640745e-09	3.168676e+01	4.349090e+02
2.180000e-06	4.272252e-06	6.560626e-09	3.077565e+01	4.295654e+02
2.190000e-06	4.144123e-06	6.473680e-09	2.985265e+01	4.240484e+02
2.200000e-06	4.014427e-06	6.379581e-09	2.891838e+01	4.183435e+02
2.210000e-06	3.883308e-06	6.285610e-09	2.797384e+01	4.124366e+02
2.220000e-06	3.750738e-06	6.194038e-09	2.701886e+01	4.063155e+02
2.230000e-06	3.616837e-06	6.103883e-09	2.605429e+01	3.999711e+02
2.240000e-06	3.481630e-06	6.008695e-09	2.508031e+01	3.933979e+02
2.250000e-06	3.345053e-06	5.906664e-09	2.409646e+01	3.865944e+02
2.260000e-06	3.207188e-06	5.798677e-09	2.310334e+01	3.795621e+02
2.270000e-06	3.068130e-06	5.684784e-09	2.210162e+01	3.723047e+02
2.280000e-06	2.927841e-06	5.567616e-09	2.109103e+01	3.648256e+02
2.290000e-06	2.786364e-06	5.448018e-09	2.007188e+01	3.571266e+02
2.300000e-06	2.643863e-06	5.330974e-09	1.904536e+01	3.492055e+02
2.310000e-06	2.500459e-06	5.212010e-09	1.801234e+01	3.410549e+02
2.320000e-06	2.356123e-06	5.090968e-09	1.697259e+01	3.326614e+02
2.330000e-06	2.210923e-06	4.960672e-09	1.592663e+01	3.240058e+02
2.340000e-06	2.064986e-06	4.820108e-09	1.487536e+01	3.150643e+02
2.350000e-06	1.918367e-06	4.673479e-09	1.381917e+01	3.058099e+02
2.360000e-06	1.771180e-06	4.524755e-09	1.275889e+01	2.962158e+02
2.370000e-06	1.623419e-06	4.375056e-09	1.169448e+01	2.862573e+02
2.380000e-06	1.475098e-06	4.220827e-09	1.062603e+01	2.759142e+02
2.390000e-06	1.326250e-06	4.061630e-09	9.553793e+00	2.651728e+02
2.400000e-06	1.176861e-06	3.893985e-09	8.477652e+00	2.540259e+02
2.410000e-06	1.027070e-06	3.716839e-09	7.398613e+00	2.424722e+02
2.420000e-06	8.770064e-07	3.534887e-09	6.317614e+00	2.305141e+02
2.430000e-06	7.267367e-07	3.348360e-09	5.235129e+00	2.181542e+02
2.440000e-06	5.763136e-07	3.156153e-09	4.151540e+00	2.053915e+02
2.450000e-06	4.257239e-07	2.956739e-09	3.066750e+00	1.922171e+02
2.460000e-06	2.749969e-07	2.747645e-09	1.980971e+00	1.786107e+02
2.470000e-06	1.241790e-07	2.529115e-09	8.945373e-01	1.645383e+02
2.480000e-06	-2.670544e-08	2.301805e-09	-1.923757e-01	1.499517e+02
2.490000e-06	-1.775738e-07	2.066761e-09	-1.279173e+00	1.347903e+02
2.500000e-06	-3.284427e-07	1.823049e-09	-2.365974e+00	1.189851e+02
2.510000e-06	-4.792814e-07	1.568616e-09	-3.452557e+00	1.024657e+02
2.520000e-06	-6.299621e-07	1.303859e-09	-4.538002e+00	8.516774e+01
2.530000e-06	-7.804782e-07	1.029407e-09	-5.622262e+00	6.704216e+01
2.540000e-06	-9.307679e-07	7.433002e-10	-6.704891e+00	4.806437e+01
2.550000e-06	-1.080760e-06	4.447839e-10	-7.785376e+00	2.824201e+01
2.560000e-06	-1.230388e-06	1.339538e-10	-8.863239e+00	7.620882e+00
2.570000e-06	-1.379556e-06	-1.890997e-10	-9.937789e+00	-1.371215e+01
2.580000e-06	-1.528186e-06	-5.233682e-10	-1.100846e+01	-3.562962e+01
2.590000e-06	-1.676227e-06	-8.672954e-10	-1.207489e+01	-5.796766e+01
2.600000e-06	-1.823744e-06	-1.215714e-09	-1.313755e+01	-8.053352e+01
2.610000e-06	-1.970614e-06	-1.566647e-09	-1.419554e+01	-1.031160e+02
2.620000e-06	-2.116654e-06	-1.915490e-09	-1.524755e+01	-1.254974e+02
2.630000e-06	-2.261995e-06	-2.252938e-09	-1.629453e+01	-1.474670e+02
2.640000e-06	-2.406582e-06	-2.574241e-09	-1.733608e+01	-1.688329e+02
2.650000e-06	-2.550159e-06	-2.883215e-09	-1.837036e+01	-1.894327e+02
2.660000e-06	-2.692651e-06	-3.182240e-09	-1.939681e+01	-2.091418e+02
2.670000e-06	-2.833994e-06	-3.467341e-09	-2.041500e+01	-2.278773e+02
2.680000e-06	-2.974202e-06	-3.736029e-09	-2.142499e+01	-2.455992e+02
2.690000e-06	-3.113213e-06	-3.988929e-09	-2.242638e+01	-2.623073e+02
2.700000e-06	-3.250967e-06	-4.229703e-09	-2.341870e+01	-2.780351e+02
2.710000e-06	-3.387566e-06	-4.459741e-09	-2.440271e+01	-2.928418e+02
2.720000e-06	-3.522931e-06	-4.679451e-09	-2.537783e+01	-3.068024e+02
2.730000e-06	-3.656917e-06	-4.887033e-09	-2.634301e+01	-3.199985e+02
2.740000e-06	-3.789578e-06	-5.080402e-09	-2.729865e+01	-3.325095e+02
2.750000e-06	-3.920926e-06	-5.260405e-09	-2.824483e+01	-3.444053e+02
2.760000e-06	-4.050930e-06	-5.430891e-09	-2.918133e+01	-3.557420e+02
2.770000e-06	-4.179589e-06	-5.594662e-09	-3.010814e+01	-3.665603e+02
2.780000e-06	-4.306750e-06	-5.751329e-09	-3.102416e+01	-3.768854e+02
2.790000e-06	-4.432412e-06	-5.899687e-09	-3.192938e+01	-3.867303e+02
2.800000e-06	-4.556585e-06	-6.040885e-09	-3.282387e+01	-3.960997e+02
2.810000e-06	-4.679120e-06	-6.176307e-09	-3.370657e+01	-4.049949e+02
2.820000e-06	-4.800018e-06	-6.305169e-09	-3.457747e+01	-4.134185e+02
2.830000e-06	-4.919066e-06	-6.427723e-09	-3.543504e+01	-4.213784e+02
2.840000e-06	-5.036093e-06	-6.543064e-09	-3.627806e+01	-4.288903e+02
2.850000e-06	-5.151143e-06	-6.652940e-09	-3.710684e+01	-4.359786e+02
2.860000e-06	-5.264096e-06	-6.757465e-09	-3.792051e+01	-4.426755e+02
2.870000e-06	-5.374957e-06	-6.853978e-09	-3.871910e+01	-4.490193e+02
2.880000e-06	-5.483875e-06	-6.944786e-09	-3.950371e+01	-4.550506e+02
2.890000e-06	-5.590968e-06	-7.031790e-09	-4.027516e+01	-4.608093e+02
2.900000e-06	-5.696218e-06	-7.116578e-09	-4.103334e+01	-4.663305e+02
2.910000e-06	-5.799318e-06	-7.200799e-09	-4.177603e+01	-4.716424e+02
2.920000e-06	-5.900109e-06	-7.282287e-09	-4.250210e+01	-4.767641e+02
2.930000e-06	-5.998729e-06	-7.359040e-09	-4.321252e+01	-4.817053e+02
2.940000e-06	-6.095299e-06	-7.429897e-09	-4.390817e+01	-4.864671e+02
