# Temperatura_=_43.23
# Concentracion g/m^3_=_5000.0
# C_Vs_to_Am_M_A/Vsm_=_65563218390.804596
# pendiente_HvsI_1/m_=_3716.3
# ordenada_HvsI_A/m_=_1297.0
# frecuencia_Hz_=_302571.1498705266

Tiempo_(s)	Campo_(V.s)	Magnetizacion_(V.s)	Campo_(kA/m)	Magnetizacion_(A/m)
0.000000e+00	-7.939780e-06	-5.785651e-09	-5.685082e+01	-3.777830e+02
1.000000e-08	-7.936631e-06	-5.779525e-09	-5.682827e+01	-3.775360e+02
2.000000e-08	-7.930941e-06	-5.773553e-09	-5.678753e+01	-3.772012e+02
3.000000e-08	-7.922645e-06	-5.767709e-09	-5.672813e+01	-3.768003e+02
4.000000e-08	-7.911505e-06	-5.761400e-09	-5.664837e+01	-3.763585e+02
5.000000e-08	-7.897463e-06	-5.754571e-09	-5.654782e+01	-3.759012e+02
6.000000e-08	-7.880503e-06	-5.749835e-09	-5.642638e+01	-3.754515e+02
7.000000e-08	-7.861082e-06	-5.742299e-09	-5.628732e+01	-3.750263e+02
8.000000e-08	-7.839380e-06	-5.757076e-09	-5.613193e+01	-3.746351e+02
9.000000e-08	-7.814781e-06	-5.750303e-09	-5.595580e+01	-3.742779e+02
1.000000e-07	-7.786957e-06	-5.756469e-09	-5.575657e+01	-3.739457e+02
1.100000e-07	-7.756205e-06	-5.757650e-09	-5.553638e+01	-3.736206e+02
1.200000e-07	-7.722679e-06	-5.714710e-09	-5.529632e+01	-3.732788e+02
1.300000e-07	-7.686476e-06	-5.656988e-09	-5.503710e+01	-3.728924e+02
1.400000e-07	-7.648009e-06	-5.602474e-09	-5.476166e+01	-3.724326e+02
1.500000e-07	-7.607476e-06	-5.643345e-09	-5.447144e+01	-3.718733e+02
1.600000e-07	-7.564506e-06	-5.690991e-09	-5.416377e+01	-3.711930e+02
1.700000e-07	-7.518775e-06	-5.699177e-09	-5.383632e+01	-3.703772e+02
1.800000e-07	-7.470286e-06	-5.701501e-09	-5.348913e+01	-3.694191e+02
1.900000e-07	-7.418860e-06	-5.598251e-09	-5.312090e+01	-3.683198e+02
2.000000e-07	-7.364497e-06	-5.545963e-09	-5.273165e+01	-3.670875e+02
2.100000e-07	-7.307397e-06	-5.510288e-09	-5.232280e+01	-3.657358e+02
2.200000e-07	-7.247614e-06	-5.513430e-09	-5.189473e+01	-3.642812e+02
2.300000e-07	-7.185243e-06	-5.548168e-09	-5.144814e+01	-3.627414e+02
2.400000e-07	-7.120225e-06	-5.465132e-09	-5.098260e+01	-3.611327e+02
2.500000e-07	-7.052450e-06	-5.459422e-09	-5.049731e+01	-3.594682e+02
2.600000e-07	-6.981998e-06	-5.463067e-09	-4.999286e+01	-3.577567e+02
2.700000e-07	-6.908811e-06	-5.454876e-09	-4.946882e+01	-3.560022e+02
2.800000e-07	-6.832786e-06	-5.413109e-09	-4.892447e+01	-3.542041e+02
2.900000e-07	-6.753953e-06	-5.398463e-09	-4.836000e+01	-3.523577e+02
3.000000e-07	-6.672461e-06	-5.374642e-09	-4.777649e+01	-3.504556e+02
3.100000e-07	-6.588714e-06	-5.303726e-09	-4.717685e+01	-3.484892e+02
3.200000e-07	-6.502770e-06	-5.302683e-09	-4.656146e+01	-3.464497e+02
3.300000e-07	-6.414453e-06	-5.265987e-09	-4.592910e+01	-3.443294e+02
3.400000e-07	-6.323812e-06	-5.202738e-09	-4.528008e+01	-3.421225e+02
3.500000e-07	-6.230918e-06	-5.147718e-09	-4.461494e+01	-3.398259e+02
3.600000e-07	-6.135734e-06	-5.133823e-09	-4.393339e+01	-3.374385e+02
3.700000e-07	-6.038269e-06	-5.115853e-09	-4.323552e+01	-3.349613e+02
3.800000e-07	-5.938625e-06	-5.073860e-09	-4.252205e+01	-3.323966e+02
3.900000e-07	-5.836889e-06	-5.050367e-09	-4.179359e+01	-3.297474e+02
4.000000e-07	-5.733119e-06	-4.996385e-09	-4.105057e+01	-3.270163e+02
4.100000e-07	-5.627351e-06	-4.925754e-09	-4.029325e+01	-3.242054e+02
4.200000e-07	-5.519563e-06	-4.873768e-09	-3.952146e+01	-3.213155e+02
4.300000e-07	-5.409801e-06	-4.871691e-09	-3.873553e+01	-3.183461e+02
4.400000e-07	-5.298161e-06	-4.833562e-09	-3.793616e+01	-3.152952e+02
4.500000e-07	-5.184462e-06	-4.759445e-09	-3.712205e+01	-3.121599e+02
4.600000e-07	-5.068651e-06	-4.701774e-09	-3.629282e+01	-3.089361e+02
4.700000e-07	-4.950947e-06	-4.656119e-09	-3.545003e+01	-3.056196e+02
4.800000e-07	-4.831426e-06	-4.596542e-09	-3.459422e+01	-3.022058e+02
4.900000e-07	-4.710147e-06	-4.543510e-09	-3.372584e+01	-2.986904e+02
5.000000e-07	-4.587141e-06	-4.503854e-09	-3.284508e+01	-2.950690e+02
5.100000e-07	-4.462433e-06	-4.436993e-09	-3.195214e+01	-2.913380e+02
5.200000e-07	-4.336128e-06	-4.370183e-09	-3.104777e+01	-2.874939e+02
5.300000e-07	-4.208271e-06	-4.319786e-09	-3.013228e+01	-2.835336e+02
5.400000e-07	-4.078929e-06	-4.267549e-09	-2.920616e+01	-2.794545e+02
5.500000e-07	-3.948038e-06	-4.186780e-09	-2.826894e+01	-2.752543e+02
5.600000e-07	-3.815618e-06	-4.116681e-09	-2.732078e+01	-2.709315e+02
5.700000e-07	-3.681758e-06	-4.057718e-09	-2.636231e+01	-2.664846e+02
5.800000e-07	-3.546437e-06	-3.981120e-09	-2.539338e+01	-2.619132e+02
5.900000e-07	-3.409794e-06	-3.895350e-09	-2.441498e+01	-2.572170e+02
6.000000e-07	-3.271883e-06	-3.823787e-09	-2.342750e+01	-2.523958e+02
6.100000e-07	-3.132530e-06	-3.755813e-09	-2.242970e+01	-2.474495e+02
6.200000e-07	-2.991805e-06	-3.671045e-09	-2.142207e+01	-2.423772e+02
6.300000e-07	-2.849908e-06	-3.596158e-09	-2.040606e+01	-2.371767e+02
6.400000e-07	-2.706919e-06	-3.531806e-09	-1.938222e+01	-2.318438e+02
6.500000e-07	-2.562888e-06	-3.456349e-09	-1.835092e+01	-2.263721e+02
6.600000e-07	-2.417813e-06	-3.361460e-09	-1.731215e+01	-2.207525e+02
6.700000e-07	-2.271921e-06	-3.266139e-09	-1.626752e+01	-2.149730e+02
6.800000e-07	-2.125321e-06	-3.169767e-09	-1.521783e+01	-2.090194e+02
6.900000e-07	-1.977978e-06	-3.066050e-09	-1.416282e+01	-2.028760e+02
7.000000e-07	-1.830012e-06	-2.964802e-09	-1.310335e+01	-1.965261e+02
7.100000e-07	-1.681487e-06	-2.867938e-09	-1.203987e+01	-1.899539e+02
7.200000e-07	-1.532546e-06	-2.767285e-09	-1.097342e+01	-1.831450e+02
7.300000e-07	-1.383177e-06	-2.657841e-09	-9.903898e+00	-1.760877e+02
7.400000e-07	-1.233333e-06	-2.549040e-09	-8.830975e+00	-1.687736e+02
7.500000e-07	-1.083071e-06	-2.438106e-09	-7.755063e+00	-1.611974e+02
7.600000e-07	-9.324529e-07	-2.323225e-09	-6.676597e+00	-1.533561e+02
7.700000e-07	-7.815431e-07	-2.199583e-09	-5.596045e+00	-1.452480e+02
7.800000e-07	-6.303190e-07	-2.069729e-09	-4.513242e+00	-1.368709e+02
7.900000e-07	-4.787726e-07	-1.934581e-09	-3.428132e+00	-1.282193e+02
8.000000e-07	-3.270592e-07	-1.792872e-09	-2.341826e+00	-1.192833e+02
8.100000e-07	-1.752459e-07	-1.649321e-09	-1.254805e+00	-1.100459e+02
8.200000e-07	-2.328235e-08	-1.500720e-09	-1.667075e-01	-1.004827e+02
8.300000e-07	1.287411e-07	-1.346246e-09	9.218187e-01	-9.056164e+01
8.400000e-07	2.806999e-07	-1.185008e-09	2.009882e+00	-8.024472e+01
8.500000e-07	4.325711e-07	-1.019938e-09	3.097318e+00	-6.949043e+01
8.600000e-07	5.843617e-07	-8.500475e-10	4.184176e+00	-5.825791e+01
8.700000e-07	7.360073e-07	-6.748287e-10	5.269997e+00	-4.651179e+01
8.800000e-07	8.873255e-07	-4.922685e-10	6.353474e+00	-3.422756e+01
8.900000e-07	1.038293e-06	-2.998668e-10	7.434439e+00	-2.139692e+01
9.000000e-07	1.188944e-06	-9.861028e-11	8.513141e+00	-8.032288e+00
9.100000e-07	1.339145e-06	1.106098e-10	9.588612e+00	5.829834e+00
9.200000e-07	1.488900e-06	3.263883e-10	1.066090e+01	2.012740e+01
9.300000e-07	1.638209e-06	5.510469e-10	1.172999e+01	3.477340e+01
9.400000e-07	1.786924e-06	7.807513e-10	1.279483e+01	4.965868e+01
9.500000e-07	1.935016e-06	1.012130e-09	1.385520e+01	6.465681e+01
9.600000e-07	2.082478e-06	1.243112e-09	1.491106e+01	7.963062e+01
9.700000e-07	2.229158e-06	1.469543e-09	1.596133e+01	9.443994e+01
9.800000e-07	2.374942e-06	1.686979e-09	1.700518e+01	1.089496e+02
9.900000e-07	2.519810e-06	1.896555e-09	1.804248e+01	1.230372e+02
1.000000e-06	2.663775e-06	2.098255e-09	1.907330e+01	1.365997e+02
1.010000e-06	2.806721e-06	2.293500e-09	2.009683e+01	1.495581e+02
1.020000e-06	2.948540e-06	2.477699e-09	2.111229e+01	1.618604e+02
1.030000e-06	3.089176e-06	2.649597e-09	2.211927e+01	1.734820e+02
1.040000e-06	3.228494e-06	2.815089e-09	2.311683e+01	1.844236e+02
1.050000e-06	3.366525e-06	2.972527e-09	2.410517e+01	1.947076e+02
1.060000e-06	3.503306e-06	3.121372e-09	2.508455e+01	2.043730e+02
1.070000e-06	3.638716e-06	3.259841e-09	2.605412e+01	2.134693e+02
1.080000e-06	3.772760e-06	3.391928e-09	2.701391e+01	2.220506e+02
1.090000e-06	3.905559e-06	3.518185e-09	2.796478e+01	2.301703e+02
1.100000e-06	4.036954e-06	3.639121e-09	2.890561e+01	2.378769e+02
1.110000e-06	4.166807e-06	3.756818e-09	2.983538e+01	2.452110e+02
1.120000e-06	4.295208e-06	3.866558e-09	3.075477e+01	2.522044e+02
1.130000e-06	4.422128e-06	3.966473e-09	3.166354e+01	2.588802e+02
1.140000e-06	4.547598e-06	4.057390e-09	3.256194e+01	2.652545e+02
1.150000e-06	4.671561e-06	4.146377e-09	3.344955e+01	2.713386e+02
1.160000e-06	4.793873e-06	4.235713e-09	3.432534e+01	2.771419e+02
1.170000e-06	4.914481e-06	4.317574e-09	3.518892e+01	2.826740e+02
1.180000e-06	5.033297e-06	4.394627e-09	3.603967e+01	2.879466e+02
1.190000e-06	5.150256e-06	4.470525e-09	3.687713e+01	2.929746e+02
1.200000e-06	5.265206e-06	4.547196e-09	3.770019e+01	2.977761e+02
1.210000e-06	5.378074e-06	4.624115e-09	3.850836e+01	3.023710e+02
1.220000e-06	5.488942e-06	4.694393e-09	3.930220e+01	3.067798e+02
1.230000e-06	5.597918e-06	4.756490e-09	4.008250e+01	3.110214e+02
1.240000e-06	5.704958e-06	4.813557e-09	4.084893e+01	3.151112e+02
1.250000e-06	5.809889e-06	4.869596e-09	4.160027e+01	3.190591e+02
1.260000e-06	5.912666e-06	4.927039e-09	4.233618e+01	3.228693e+02
1.270000e-06	6.013285e-06	4.980836e-09	4.305663e+01	3.265397e+02
1.280000e-06	6.111648e-06	5.030290e-09	4.376094e+01	3.300634e+02
1.290000e-06	6.207647e-06	5.078533e-09	4.444831e+01	3.334300e+02
1.300000e-06	6.301394e-06	5.127825e-09	4.511957e+01	3.366279e+02
1.310000e-06	6.392962e-06	5.176842e-09	4.577521e+01	3.396472e+02
1.320000e-06	6.482196e-06	5.218541e-09	4.641415e+01	3.424816e+02
1.330000e-06	6.569089e-06	5.256317e-09	4.703633e+01	3.451301e+02
1.340000e-06	6.653740e-06	5.292627e-09	4.764245e+01	3.475982e+02
1.350000e-06	6.736133e-06	5.328725e-09	4.823240e+01	3.498979e+02
1.360000e-06	6.816032e-06	5.363207e-09	4.880450e+01	3.520462e+02
1.370000e-06	6.893324e-06	5.393171e-09	4.935793e+01	3.540637e+02
1.380000e-06	6.968040e-06	5.421381e-09	4.989291e+01	3.559720e+02
1.390000e-06	7.040093e-06	5.451077e-09	5.040884e+01	3.577914e+02
1.400000e-06	7.109660e-06	5.480913e-09	5.090695e+01	3.595383e+02
1.410000e-06	7.176806e-06	5.508356e-09	5.138773e+01	3.612235e+02
1.420000e-06	7.241345e-06	5.532868e-09	5.184985e+01	3.628516e+02
1.430000e-06	7.303310e-06	5.554583e-09	5.229353e+01	3.644203e+02
1.440000e-06	7.362792e-06	5.575394e-09	5.271944e+01	3.659223e+02
1.450000e-06	7.419663e-06	5.595675e-09	5.312665e+01	3.673466e+02
1.460000e-06	7.473929e-06	5.614361e-09	5.351521e+01	3.686807e+02
1.470000e-06	7.525251e-06	5.629767e-09	5.388269e+01	3.699136e+02
1.480000e-06	7.573390e-06	5.643813e-09	5.422737e+01	3.710373e+02
1.490000e-06	7.618828e-06	5.658221e-09	5.455272e+01	3.720493e+02
1.500000e-06	7.661638e-06	5.672042e-09	5.485925e+01	3.729526e+02
1.510000e-06	7.701629e-06	5.686815e-09	5.514560e+01	3.737559e+02
1.520000e-06	7.738927e-06	5.702008e-09	5.541266e+01	3.744726e+02
1.530000e-06	7.773546e-06	5.714965e-09	5.566055e+01	3.751185e+02
1.540000e-06	7.805361e-06	5.723939e-09	5.588835e+01	3.757099e+02
1.550000e-06	7.834487e-06	5.730486e-09	5.609690e+01	3.762607e+02
1.560000e-06	7.860769e-06	5.737141e-09	5.628508e+01	3.767804e+02
1.570000e-06	7.884033e-06	5.744555e-09	5.645165e+01	3.772726e+02
1.580000e-06	7.904550e-06	5.752191e-09	5.659856e+01	3.777342e+02
1.590000e-06	7.922353e-06	5.757904e-09	5.672604e+01	3.781559e+02
1.600000e-06	7.937196e-06	5.762725e-09	5.683232e+01	3.785236e+02
1.610000e-06	7.948888e-06	5.767311e-09	5.691604e+01	3.788203e+02
1.620000e-06	7.957509e-06	5.769570e-09	5.697776e+01	3.790291e+02
1.630000e-06	7.963329e-06	5.771051e-09	5.701944e+01	3.791360e+02
1.640000e-06	7.966303e-06	5.770461e-09	5.704073e+01	3.791320e+02
1.650000e-06	7.966410e-06	5.765548e-09	5.704150e+01	3.790154e+02
1.660000e-06	7.963933e-06	5.762581e-09	5.702376e+01	3.787925e+02
1.670000e-06	7.958878e-06	5.759024e-09	5.698756e+01	3.784773e+02
1.680000e-06	7.951063e-06	5.755650e-09	5.693161e+01	3.780902e+02
1.690000e-06	7.940587e-06	5.751086e-09	5.685660e+01	3.776556e+02
1.700000e-06	7.927324e-06	5.747172e-09	5.676163e+01	3.771994e+02
1.710000e-06	7.911324e-06	5.743906e-09	5.664707e+01	3.767454e+02
1.720000e-06	7.893010e-06	5.738730e-09	5.651594e+01	3.763123e+02
1.730000e-06	7.872337e-06	5.689089e-09	5.636791e+01	3.759117e+02
1.740000e-06	7.848744e-06	5.694423e-09	5.619898e+01	3.755460e+02
1.750000e-06	7.821695e-06	5.672351e-09	5.600530e+01	3.752084e+02
1.760000e-06	7.791092e-06	5.657506e-09	5.578618e+01	3.748831e+02
1.770000e-06	7.757577e-06	5.685406e-09	5.554620e+01	3.745475e+02
1.780000e-06	7.721753e-06	5.745560e-09	5.528969e+01	3.741743e+02
1.790000e-06	7.683665e-06	5.719341e-09	5.501697e+01	3.737350e+02
1.800000e-06	7.643472e-06	5.669032e-09	5.472918e+01	3.732023e+02
1.810000e-06	7.601009e-06	5.669598e-09	5.442513e+01	3.725534e+02
1.820000e-06	7.555994e-06	5.554695e-09	5.410281e+01	3.717719e+02
1.830000e-06	7.508414e-06	5.673168e-09	5.376213e+01	3.708490e+02
1.840000e-06	7.457910e-06	5.683457e-09	5.340051e+01	3.697840e+02
1.850000e-06	7.404381e-06	5.681448e-09	5.301723e+01	3.685833e+02
1.860000e-06	7.348040e-06	5.680850e-09	5.261381e+01	3.672595e+02
1.870000e-06	7.289064e-06	5.503171e-09	5.219153e+01	3.658284e+02
1.880000e-06	7.227547e-06	5.540978e-09	5.175105e+01	3.643078e+02
1.890000e-06	7.163210e-06	5.492016e-09	5.129039e+01	3.627144e+02
1.900000e-06	7.096039e-06	5.483817e-09	5.080942e+01	3.610623e+02
1.910000e-06	7.026112e-06	5.510780e-09	5.030873e+01	3.593615e+02
1.920000e-06	6.953433e-06	5.447672e-09	4.978833e+01	3.576171e+02
1.930000e-06	6.878075e-06	5.401430e-09	4.924875e+01	3.558297e+02
1.940000e-06	6.799910e-06	5.329190e-09	4.868907e+01	3.539954e+02
1.950000e-06	6.719189e-06	5.390422e-09	4.811108e+01	3.521076e+02
1.960000e-06	6.636078e-06	5.344445e-09	4.751598e+01	3.501576e+02
1.970000e-06	6.550495e-06	5.285752e-09	4.690319e+01	3.481366e+02
1.980000e-06	6.462495e-06	5.268782e-09	4.627309e+01	3.460365e+02
1.990000e-06	6.372159e-06	5.225147e-09	4.562626e+01	3.438512e+02
2.000000e-06	6.279653e-06	5.206996e-09	4.496390e+01	3.415767e+02
2.010000e-06	6.184848e-06	5.154038e-09	4.428507e+01	3.392115e+02
2.020000e-06	6.087785e-06	5.150660e-09	4.359007e+01	3.367560e+02
2.030000e-06	5.988569e-06	5.072134e-09	4.287966e+01	3.342124e+02
2.040000e-06	5.887228e-06	5.018918e-09	4.215403e+01	3.315835e+02
2.050000e-06	5.783787e-06	5.008978e-09	4.141337e+01	3.288721e+02
2.060000e-06	5.678326e-06	5.007319e-09	4.065824e+01	3.260806e+02
2.070000e-06	5.570938e-06	4.942690e-09	3.988932e+01	3.232099e+02
2.080000e-06	5.461676e-06	4.857050e-09	3.910697e+01	3.202600e+02
2.090000e-06	5.350448e-06	4.812288e-09	3.831055e+01	3.172292e+02
2.100000e-06	5.237149e-06	4.758189e-09	3.749930e+01	3.141148e+02
2.110000e-06	5.121852e-06	4.736448e-09	3.667374e+01	3.109130e+02
2.120000e-06	5.004557e-06	4.716128e-09	3.583389e+01	3.076196e+02
2.130000e-06	4.885364e-06	4.668711e-09	3.498044e+01	3.042300e+02
2.140000e-06	4.764307e-06	4.566718e-09	3.411363e+01	3.007399e+02
2.150000e-06	4.641471e-06	4.500762e-09	3.323410e+01	2.971448e+02
2.160000e-06	4.517015e-06	4.467000e-09	3.234296e+01	2.934411e+02
2.170000e-06	4.390964e-06	4.428571e-09	3.144041e+01	2.896250e+02
2.180000e-06	4.263212e-06	4.361909e-09	3.052567e+01	2.856935e+02
2.190000e-06	4.133899e-06	4.294032e-09	2.959975e+01	2.816438e+02
2.200000e-06	4.003071e-06	4.220777e-09	2.866299e+01	2.774735e+02
2.210000e-06	3.870732e-06	4.146462e-09	2.771541e+01	2.731810e+02
2.220000e-06	3.737029e-06	4.099234e-09	2.675807e+01	2.687647e+02
2.230000e-06	3.601875e-06	4.052362e-09	2.579033e+01	2.642240e+02
2.240000e-06	3.465240e-06	3.975581e-09	2.481199e+01	2.595584e+02
2.250000e-06	3.327334e-06	3.882065e-09	2.382455e+01	2.547680e+02
2.260000e-06	3.188267e-06	3.815067e-09	2.282879e+01	2.498525e+02
2.270000e-06	3.047994e-06	3.750899e-09	2.182440e+01	2.448113e+02
2.280000e-06	2.906527e-06	3.668381e-09	2.081147e+01	2.396426e+02
2.290000e-06	2.763867e-06	3.573724e-09	1.978998e+01	2.343428e+02
2.300000e-06	2.620122e-06	3.483883e-09	1.876073e+01	2.289060e+02
2.310000e-06	2.475430e-06	3.394413e-09	1.772470e+01	2.233239e+02
2.320000e-06	2.329922e-06	3.316219e-09	1.668283e+01	2.175851e+02
2.330000e-06	2.183662e-06	3.247516e-09	1.563557e+01	2.116759e+02
2.340000e-06	2.036633e-06	3.162262e-09	1.458280e+01	2.055810e+02
2.350000e-06	1.888890e-06	3.050039e-09	1.352493e+01	1.992838e+02
2.360000e-06	1.740528e-06	2.937489e-09	1.246262e+01	1.927680e+02
2.370000e-06	1.591678e-06	2.841630e-09	1.139681e+01	1.860190e+02
2.380000e-06	1.442441e-06	2.747777e-09	1.032824e+01	1.790242e+02
2.390000e-06	1.292826e-06	2.640226e-09	9.256957e+00	1.717744e+02
2.400000e-06	1.142777e-06	2.517888e-09	8.182573e+00	1.642635e+02
2.410000e-06	9.923383e-07	2.389590e-09	7.105391e+00	1.564881e+02
2.420000e-06	8.415027e-07	2.264377e-09	6.025371e+00	1.484464e+02
2.430000e-06	6.903050e-07	2.148671e-09	4.942757e+00	1.401364e+02
2.440000e-06	5.388291e-07	2.031945e-09	3.858152e+00	1.315536e+02
2.450000e-06	3.871356e-07	1.900914e-09	2.771988e+00	1.226895e+02
2.460000e-06	2.352696e-07	1.753579e-09	1.684589e+00	1.135289e+02
2.470000e-06	8.322465e-08	1.600121e-09	5.959094e-01	1.040493e+02
2.480000e-06	-6.884896e-08	1.447650e-09	-4.929758e-01	9.422059e+01
2.490000e-06	-2.209007e-07	1.293759e-09	-1.581704e+00	8.400594e+01
2.500000e-06	-3.729242e-07	1.134194e-09	-2.670231e+00	7.336440e+01
2.510000e-06	-5.248116e-07	9.654045e-10	-3.757783e+00	6.225454e+01
2.520000e-06	-6.764795e-07	7.889414e-10	-4.843763e+00	5.063911e+01
2.530000e-06	-8.279224e-07	6.085220e-10	-5.928132e+00	3.849039e+01
2.540000e-06	-9.790331e-07	4.232076e-10	-7.010123e+00	2.579554e+01
2.550000e-06	-1.129675e-06	2.240970e-10	-8.088754e+00	1.256145e+01
2.560000e-06	-1.279871e-06	8.898972e-12	-9.164201e+00	-1.181634e+00
2.570000e-06	-1.429651e-06	-2.138701e-10	-1.023666e+01	-1.537807e+01
2.580000e-06	-1.578999e-06	-4.387477e-10	-1.130603e+01	-2.994692e+01
2.590000e-06	-1.727850e-06	-6.653043e-10	-1.237184e+01	-4.478419e+01
2.600000e-06	-1.876076e-06	-8.955030e-10	-1.343318e+01	-5.976718e+01
2.610000e-06	-2.023605e-06	-1.128702e-09	-1.448952e+01	-7.476076e+01
2.620000e-06	-2.170311e-06	-1.362594e-09	-1.553997e+01	-8.962472e+01
2.630000e-06	-2.316171e-06	-1.589823e-09	-1.658437e+01	-1.042219e+02
2.640000e-06	-2.461252e-06	-1.804754e-09	-1.762318e+01	-1.184261e+02
2.650000e-06	-2.605426e-06	-2.009630e-09	-1.865551e+01	-1.321288e+02
2.660000e-06	-2.748498e-06	-2.209803e-09	-1.967993e+01	-1.452446e+02
2.670000e-06	-2.890388e-06	-2.403020e-09	-2.069591e+01	-1.577149e+02
2.680000e-06	-3.031132e-06	-2.583105e-09	-2.170367e+01	-1.695081e+02
2.690000e-06	-3.170658e-06	-2.751630e-09	-2.270271e+01	-1.806188e+02
2.700000e-06	-3.308885e-06	-2.909180e-09	-2.369245e+01	-1.910647e+02
2.710000e-06	-3.445936e-06	-3.055255e-09	-2.467376e+01	-2.008809e+02
2.720000e-06	-3.581772e-06	-3.195981e-09	-2.564639e+01	-2.101150e+02
2.730000e-06	-3.716194e-06	-3.334444e-09	-2.660888e+01	-2.188204e+02
2.740000e-06	-3.849311e-06	-3.467105e-09	-2.756203e+01	-2.270513e+02
2.750000e-06	-3.981129e-06	-3.587730e-09	-2.850589e+01	-2.348575e+02
2.760000e-06	-4.111485e-06	-3.699243e-09	-2.943927e+01	-2.422819e+02
2.770000e-06	-4.240474e-06	-3.807109e-09	-3.036286e+01	-2.493585e+02
2.780000e-06	-4.368044e-06	-3.910748e-09	-3.127629e+01	-2.561125e+02
2.790000e-06	-4.494074e-06	-4.007218e-09	-3.217870e+01	-2.625615e+02
2.800000e-06	-4.618549e-06	-4.095856e-09	-3.306997e+01	-2.687178e+02
2.810000e-06	-4.741371e-06	-4.181499e-09	-3.394941e+01	-2.745909e+02
2.820000e-06	-4.862554e-06	-4.266098e-09	-3.481711e+01	-2.801903e+02
2.830000e-06	-4.981910e-06	-4.350285e-09	-3.567173e+01	-2.855271e+02
2.840000e-06	-5.099227e-06	-4.431287e-09	-3.651174e+01	-2.906152e+02
2.850000e-06	-5.214503e-06	-4.505973e-09	-3.733715e+01	-2.954720e+02
2.860000e-06	-5.327621e-06	-4.576229e-09	-3.814710e+01	-3.001171e+02
2.870000e-06	-5.438604e-06	-4.645687e-09	-3.894177e+01	-3.045711e+02
2.880000e-06	-5.547678e-06	-4.716181e-09	-3.972277e+01	-3.088535e+02
2.890000e-06	-5.654845e-06	-4.784856e-09	-4.049011e+01	-3.129805e+02
2.900000e-06	-5.760055e-06	-4.849043e-09	-4.124344e+01	-3.169638e+02
2.910000e-06	-5.863175e-06	-4.908604e-09	-4.198181e+01	-3.208089e+02
2.920000e-06	-5.964061e-06	-4.963718e-09	-4.270418e+01	-3.245153e+02
2.930000e-06	-6.062785e-06	-5.018143e-09	-4.341106e+01	-3.280771e+02
2.940000e-06	-6.159374e-06	-5.072578e-09	-4.410267e+01	-3.314845e+02
