# Temperatura_=_33.61
# Concentracion g/m^3_=_5000.0
# C_Vs_to_Am_M_A/Vsm_=_65563218390.804596
# pendiente_HvsI_1/m_=_3716.3
# ordenada_HvsI_A/m_=_1297.0
# frecuencia_Hz_=_302570.5838874163

Tiempo_(s)	Campo_(V.s)	Magnetizacion_(V.s)	Campo_(kA/m)	Magnetizacion_(A/m)
0.000000e+00	-7.970610e-06	-6.014983e-09	-5.685333e+01	-3.944056e+02
1.000000e-08	-7.967228e-06	-6.016944e-09	-5.682920e+01	-3.941885e+02
2.000000e-08	-7.961254e-06	-6.009889e-09	-5.678659e+01	-3.939057e+02
3.000000e-08	-7.952682e-06	-6.005193e-09	-5.672545e+01	-3.935778e+02
4.000000e-08	-7.941301e-06	-5.999470e-09	-5.664427e+01	-3.932262e+02
5.000000e-08	-7.926827e-06	-5.990175e-09	-5.654103e+01	-3.928694e+02
6.000000e-08	-7.909492e-06	-5.975968e-09	-5.641738e+01	-3.925206e+02
7.000000e-08	-7.889901e-06	-5.957994e-09	-5.627764e+01	-3.921847e+02
8.000000e-08	-7.867967e-06	-5.984034e-09	-5.612119e+01	-3.918580e+02
9.000000e-08	-7.842989e-06	-6.056024e-09	-5.594303e+01	-3.915273e+02
1.000000e-07	-7.814728e-06	-6.016218e-09	-5.574144e+01	-3.911718e+02
1.100000e-07	-7.783555e-06	-5.964357e-09	-5.551909e+01	-3.907651e+02
1.200000e-07	-7.749593e-06	-5.946879e-09	-5.527684e+01	-3.902785e+02
1.300000e-07	-7.712998e-06	-5.891629e-09	-5.501582e+01	-3.896846e+02
1.400000e-07	-7.674188e-06	-5.806743e-09	-5.473899e+01	-3.889606e+02
1.500000e-07	-7.633291e-06	-5.831049e-09	-5.444728e+01	-3.880913e+02
1.600000e-07	-7.589902e-06	-6.011897e-09	-5.413779e+01	-3.870708e+02
1.700000e-07	-7.543723e-06	-5.885690e-09	-5.380840e+01	-3.859031e+02
1.800000e-07	-7.494879e-06	-5.885082e-09	-5.346000e+01	-3.846017e+02
1.900000e-07	-7.443001e-06	-5.898783e-09	-5.308996e+01	-3.831876e+02
2.000000e-07	-7.388083e-06	-5.748448e-09	-5.269824e+01	-3.816868e+02
2.100000e-07	-7.330446e-06	-5.793978e-09	-5.228712e+01	-3.801265e+02
2.200000e-07	-7.270159e-06	-5.785612e-09	-5.185710e+01	-3.785322e+02
2.300000e-07	-7.207373e-06	-5.796759e-09	-5.140926e+01	-3.769247e+02
2.400000e-07	-7.141805e-06	-5.716897e-09	-5.094157e+01	-3.753176e+02
2.500000e-07	-7.073411e-06	-5.670039e-09	-5.045372e+01	-3.737163e+02
2.600000e-07	-7.002399e-06	-5.717318e-09	-4.994720e+01	-3.721178e+02
2.700000e-07	-6.928601e-06	-5.703066e-09	-4.942081e+01	-3.705117e+02
2.800000e-07	-6.852023e-06	-5.671697e-09	-4.887459e+01	-3.688821e+02
2.900000e-07	-6.772639e-06	-5.622763e-09	-4.830835e+01	-3.672102e+02
3.000000e-07	-6.690606e-06	-5.625280e-09	-4.772322e+01	-3.654765e+02
3.100000e-07	-6.606329e-06	-5.581207e-09	-4.712209e+01	-3.636636e+02
3.200000e-07	-6.519844e-06	-5.521581e-09	-4.650520e+01	-3.617581e+02
3.300000e-07	-6.431063e-06	-5.528516e-09	-4.587194e+01	-3.597515e+02
3.400000e-07	-6.339877e-06	-5.468234e-09	-4.522152e+01	-3.576410e+02
3.500000e-07	-6.246384e-06	-5.408602e-09	-4.455465e+01	-3.554284e+02
3.600000e-07	-6.150686e-06	-5.377861e-09	-4.387205e+01	-3.531195e+02
3.700000e-07	-6.052680e-06	-5.380078e-09	-4.317298e+01	-3.507221e+02
3.800000e-07	-5.952450e-06	-5.357822e-09	-4.245806e+01	-3.482442e+02
3.900000e-07	-5.850098e-06	-5.308099e-09	-4.172799e+01	-3.456926e+02
4.000000e-07	-5.745625e-06	-5.257372e-09	-4.098279e+01	-3.430718e+02
4.100000e-07	-5.639152e-06	-5.190210e-09	-4.022334e+01	-3.403825e+02
4.200000e-07	-5.530747e-06	-5.162234e-09	-3.945010e+01	-3.376224e+02
4.300000e-07	-5.420423e-06	-5.136133e-09	-3.866318e+01	-3.347862e+02
4.400000e-07	-5.308103e-06	-5.096178e-09	-3.786201e+01	-3.318664e+02
4.500000e-07	-5.193664e-06	-5.035132e-09	-3.704573e+01	-3.288548e+02
4.600000e-07	-5.077222e-06	-4.979385e-09	-3.621517e+01	-3.257431e+02
4.700000e-07	-4.958981e-06	-4.924146e-09	-3.537177e+01	-3.225243e+02
4.800000e-07	-4.838892e-06	-4.871948e-09	-3.451519e+01	-3.191930e+02
4.900000e-07	-4.716971e-06	-4.835189e-09	-3.364554e+01	-3.157458e+02
5.000000e-07	-4.593344e-06	-4.784038e-09	-3.276372e+01	-3.121809e+02
5.100000e-07	-4.468072e-06	-4.711549e-09	-3.187018e+01	-3.084978e+02
5.200000e-07	-4.341150e-06	-4.645703e-09	-3.096486e+01	-3.046963e+02
5.300000e-07	-4.212558e-06	-4.608046e-09	-3.004763e+01	-3.007758e+02
5.400000e-07	-4.082473e-06	-4.550129e-09	-2.911975e+01	-2.967348e+02
5.500000e-07	-3.950923e-06	-4.467225e-09	-2.818142e+01	-2.925707e+02
5.600000e-07	-3.817840e-06	-4.400289e-09	-2.723216e+01	-2.882792e+02
5.700000e-07	-3.683255e-06	-4.340304e-09	-2.627218e+01	-2.838552e+02
5.800000e-07	-3.547267e-06	-4.260142e-09	-2.530219e+01	-2.792933e+02
5.900000e-07	-3.409977e-06	-4.175928e-09	-2.432292e+01	-2.745880e+02
6.000000e-07	-3.271368e-06	-4.112581e-09	-2.333424e+01	-2.697347e+02
6.100000e-07	-3.131330e-06	-4.039596e-09	-2.233537e+01	-2.647300e+02
6.200000e-07	-2.989885e-06	-3.948474e-09	-2.132646e+01	-2.595715e+02
6.300000e-07	-2.847256e-06	-3.867991e-09	-2.030911e+01	-2.542577e+02
6.400000e-07	-2.703554e-06	-3.800987e-09	-1.928410e+01	-2.487875e+02
6.500000e-07	-2.558895e-06	-3.718539e-09	-1.825226e+01	-2.431586e+02
6.600000e-07	-2.413370e-06	-3.618266e-09	-1.721425e+01	-2.373671e+02
6.700000e-07	-2.266910e-06	-3.523979e-09	-1.616958e+01	-2.314064e+02
6.800000e-07	-2.119719e-06	-3.429558e-09	-1.511968e+01	-2.252665e+02
6.900000e-07	-1.971946e-06	-3.328231e-09	-1.406563e+01	-2.189341e+02
7.000000e-07	-1.823521e-06	-3.225906e-09	-1.300694e+01	-2.123927e+02
7.100000e-07	-1.674437e-06	-3.126818e-09	-1.194354e+01	-2.056240e+02
7.200000e-07	-1.524735e-06	-3.019844e-09	-1.087573e+01	-1.986091e+02
7.300000e-07	-1.374577e-06	-2.904088e-09	-9.804682e+00	-1.913297e+02
7.400000e-07	-1.224025e-06	-2.786921e-09	-8.730810e+00	-1.837704e+02
7.500000e-07	-1.073087e-06	-2.670512e-09	-7.654192e+00	-1.759190e+02
7.600000e-07	-9.218058e-07	-2.553353e-09	-6.575121e+00	-1.677673e+02
7.700000e-07	-7.701924e-07	-2.425557e-09	-5.493683e+00	-1.593110e+02
7.800000e-07	-6.183267e-07	-2.289884e-09	-4.410444e+00	-1.505483e+02
7.900000e-07	-4.662181e-07	-2.148464e-09	-3.325474e+00	-1.414780e+02
8.000000e-07	-3.138724e-07	-2.002855e-09	-2.238811e+00	-1.320974e+02
8.100000e-07	-1.614068e-07	-1.851885e-09	-1.151294e+00	-1.223998e+02
8.200000e-07	-8.840206e-09	-1.695838e-09	-6.305604e-02	-1.123722e+02
8.300000e-07	1.438287e-07	-1.535017e-09	1.025911e+00	-1.019943e+02
8.400000e-07	2.964598e-07	-1.366989e-09	2.114610e+00	-9.123789e+01
8.500000e-07	4.490555e-07	-1.193515e-09	3.203054e+00	-8.006873e+01
8.600000e-07	6.015289e-07	-1.015720e-09	4.290627e+00	-6.844882e+01
8.700000e-07	7.537311e-07	-8.360950e-10	5.376266e+00	-5.634082e+01
8.800000e-07	9.056656e-07	-6.462764e-10	6.459995e+00	-4.371317e+01
8.900000e-07	1.057313e-06	-4.467445e-10	7.541678e+00	-3.054583e+01
9.000000e-07	1.208585e-06	-2.404747e-10	8.620682e+00	-1.683579e+01
9.100000e-07	1.359429e-06	-3.086186e-11	9.696633e+00	-2.601752e+00
9.200000e-07	1.509847e-06	1.885539e-10	1.076954e+01	1.211264e+01
9.300000e-07	1.659738e-06	4.212812e-10	1.183870e+01	2.723764e+01
9.400000e-07	1.808988e-06	6.587392e-10	1.290327e+01	4.267855e+01
9.500000e-07	1.957472e-06	9.012238e-10	1.396239e+01	5.831922e+01
9.600000e-07	2.105222e-06	1.144201e-09	1.501627e+01	7.402765e+01
9.700000e-07	2.252259e-06	1.384486e-09	1.606507e+01	8.966328e+01
9.800000e-07	2.398464e-06	1.617492e-09	1.710793e+01	1.050852e+02
9.900000e-07	2.543729e-06	1.844355e-09	1.814409e+01	1.201604e+02
1.000000e-06	2.688019e-06	2.065918e-09	1.917329e+01	1.347714e+02
1.010000e-06	2.831380e-06	2.279908e-09	2.019586e+01	1.488227e+02
1.020000e-06	2.973708e-06	2.480844e-09	2.121107e+01	1.622442e+02
1.030000e-06	3.114727e-06	2.668512e-09	2.221694e+01	1.749935e+02
1.040000e-06	3.254434e-06	2.850667e-09	2.321346e+01	1.870551e+02
1.050000e-06	3.393013e-06	3.025083e-09	2.420192e+01	1.984368e+02
1.060000e-06	3.530256e-06	3.189044e-09	2.518086e+01	2.091659e+02
1.070000e-06	3.666055e-06	3.341989e-09	2.614950e+01	2.192828e+02
1.080000e-06	3.800539e-06	3.489138e-09	2.710875e+01	2.288351e+02
1.090000e-06	3.933648e-06	3.630696e-09	2.805820e+01	2.378719e+02
1.100000e-06	4.065292e-06	3.764429e-09	2.899720e+01	2.464389e+02
1.110000e-06	4.195530e-06	3.892565e-09	2.992617e+01	2.545754e+02
1.120000e-06	4.324296e-06	4.011439e-09	3.084464e+01	2.623125e+02
1.130000e-06	4.451503e-06	4.120456e-09	3.175199e+01	2.696734e+02
1.140000e-06	4.577246e-06	4.221965e-09	3.264890e+01	2.766745e+02
1.150000e-06	4.701421e-06	4.322667e-09	3.353463e+01	2.833280e+02
1.160000e-06	4.824001e-06	4.420687e-09	3.440897e+01	2.896446e+02
1.170000e-06	4.944939e-06	4.510565e-09	3.527161e+01	2.956360e+02
1.180000e-06	5.064050e-06	4.594320e-09	3.612121e+01	3.013169e+02
1.190000e-06	5.181275e-06	4.676403e-09	3.695736e+01	3.067062e+02
1.200000e-06	5.296516e-06	4.758917e-09	3.777936e+01	3.118269e+02
1.210000e-06	5.409657e-06	4.839876e-09	3.858638e+01	3.167045e+02
1.220000e-06	5.520782e-06	4.913867e-09	3.937902e+01	3.213658e+02
1.230000e-06	5.630020e-06	4.978313e-09	4.015821e+01	3.258359e+02
1.240000e-06	5.737254e-06	5.039115e-09	4.092309e+01	3.301359e+02
1.250000e-06	5.842280e-06	5.099268e-09	4.167222e+01	3.342810e+02
1.260000e-06	5.945123e-06	5.160556e-09	4.240579e+01	3.382794e+02
1.270000e-06	6.045837e-06	5.219161e-09	4.312417e+01	3.421316e+02
1.280000e-06	6.144340e-06	5.274905e-09	4.382678e+01	3.458319e+02
1.290000e-06	6.240520e-06	5.328330e-09	4.451282e+01	3.493697e+02
1.300000e-06	6.334443e-06	5.379271e-09	4.518276e+01	3.527324e+02
1.310000e-06	6.426159e-06	5.426661e-09	4.583696e+01	3.559079e+02
1.320000e-06	6.515503e-06	5.468595e-09	4.647424e+01	3.588877e+02
1.330000e-06	6.602519e-06	5.507935e-09	4.709491e+01	3.616686e+02
1.340000e-06	6.687269e-06	5.546305e-09	4.769942e+01	3.642542e+02
1.350000e-06	6.769720e-06	5.585128e-09	4.828753e+01	3.666551e+02
1.360000e-06	6.849690e-06	5.622638e-09	4.885795e+01	3.688878e+02
1.370000e-06	6.927021e-06	5.656551e-09	4.940955e+01	3.709732e+02
1.380000e-06	7.001766e-06	5.688028e-09	4.994269e+01	3.729339e+02
1.390000e-06	7.073908e-06	5.717192e-09	5.045727e+01	3.747915e+02
1.400000e-06	7.143540e-06	5.743767e-09	5.095394e+01	3.765642e+02
1.410000e-06	7.210682e-06	5.769147e-09	5.143286e+01	3.782647e+02
1.420000e-06	7.275164e-06	5.793145e-09	5.189280e+01	3.798991e+02
1.430000e-06	7.337120e-06	5.815252e-09	5.233473e+01	3.814672e+02
1.440000e-06	7.396646e-06	5.835813e-09	5.275932e+01	3.829630e+02
1.450000e-06	7.453579e-06	5.855421e-09	5.316541e+01	3.843766e+02
1.460000e-06	7.507765e-06	5.874731e-09	5.355192e+01	3.856969e+02
1.470000e-06	7.558996e-06	5.893393e-09	5.391734e+01	3.869137e+02
1.480000e-06	7.607126e-06	5.910623e-09	5.426064e+01	3.880202e+02
1.490000e-06	7.652459e-06	5.925908e-09	5.458400e+01	3.890145e+02
1.500000e-06	7.695134e-06	5.938937e-09	5.488840e+01	3.899005e+02
1.510000e-06	7.734995e-06	5.953165e-09	5.517271e+01	3.906874e+02
1.520000e-06	7.772174e-06	5.967628e-09	5.543791e+01	3.913887e+02
1.530000e-06	7.806623e-06	5.979585e-09	5.568363e+01	3.920201e+02
1.540000e-06	7.838212e-06	5.988044e-09	5.590895e+01	3.925971e+02
1.550000e-06	7.867135e-06	5.994143e-09	5.611525e+01	3.931327e+02
1.560000e-06	7.893267e-06	6.001936e-09	5.630165e+01	3.936353e+02
1.570000e-06	7.916371e-06	6.011977e-09	5.646645e+01	3.941074e+02
1.580000e-06	7.936703e-06	6.020627e-09	5.661148e+01	3.945451e+02
1.590000e-06	7.954280e-06	6.025216e-09	5.673684e+01	3.949392e+02
1.600000e-06	7.968883e-06	6.028229e-09	5.684101e+01	3.952764e+02
1.610000e-06	7.980363e-06	6.032050e-09	5.692289e+01	3.955419e+02
1.620000e-06	7.988735e-06	6.036359e-09	5.698261e+01	3.957220e+02
1.630000e-06	7.994262e-06	6.039889e-09	5.702204e+01	3.958067e+02
1.640000e-06	7.996991e-06	6.041834e-09	5.704150e+01	3.957920e+02
1.650000e-06	7.996883e-06	6.042984e-09	5.704073e+01	3.956805e+02
1.660000e-06	7.994108e-06	6.032861e-09	5.702093e+01	3.954824e+02
1.670000e-06	7.988683e-06	6.030431e-09	5.698224e+01	3.952137e+02
1.680000e-06	7.980504e-06	6.027511e-09	5.692390e+01	3.948945e+02
1.690000e-06	7.969711e-06	6.023126e-09	5.684691e+01	3.945465e+02
1.700000e-06	7.956083e-06	6.023097e-09	5.674971e+01	3.941890e+02
1.710000e-06	7.939745e-06	6.029104e-09	5.663317e+01	3.938369e+02
1.720000e-06	7.921150e-06	6.040948e-09	5.650053e+01	3.934973e+02
1.730000e-06	7.900221e-06	5.953465e-09	5.635125e+01	3.931687e+02
1.740000e-06	7.876361e-06	5.904713e-09	5.618106e+01	3.928402e+02
1.750000e-06	7.848944e-06	5.964136e-09	5.598550e+01	3.924927e+02
1.760000e-06	7.817949e-06	5.959667e-09	5.576441e+01	3.921010e+02
1.770000e-06	7.784046e-06	5.946911e-09	5.552259e+01	3.916366e+02
1.780000e-06	7.747879e-06	6.042237e-09	5.526462e+01	3.910714e+02
1.790000e-06	7.709377e-06	6.083052e-09	5.498999e+01	3.903812e+02
1.800000e-06	7.668822e-06	5.881500e-09	5.470072e+01	3.895487e+02
1.810000e-06	7.626030e-06	5.957601e-09	5.439548e+01	3.885655e+02
1.820000e-06	7.580503e-06	5.898926e-09	5.407074e+01	3.874332e+02
1.830000e-06	7.532346e-06	5.822857e-09	5.372725e+01	3.861630e+02
1.840000e-06	7.481338e-06	5.968731e-09	5.336341e+01	3.847744e+02
1.850000e-06	7.427351e-06	5.821086e-09	5.297833e+01	3.832922e+02
1.860000e-06	7.370526e-06	5.873417e-09	5.257301e+01	3.817438e+02
1.870000e-06	7.311075e-06	5.735494e-09	5.214895e+01	3.801553e+02
1.880000e-06	7.249009e-06	5.679271e-09	5.170624e+01	3.785491e+02
1.890000e-06	7.184059e-06	5.797109e-09	5.124296e+01	3.769406e+02
1.900000e-06	7.116392e-06	5.677403e-09	5.076030e+01	3.753373e+02
1.910000e-06	7.045922e-06	5.730095e-09	5.025764e+01	3.737383e+02
1.920000e-06	6.972657e-06	5.628664e-09	4.973506e+01	3.721349e+02
1.930000e-06	6.896833e-06	5.606163e-09	4.919422e+01	3.705124e+02
1.940000e-06	6.818141e-06	5.595874e-09	4.863292e+01	3.688525e+02
1.950000e-06	6.736840e-06	5.563185e-09	4.805300e+01	3.671355e+02
1.960000e-06	6.653168e-06	5.622793e-09	4.745618e+01	3.653434e+02
1.970000e-06	6.567041e-06	5.487427e-09	4.684185e+01	3.634615e+02
1.980000e-06	6.478498e-06	5.486656e-09	4.621029e+01	3.614802e+02
1.990000e-06	6.387660e-06	5.445604e-09	4.556235e+01	3.593952e+02
2.000000e-06	6.294619e-06	5.452165e-09	4.489870e+01	3.572073e+02
2.010000e-06	6.199212e-06	5.418154e-09	4.421818e+01	3.549213e+02
2.020000e-06	6.101576e-06	5.351687e-09	4.352175e+01	3.525447e+02
2.030000e-06	6.001760e-06	5.305491e-09	4.280978e+01	3.500857e+02
2.040000e-06	5.899805e-06	5.235427e-09	4.208255e+01	3.475516e+02
2.050000e-06	5.795735e-06	5.265159e-09	4.134023e+01	3.449474e+02
2.060000e-06	5.689686e-06	5.233961e-09	4.058380e+01	3.422748e+02
2.070000e-06	5.581769e-06	5.198232e-09	3.981404e+01	3.395323e+02
2.080000e-06	5.471856e-06	5.109703e-09	3.903004e+01	3.367153e+02
2.090000e-06	5.359936e-06	5.051250e-09	3.823173e+01	3.338167e+02
2.100000e-06	5.246014e-06	5.002340e-09	3.741913e+01	3.308284e+02
2.110000e-06	5.130090e-06	4.990757e-09	3.659227e+01	3.277420e+02
2.120000e-06	5.012153e-06	4.977333e-09	3.575104e+01	3.245500e+02
2.130000e-06	4.892256e-06	4.905569e-09	3.489583e+01	3.212467e+02
2.140000e-06	4.770556e-06	4.819462e-09	3.402775e+01	3.178283e+02
2.150000e-06	4.647195e-06	4.758040e-09	3.314784e+01	3.142924e+02
2.160000e-06	4.522093e-06	4.737478e-09	3.225550e+01	3.106384e+02
2.170000e-06	4.395345e-06	4.682035e-09	3.135143e+01	3.068661e+02
2.180000e-06	4.266965e-06	4.620138e-09	3.043571e+01	3.029749e+02
2.190000e-06	4.137094e-06	4.547956e-09	2.950936e+01	2.989638e+02
2.200000e-06	4.005735e-06	4.477730e-09	2.857239e+01	2.948303e+02
2.210000e-06	3.872811e-06	4.407223e-09	2.762426e+01	2.905706e+02
2.220000e-06	3.738475e-06	4.367533e-09	2.666606e+01	2.861798e+02
2.230000e-06	3.602664e-06	4.318715e-09	2.569733e+01	2.816524e+02
2.240000e-06	3.465491e-06	4.230993e-09	2.471890e+01	2.769830e+02
2.250000e-06	3.327026e-06	4.136909e-09	2.373125e+01	2.721666e+02
2.260000e-06	3.187264e-06	4.072292e-09	2.273434e+01	2.671995e+02
2.270000e-06	3.046160e-06	4.013872e-09	2.172787e+01	2.620791e+02
2.280000e-06	2.903907e-06	3.926459e-09	2.071319e+01	2.568038e+02
2.290000e-06	2.760600e-06	3.832603e-09	1.969100e+01	2.513723e+02
2.300000e-06	2.616218e-06	3.738216e-09	1.866114e+01	2.457829e+02
2.310000e-06	2.470859e-06	3.649758e-09	1.762432e+01	2.400321e+02
2.320000e-06	2.324771e-06	3.571608e-09	1.658229e+01	2.341140e+02
2.330000e-06	2.178033e-06	3.501504e-09	1.553563e+01	2.280196e+02
2.340000e-06	2.030486e-06	3.411928e-09	1.448319e+01	2.217362e+02
2.350000e-06	1.882238e-06	3.295616e-09	1.342576e+01	2.152482e+02
2.360000e-06	1.733338e-06	3.178961e-09	1.236368e+01	2.085377e+02
2.370000e-06	1.583845e-06	3.077726e-09	1.129736e+01	2.015856e+02
2.380000e-06	1.433844e-06	2.980390e-09	1.022742e+01	1.943735e+02
2.390000e-06	1.283406e-06	2.869106e-09	9.154371e+00	1.868850e+02
2.400000e-06	1.132555e-06	2.741688e-09	8.078367e+00	1.791070e+02
2.410000e-06	9.813739e-07	2.609510e-09	7.000013e+00	1.710305e+02
2.420000e-06	8.299383e-07	2.483092e-09	5.919842e+00	1.626501e+02
2.430000e-06	6.782326e-07	2.363138e-09	4.837745e+00	1.539636e+02
2.440000e-06	5.262646e-07	2.237748e-09	3.753777e+00	1.449698e+02
2.450000e-06	3.740977e-07	2.096715e-09	2.668390e+00	1.356668e+02
2.460000e-06	2.218333e-07	1.944418e-09	1.582308e+00	1.260489e+02
2.470000e-06	6.945001e-08	1.788267e-09	4.953779e-01	1.161049e+02
2.480000e-06	-8.308503e-08	1.633076e-09	-5.926348e-01	1.058164e+02
2.490000e-06	-2.356312e-07	1.475839e-09	-1.680727e+00	9.515721e+01
2.500000e-06	-3.880505e-07	1.309544e-09	-2.767914e+00	8.409425e+01
2.510000e-06	-5.403299e-07	1.130321e-09	-3.854103e+00	7.259016e+01
2.520000e-06	-6.924536e-07	9.437500e-10	-4.939182e+00	6.060698e+01
2.530000e-06	-8.443156e-07	7.577974e-10	-6.022393e+00	4.811119e+01
2.540000e-06	-9.958508e-07	5.666358e-10	-7.103275e+00	3.507933e+01
2.550000e-06	-1.147083e-06	3.604691e-10	-8.181992e+00	2.150365e+01
2.560000e-06	-1.297965e-06	1.380549e-10	-9.258217e+00	7.397051e+00
2.570000e-06	-1.448465e-06	-9.063988e-11	-1.033171e+01	-7.203246e+00
2.580000e-06	-1.598489e-06	-3.187458e-10	-1.140181e+01	-2.223402e+01
2.590000e-06	-1.747886e-06	-5.507273e-10	-1.246745e+01	-3.760657e+01
2.600000e-06	-1.896638e-06	-7.880426e-10	-1.352848e+01	-5.320965e+01
2.610000e-06	-2.044630e-06	-1.029743e-09	-1.458408e+01	-6.891459e+01
2.620000e-06	-2.191774e-06	-1.272568e-09	-1.563364e+01	-8.458224e+01
2.630000e-06	-2.338169e-06	-1.512008e-09	-1.667786e+01	-1.000710e+02
2.640000e-06	-2.483724e-06	-1.743559e-09	-1.771608e+01	-1.152450e+02
2.650000e-06	-2.628244e-06	-1.966973e-09	-1.874693e+01	-1.299825e+02
2.660000e-06	-2.771684e-06	-2.185498e-09	-1.977006e+01	-1.441818e+02
2.670000e-06	-2.914091e-06	-2.396063e-09	-2.078583e+01	-1.577663e+02
2.680000e-06	-3.055407e-06	-2.593891e-09	-2.179382e+01	-1.706866e+02
2.690000e-06	-3.195467e-06	-2.779195e-09	-2.279285e+01	-1.829207e+02
2.700000e-06	-3.334242e-06	-2.953554e-09	-2.378271e+01	-1.944710e+02
2.710000e-06	-3.471778e-06	-3.116007e-09	-2.476374e+01	-2.053603e+02
2.720000e-06	-3.607963e-06	-3.271060e-09	-2.573513e+01	-2.156265e+02
2.730000e-06	-3.742821e-06	-3.421458e-09	-2.669706e+01	-2.253158e+02
2.740000e-06	-3.876427e-06	-3.565413e-09	-2.765005e+01	-2.344775e+02
2.750000e-06	-4.008554e-06	-3.700269e-09	-2.859249e+01	-2.431584e+02
2.760000e-06	-4.139246e-06	-3.827368e-09	-2.952470e+01	-2.513998e+02
2.770000e-06	-4.268620e-06	-3.949067e-09	-3.044751e+01	-2.592347e+02
2.780000e-06	-4.396449e-06	-4.065182e-09	-3.135930e+01	-2.666884e+02
2.790000e-06	-4.522811e-06	-4.173364e-09	-3.226063e+01	-2.737787e+02
2.800000e-06	-4.647601e-06	-4.272102e-09	-3.315073e+01	-2.805185e+02
2.810000e-06	-4.770672e-06	-4.365433e-09	-3.402858e+01	-2.869188e+02
2.820000e-06	-4.892125e-06	-4.456339e-09	-3.489489e+01	-2.929907e+02
2.830000e-06	-5.011766e-06	-4.544612e-09	-3.574828e+01	-2.987481e+02
2.840000e-06	-5.129464e-06	-4.628458e-09	-3.658780e+01	-3.042088e+02
2.850000e-06	-5.245077e-06	-4.707351e-09	-3.741245e+01	-3.093948e+02
2.860000e-06	-5.358537e-06	-4.782317e-09	-3.822175e+01	-3.143312e+02
2.870000e-06	-5.469880e-06	-4.857215e-09	-3.901594e+01	-3.190446e+02
2.880000e-06	-5.579122e-06	-4.932114e-09	-3.979515e+01	-3.235607e+02
2.890000e-06	-5.686425e-06	-5.003043e-09	-4.056053e+01	-3.279021e+02
2.900000e-06	-5.791844e-06	-5.069622e-09	-4.131247e+01	-3.320854e+02
2.910000e-06	-5.895166e-06	-5.131349e-09	-4.204946e+01	-3.361205e+02
2.920000e-06	-5.996194e-06	-5.189415e-09	-4.277008e+01	-3.400101e+02
2.930000e-06	-6.095020e-06	-5.245698e-09	-4.347499e+01	-3.437497e+02
2.940000e-06	-6.191733e-06	-5.301430e-09	-4.416483e+01	-3.473297e+02
