# Temperatura_=_38.15
# Concentracion g/m^3_=_5000.0
# C_Vs_to_Am_M_A/Vsm_=_65563218390.804596
# pendiente_HvsI_1/m_=_3716.3
# ordenada_HvsI_A/m_=_1297.0
# frecuencia_Hz_=_302571.7526707703

Tiempo_(s)	Campo_(V.s)	Magnetizacion_(V.s)	Campo_(kA/m)	Magnetizacion_(A/m)
0.000000e+00	-7.921182e-06	-5.633008e-09	-5.685405e+01	-3.693029e+02
1.000000e-08	-7.918101e-06	-5.630861e-09	-5.683194e+01	-3.690773e+02
2.000000e-08	-7.912360e-06	-5.626909e-09	-5.679073e+01	-3.688039e+02
3.000000e-08	-7.904076e-06	-5.624099e-09	-5.673128e+01	-3.685019e+02
4.000000e-08	-7.893066e-06	-5.618844e-09	-5.665225e+01	-3.681886e+02
5.000000e-08	-7.879051e-06	-5.611353e-09	-5.655166e+01	-3.678770e+02
6.000000e-08	-7.862092e-06	-5.601806e-09	-5.642994e+01	-3.675733e+02
7.000000e-08	-7.842723e-06	-5.592723e-09	-5.629091e+01	-3.672756e+02
8.000000e-08	-7.821096e-06	-5.603595e-09	-5.613569e+01	-3.669738e+02
9.000000e-08	-7.796680e-06	-5.625125e-09	-5.596044e+01	-3.666504e+02
1.000000e-07	-7.769008e-06	-5.625724e-09	-5.576183e+01	-3.662828e+02
1.100000e-07	-7.738323e-06	-5.604099e-09	-5.554159e+01	-3.658453e+02
1.200000e-07	-7.704804e-06	-5.568923e-09	-5.530101e+01	-3.653131e+02
1.300000e-07	-7.668607e-06	-5.514345e-09	-5.504120e+01	-3.646647e+02
1.400000e-07	-7.630146e-06	-5.457400e-09	-5.476515e+01	-3.638853e+02
1.500000e-07	-7.589664e-06	-5.502590e-09	-5.447459e+01	-3.629679e+02
1.600000e-07	-7.546823e-06	-5.576939e-09	-5.416710e+01	-3.619149e+02
1.700000e-07	-7.501173e-06	-5.549942e-09	-5.383945e+01	-3.607371e+02
1.800000e-07	-7.452854e-06	-5.549142e-09	-5.349264e+01	-3.594525e+02
1.900000e-07	-7.401540e-06	-5.487597e-09	-5.312433e+01	-3.580839e+02
2.000000e-07	-7.347220e-06	-5.406076e-09	-5.273446e+01	-3.566560e+02
2.100000e-07	-7.290229e-06	-5.395938e-09	-5.232540e+01	-3.551924e+02
2.200000e-07	-7.230544e-06	-5.398144e-09	-5.189702e+01	-3.537124e+02
2.300000e-07	-7.168339e-06	-5.407905e-09	-5.145054e+01	-3.522295e+02
2.400000e-07	-7.103455e-06	-5.362732e-09	-5.098484e+01	-3.507496e+02
2.500000e-07	-7.035796e-06	-5.337320e-09	-5.049922e+01	-3.492711e+02
2.600000e-07	-6.965530e-06	-5.341104e-09	-4.999489e+01	-3.477854e+02
2.700000e-07	-6.892508e-06	-5.337409e-09	-4.947077e+01	-3.462786e+02
2.800000e-07	-6.816723e-06	-5.298916e-09	-4.892683e+01	-3.447340e+02
2.900000e-07	-6.738149e-06	-5.273394e-09	-4.836287e+01	-3.431338e+02
3.000000e-07	-6.656813e-06	-5.265680e-09	-4.777908e+01	-3.414619e+02
3.100000e-07	-6.573202e-06	-5.218214e-09	-4.717897e+01	-3.397056e+02
3.200000e-07	-6.487433e-06	-5.184742e-09	-4.656336e+01	-3.378568e+02
3.300000e-07	-6.399376e-06	-5.162005e-09	-4.593133e+01	-3.359122e+02
3.400000e-07	-6.308951e-06	-5.104271e-09	-4.528231e+01	-3.338729e+02
3.500000e-07	-6.216261e-06	-5.048659e-09	-4.461703e+01	-3.317438e+02
3.600000e-07	-6.121411e-06	-5.036729e-09	-4.393625e+01	-3.295314e+02
3.700000e-07	-6.024226e-06	-5.025830e-09	-4.323871e+01	-3.272431e+02
3.800000e-07	-5.924746e-06	-4.989945e-09	-4.252469e+01	-3.248849e+02
3.900000e-07	-5.823189e-06	-4.956050e-09	-4.179577e+01	-3.224606e+02
4.000000e-07	-5.719621e-06	-4.908737e-09	-4.105241e+01	-3.199714e+02
4.100000e-07	-5.614041e-06	-4.843455e-09	-4.029461e+01	-3.174153e+02
4.200000e-07	-5.506474e-06	-4.801186e-09	-3.952256e+01	-3.147880e+02
4.300000e-07	-5.397021e-06	-4.792155e-09	-3.873696e+01	-3.120835e+02
4.400000e-07	-5.285647e-06	-4.759726e-09	-3.793758e+01	-3.092952e+02
4.500000e-07	-5.172123e-06	-4.697340e-09	-3.712276e+01	-3.064169e+02
4.600000e-07	-5.056501e-06	-4.640210e-09	-3.629289e+01	-3.034439e+02
4.700000e-07	-4.939029e-06	-4.591806e-09	-3.544973e+01	-3.003731e+02
4.800000e-07	-4.819811e-06	-4.538487e-09	-3.459405e+01	-2.972031e+02
4.900000e-07	-4.698889e-06	-4.490683e-09	-3.372614e+01	-2.939342e+02
5.000000e-07	-4.576177e-06	-4.447812e-09	-3.284538e+01	-2.905673e+02
5.100000e-07	-4.451728e-06	-4.387468e-09	-3.195214e+01	-2.871030e+02
5.200000e-07	-4.325702e-06	-4.326915e-09	-3.104760e+01	-2.835412e+02
5.300000e-07	-4.198100e-06	-4.283116e-09	-3.013174e+01	-2.798798e+02
5.400000e-07	-4.069076e-06	-4.232679e-09	-2.920567e+01	-2.761149e+02
5.500000e-07	-3.938479e-06	-4.160193e-09	-2.826831e+01	-2.722404e+02
5.600000e-07	-3.806288e-06	-4.095500e-09	-2.731952e+01	-2.682487e+02
5.700000e-07	-3.672739e-06	-4.037453e-09	-2.636098e+01	-2.641315e+02
5.800000e-07	-3.537811e-06	-3.962851e-09	-2.539254e+01	-2.598807e+02
5.900000e-07	-3.401579e-06	-3.884001e-09	-2.441473e+01	-2.554890e+02
6.000000e-07	-3.264087e-06	-3.819451e-09	-2.342789e+01	-2.509512e+02
6.100000e-07	-3.125153e-06	-3.752412e-09	-2.243069e+01	-2.462641e+02
6.200000e-07	-2.984796e-06	-3.671213e-09	-2.142328e+01	-2.414263e+02
6.300000e-07	-2.843242e-06	-3.599069e-09	-2.040729e+01	-2.364382e+02
6.400000e-07	-2.700631e-06	-3.536505e-09	-1.938370e+01	-2.313003e+02
6.500000e-07	-2.556939e-06	-3.460249e-09	-1.835236e+01	-2.260123e+02
6.600000e-07	-2.412169e-06	-3.367974e-09	-1.731327e+01	-2.205719e+02
6.700000e-07	-2.266533e-06	-3.275839e-09	-1.626797e+01	-2.149739e+02
6.800000e-07	-2.120202e-06	-3.183817e-09	-1.521769e+01	-2.092095e+02
6.900000e-07	-1.973191e-06	-3.086658e-09	-1.416252e+01	-2.032660e+02
7.000000e-07	-1.825532e-06	-2.990782e-09	-1.310270e+01	-1.971279e+02
7.100000e-07	-1.677365e-06	-2.896313e-09	-1.203924e+01	-1.907780e+02
7.200000e-07	-1.528761e-06	-2.794736e-09	-1.097263e+01	-1.841984e+02
7.300000e-07	-1.379708e-06	-2.686261e-09	-9.902814e+00	-1.773726e+02
7.400000e-07	-1.230186e-06	-2.578491e-09	-8.829623e+00	-1.702868e+02
7.500000e-07	-1.080215e-06	-2.470258e-09	-7.753215e+00	-1.629307e+02
7.600000e-07	-9.299344e-07	-2.360098e-09	-6.674577e+00	-1.552978e+02
7.700000e-07	-7.794050e-07	-2.242088e-09	-5.594157e+00	-1.473847e+02
7.800000e-07	-6.285421e-07	-2.114575e-09	-4.511343e+00	-1.391900e+02
7.900000e-07	-4.773706e-07	-1.980391e-09	-3.426314e+00	-1.307117e+02
8.000000e-07	-3.260335e-07	-1.841518e-09	-2.340096e+00	-1.219451e+02
8.100000e-07	-1.745936e-07	-1.700740e-09	-1.253140e+00	-1.128803e+02
8.200000e-07	-2.307236e-08	-1.555933e-09	-1.656012e-01	-1.035003e+02
8.300000e-07	1.285383e-07	-1.406679e-09	9.225797e-01	-9.378041e+01
8.400000e-07	2.801822e-07	-1.250957e-09	2.010999e+00	-8.368811e+01
8.500000e-07	4.317362e-07	-1.088796e-09	3.098774e+00	-7.318540e+01
8.600000e-07	5.831311e-07	-9.199715e-10	4.185407e+00	-6.223194e+01
8.700000e-07	7.343264e-07	-7.458447e-10	5.270606e+00	-5.078973e+01
8.800000e-07	8.853210e-07	-5.664575e-10	6.354366e+00	-3.882852e+01
8.900000e-07	1.036066e-06	-3.781877e-10	7.436336e+00	-2.633154e+01
9.000000e-07	1.186463e-06	-1.819169e-10	8.515806e+00	-1.330074e+01
9.100000e-07	1.336401e-06	1.981081e-11	9.591976e+00	2.389726e-01
9.200000e-07	1.485845e-06	2.293393e-10	1.066461e+01	1.423733e+01
9.300000e-07	1.634790e-06	4.483124e-10	1.173366e+01	2.861830e+01
9.400000e-07	1.783214e-06	6.728218e-10	1.279897e+01	4.328204e+01
9.500000e-07	1.931021e-06	8.994484e-10	1.385985e+01	5.810918e+01
9.600000e-07	2.078176e-06	1.128154e-09	1.491605e+01	7.296692e+01
9.700000e-07	2.224580e-06	1.355783e-09	1.596686e+01	8.771657e+01
9.800000e-07	2.370079e-06	1.576242e-09	1.701117e+01	1.022217e+02
9.900000e-07	2.514631e-06	1.788910e-09	1.804869e+01	1.163562e+02
1.000000e-06	2.658241e-06	1.994585e-09	1.907944e+01	1.300110e+02
1.010000e-06	2.800816e-06	2.193283e-09	2.010277e+01	1.430999e+02
1.020000e-06	2.942283e-06	2.380279e-09	2.111815e+01	1.555624e+02
1.030000e-06	3.082596e-06	2.554087e-09	2.212524e+01	1.673650e+02
1.040000e-06	3.221580e-06	2.720521e-09	2.312280e+01	1.784996e+02
1.050000e-06	3.359183e-06	2.878877e-09	2.411044e+01	1.889801e+02
1.060000e-06	3.495532e-06	3.030395e-09	2.508908e+01	1.988377e+02
1.070000e-06	3.630583e-06	3.172784e-09	2.605840e+01	2.081153e+02
1.080000e-06	3.764287e-06	3.309147e-09	2.701806e+01	2.168616e+02
1.090000e-06	3.896714e-06	3.439016e-09	2.796855e+01	2.251260e+02
1.100000e-06	4.027745e-06	3.562419e-09	2.890902e+01	2.329541e+02
1.110000e-06	4.157260e-06	3.681362e-09	2.983861e+01	2.403856e+02
1.120000e-06	4.285335e-06	3.790495e-09	3.075786e+01	2.474523e+02
1.130000e-06	4.411967e-06	3.889364e-09	3.166676e+01	2.541787e+02
1.140000e-06	4.537144e-06	3.980262e-09	3.256522e+01	2.605835e+02
1.150000e-06	4.660779e-06	4.069785e-09	3.345261e+01	2.666810e+02
1.160000e-06	4.782697e-06	4.157957e-09	3.432767e+01	2.724841e+02
1.170000e-06	4.902962e-06	4.242074e-09	3.519087e+01	2.780057e+02
1.180000e-06	5.021500e-06	4.321206e-09	3.604167e+01	2.832605e+02
1.190000e-06	5.138116e-06	4.397950e-09	3.687867e+01	2.882656e+02
1.200000e-06	5.252706e-06	4.474352e-09	3.770115e+01	2.930400e+02
1.210000e-06	5.365288e-06	4.548036e-09	3.850920e+01	2.976037e+02
1.220000e-06	5.475920e-06	4.615475e-09	3.930325e+01	3.019761e+02
1.230000e-06	5.584661e-06	4.675572e-09	4.008374e+01	3.061740e+02
1.240000e-06	5.691413e-06	4.731455e-09	4.084995e+01	3.102102e+02
1.250000e-06	5.796072e-06	4.787580e-09	4.160113e+01	3.140922e+02
1.260000e-06	5.898637e-06	4.843957e-09	4.233729e+01	3.178218e+02
1.270000e-06	5.998967e-06	4.897546e-09	4.305741e+01	3.213957e+02
1.280000e-06	6.097034e-06	4.946569e-09	4.376128e+01	3.248068e+02
1.290000e-06	6.192818e-06	4.993566e-09	4.444877e+01	3.280459e+02
1.300000e-06	6.286387e-06	5.040840e-09	4.512036e+01	3.311042e+02
1.310000e-06	6.377734e-06	5.086471e-09	4.577600e+01	3.339754e+02
1.320000e-06	6.466780e-06	5.127517e-09	4.641512e+01	3.366578e+02
1.330000e-06	6.553578e-06	5.163474e-09	4.703811e+01	3.391554e+02
1.340000e-06	6.638089e-06	5.196338e-09	4.764469e+01	3.414781e+02
1.350000e-06	6.720189e-06	5.228042e-09	4.823396e+01	3.436414e+02
1.360000e-06	6.799845e-06	5.259491e-09	4.880569e+01	3.456646e+02
1.370000e-06	6.876963e-06	5.290473e-09	4.935920e+01	3.475688e+02
1.380000e-06	6.951409e-06	5.318578e-09	4.989354e+01	3.493748e+02
1.390000e-06	7.023278e-06	5.345438e-09	5.040938e+01	3.511005e+02
1.400000e-06	7.092716e-06	5.372951e-09	5.090776e+01	3.527590e+02
1.410000e-06	7.159673e-06	5.399571e-09	5.138834e+01	3.543575e+02
1.420000e-06	7.224007e-06	5.423510e-09	5.185010e+01	3.558972e+02
1.430000e-06	7.285840e-06	5.443579e-09	5.229390e+01	3.573735e+02
1.440000e-06	7.345231e-06	5.462591e-09	5.272018e+01	3.587780e+02
1.450000e-06	7.402047e-06	5.481949e-09	5.312798e+01	3.601001e+02
1.460000e-06	7.456107e-06	5.499001e-09	5.351599e+01	3.613298e+02
1.470000e-06	7.507129e-06	5.513109e-09	5.388220e+01	3.624591e+02
1.480000e-06	7.555116e-06	5.527536e-09	5.422662e+01	3.634843e+02
1.490000e-06	7.600425e-06	5.542410e-09	5.455183e+01	3.644067e+02
1.500000e-06	7.643133e-06	5.555114e-09	5.485836e+01	3.652327e+02
1.510000e-06	7.683018e-06	5.568826e-09	5.514464e+01	3.659728e+02
1.520000e-06	7.720155e-06	5.583753e-09	5.541118e+01	3.666403e+02
1.530000e-06	7.754669e-06	5.595841e-09	5.565891e+01	3.672490e+02
1.540000e-06	7.786420e-06	5.603733e-09	5.588681e+01	3.678110e+02
1.550000e-06	7.815401e-06	5.609073e-09	5.609481e+01	3.683350e+02
1.560000e-06	7.841568e-06	5.615302e-09	5.628262e+01	3.688249e+02
1.570000e-06	7.864803e-06	5.622639e-09	5.644940e+01	3.692788e+02
1.580000e-06	7.885313e-06	5.629686e-09	5.659660e+01	3.696900e+02
1.590000e-06	7.903098e-06	5.635121e-09	5.672426e+01	3.700477e+02
1.600000e-06	7.917891e-06	5.639858e-09	5.683043e+01	3.703394e+02
1.610000e-06	7.929602e-06	5.644899e-09	5.691448e+01	3.705528e+02
1.620000e-06	7.938283e-06	5.647077e-09	5.697680e+01	3.706784e+02
1.630000e-06	7.944122e-06	5.647803e-09	5.701870e+01	3.707117e+02
1.640000e-06	7.947155e-06	5.648890e-09	5.704047e+01	3.706538e+02
1.650000e-06	7.947298e-06	5.647180e-09	5.704150e+01	3.705124e+02
1.660000e-06	7.944792e-06	5.643941e-09	5.702351e+01	3.703011e+02
1.670000e-06	7.939699e-06	5.640095e-09	5.698696e+01	3.700373e+02
1.680000e-06	7.931892e-06	5.636103e-09	5.693092e+01	3.697402e+02
1.690000e-06	7.921429e-06	5.632198e-09	5.685582e+01	3.694278e+02
1.700000e-06	7.908130e-06	5.629836e-09	5.676038e+01	3.691143e+02
1.710000e-06	7.892168e-06	5.632395e-09	5.664581e+01	3.688079e+02
1.720000e-06	7.873934e-06	5.632755e-09	5.651493e+01	3.685088e+02
1.730000e-06	7.853375e-06	5.594414e-09	5.636737e+01	3.682088e+02
1.740000e-06	7.829933e-06	5.560866e-09	5.619912e+01	3.678923e+02
1.750000e-06	7.803011e-06	5.561014e-09	5.600589e+01	3.675375e+02
1.760000e-06	7.772498e-06	5.565782e-09	5.578688e+01	3.671194e+02
1.770000e-06	7.739017e-06	5.580821e-09	5.554657e+01	3.666125e+02
1.780000e-06	7.703306e-06	5.642210e-09	5.529025e+01	3.659943e+02
1.790000e-06	7.665337e-06	5.634118e-09	5.501774e+01	3.652481e+02
1.800000e-06	7.625305e-06	5.556665e-09	5.473041e+01	3.643648e+02
1.810000e-06	7.583054e-06	5.535781e-09	5.442715e+01	3.633445e+02
1.820000e-06	7.538074e-06	5.468692e-09	5.410430e+01	3.621959e+02
1.830000e-06	7.490454e-06	5.489111e-09	5.376252e+01	3.609354e+02
1.840000e-06	7.439985e-06	5.515959e-09	5.340027e+01	3.595850e+02
1.850000e-06	7.386544e-06	5.491697e-09	5.301671e+01	3.581691e+02
1.860000e-06	7.330322e-06	5.477744e-09	5.261318e+01	3.567118e+02
1.870000e-06	7.271470e-06	5.368454e-09	5.219076e+01	3.552338e+02
1.880000e-06	7.210001e-06	5.335235e-09	5.174957e+01	3.537502e+02
1.890000e-06	7.145731e-06	5.338484e-09	5.128827e+01	3.522689e+02
1.900000e-06	7.078792e-06	5.325605e-09	5.080782e+01	3.507900e+02
1.910000e-06	7.009051e-06	5.332011e-09	5.030726e+01	3.493067e+02
1.920000e-06	6.936478e-06	5.285861e-09	4.978637e+01	3.478062e+02
1.930000e-06	6.861332e-06	5.229885e-09	4.924701e+01	3.462722e+02
1.940000e-06	6.783372e-06	5.200010e-09	4.868745e+01	3.446869e+02
1.950000e-06	6.702778e-06	5.211749e-09	4.810899e+01	3.430337e+02
1.960000e-06	6.619921e-06	5.200099e-09	4.751429e+01	3.412990e+02
1.970000e-06	6.534659e-06	5.139800e-09	4.690232e+01	3.394733e+02
1.980000e-06	6.446791e-06	5.116416e-09	4.627165e+01	3.375521e+02
1.990000e-06	6.356612e-06	5.098600e-09	4.562440e+01	3.355356e+02
2.000000e-06	6.264386e-06	5.065195e-09	4.496245e+01	3.334278e+02
2.010000e-06	6.169794e-06	5.035910e-09	4.428352e+01	3.312350e+02
2.020000e-06	6.072896e-06	5.006204e-09	4.358803e+01	3.289645e+02
2.030000e-06	5.973937e-06	4.952046e-09	4.287776e+01	3.266228e+02
2.040000e-06	5.872949e-06	4.903845e-09	4.215292e+01	3.242143e+02
2.050000e-06	5.769804e-06	4.908392e-09	4.141260e+01	3.217408e+02
2.060000e-06	5.664602e-06	4.898473e-09	4.065752e+01	3.192012e+02
2.070000e-06	5.557550e-06	4.830059e-09	3.988916e+01	3.165917e+02
2.080000e-06	5.448597e-06	4.754866e-09	3.910715e+01	3.139065e+02
2.090000e-06	5.337666e-06	4.706357e-09	3.831094e+01	3.111392e+02
2.100000e-06	5.224704e-06	4.670832e-09	3.750016e+01	3.082834e+02
2.110000e-06	5.109789e-06	4.646950e-09	3.667536e+01	3.053339e+02
2.120000e-06	4.992813e-06	4.631056e-09	3.583577e+01	3.022872e+02
2.130000e-06	4.873766e-06	4.577283e-09	3.498131e+01	2.991415e+02
2.140000e-06	4.752875e-06	4.493082e-09	3.411362e+01	2.958967e+02
2.150000e-06	4.630328e-06	4.432788e-09	3.323404e+01	2.925536e+02
2.160000e-06	4.506195e-06	4.405184e-09	3.234308e+01	2.891131e+02
2.170000e-06	4.380431e-06	4.365460e-09	3.144042e+01	2.855753e+02
2.180000e-06	4.252986e-06	4.301774e-09	3.052568e+01	2.819385e+02
2.190000e-06	4.123960e-06	4.237528e-09	2.959960e+01	2.781994e+02
2.200000e-06	3.993462e-06	4.169991e-09	2.866295e+01	2.743524e+02
2.210000e-06	3.861561e-06	4.108864e-09	2.771624e+01	2.703903e+02
2.220000e-06	3.728304e-06	4.066746e-09	2.675979e+01	2.663047e+02
2.230000e-06	3.593480e-06	4.023642e-09	2.579210e+01	2.620874e+02
2.240000e-06	3.457175e-06	3.948110e-09	2.481377e+01	2.577310e+02
2.250000e-06	3.319630e-06	3.864136e-09	2.382655e+01	2.532296e+02
2.260000e-06	3.180916e-06	3.799402e-09	2.283093e+01	2.485794e+02
2.270000e-06	3.041012e-06	3.735616e-09	2.182678e+01	2.437788e+02
2.280000e-06	2.899910e-06	3.653844e-09	2.081402e+01	2.388277e+02
2.290000e-06	2.757556e-06	3.565374e-09	1.979228e+01	2.337267e+02
2.300000e-06	2.614068e-06	3.481937e-09	1.876240e+01	2.284757e+02
2.310000e-06	2.469708e-06	3.401180e-09	1.772625e+01	2.230733e+02
2.320000e-06	2.324610e-06	3.328800e-09	1.668482e+01	2.175149e+02
2.330000e-06	2.178738e-06	3.261467e-09	1.563783e+01	2.117925e+02
2.340000e-06	2.032036e-06	3.174526e-09	1.458488e+01	2.058945e+02
2.350000e-06	1.884636e-06	3.064576e-09	1.352692e+01	1.998062e+02
2.360000e-06	1.736754e-06	2.958539e-09	1.246550e+01	1.935104e+02
2.370000e-06	1.588471e-06	2.867364e-09	1.140121e+01	1.869893e+02
2.380000e-06	1.439707e-06	2.776384e-09	1.033346e+01	1.802259e+02
2.390000e-06	1.290495e-06	2.671068e-09	9.262487e+00	1.732057e+02
2.400000e-06	1.140867e-06	2.552551e-09	8.188542e+00	1.659173e+02
2.410000e-06	9.907870e-07	2.428802e-09	7.111345e+00	1.583535e+02
2.420000e-06	8.402350e-07	2.308461e-09	6.030762e+00	1.505101e+02
2.430000e-06	6.893354e-07	2.196579e-09	4.947685e+00	1.423854e+02
2.440000e-06	5.381660e-07	2.082312e-09	3.862671e+00	1.339777e+02
2.450000e-06	3.867626e-07	1.953446e-09	2.775977e+00	1.252833e+02
2.460000e-06	2.351545e-07	1.810373e-09	1.687814e+00	1.162938e+02
2.470000e-06	8.339591e-08	1.662736e-09	5.985717e-01	1.069941e+02
2.480000e-06	-6.842405e-08	1.515685e-09	-4.911116e-01	9.736141e+01
2.490000e-06	-2.202163e-07	1.364972e-09	-1.580596e+00	8.736504e+01
2.500000e-06	-3.718585e-07	1.206767e-09	-2.669004e+00	7.696815e+01
2.510000e-06	-5.233715e-07	1.039847e-09	-3.756484e+00	6.613058e+01
2.520000e-06	-6.747262e-07	8.664319e-10	-4.842828e+00	5.481325e+01
2.530000e-06	-8.258366e-07	6.903032e-10	-5.927418e+00	4.298344e+01
2.540000e-06	-9.766309e-07	5.080744e-10	-7.009740e+00	3.062048e+01
2.550000e-06	-1.127006e-06	3.129413e-10	-8.089052e+00	1.772122e+01
2.560000e-06	-1.276907e-06	1.037952e-10	-9.164960e+00	4.304487e+00
2.570000e-06	-1.426341e-06	-1.122569e-10	-1.023752e+01	-9.585895e+00
2.580000e-06	-1.575308e-06	-3.308621e-10	-1.130672e+01	-2.388024e+01
2.590000e-06	-1.723747e-06	-5.544569e-10	-1.237214e+01	-3.848435e+01
2.600000e-06	-1.871588e-06	-7.842577e-10	-1.343327e+01	-5.328323e+01
2.610000e-06	-2.018723e-06	-1.016732e-09	-1.448932e+01	-6.814678e+01
2.620000e-06	-2.165076e-06	-1.248337e-09	-1.553977e+01	-8.293702e+01
2.630000e-06	-2.310625e-06	-1.474354e-09	-1.658445e+01	-9.751619e+01
2.640000e-06	-2.455334e-06	-1.690787e-09	-1.762309e+01	-1.117549e+02
2.650000e-06	-2.599146e-06	-1.899007e-09	-1.865529e+01	-1.255392e+02
2.660000e-06	-2.741930e-06	-2.100855e-09	-1.968012e+01	-1.387768e+02
2.670000e-06	-2.883484e-06	-2.295729e-09	-2.069612e+01	-1.514006e+02
2.680000e-06	-3.023864e-06	-2.479031e-09	-2.170370e+01	-1.633705e+02
2.690000e-06	-3.163118e-06	-2.649490e-09	-2.270319e+01	-1.746721e+02
2.700000e-06	-3.301133e-06	-2.809742e-09	-2.369379e+01	-1.853143e+02
2.710000e-06	-3.437971e-06	-2.961184e-09	-2.467594e+01	-1.953245e+02
2.720000e-06	-3.573544e-06	-3.105042e-09	-2.564900e+01	-2.047433e+02
2.730000e-06	-3.707669e-06	-3.243397e-09	-2.661168e+01	-2.136183e+02
2.740000e-06	-3.840423e-06	-3.375988e-09	-2.756452e+01	-2.219992e+02
2.750000e-06	-3.971896e-06	-3.499579e-09	-2.850817e+01	-2.299329e+02
2.760000e-06	-4.102011e-06	-3.615037e-09	-2.944207e+01	-2.374608e+02
2.770000e-06	-4.230751e-06	-3.724932e-09	-3.036609e+01	-2.446167e+02
2.780000e-06	-4.357989e-06	-3.828850e-09	-3.127934e+01	-2.514268e+02
2.790000e-06	-4.483577e-06	-3.924387e-09	-3.218074e+01	-2.579110e+02
2.800000e-06	-4.607704e-06	-4.013437e-09	-3.307166e+01	-2.640847e+02
2.810000e-06	-4.730255e-06	-4.099345e-09	-3.395127e+01	-2.699608e+02
2.820000e-06	-4.851070e-06	-4.184312e-09	-3.481841e+01	-2.755520e+02
2.830000e-06	-4.970061e-06	-4.269170e-09	-3.567247e+01	-2.808725e+02
2.840000e-06	-5.087117e-06	-4.350447e-09	-3.651263e+01	-2.859389e+02
2.850000e-06	-5.202189e-06	-4.425711e-09	-3.733856e+01	-2.907696e+02
2.860000e-06	-5.315048e-06	-4.494937e-09	-3.814860e+01	-2.953847e+02
2.870000e-06	-5.425760e-06	-4.562924e-09	-3.894323e+01	-2.998037e+02
2.880000e-06	-5.534549e-06	-4.632079e-09	-3.972406e+01	-3.040444e+02
2.890000e-06	-5.641458e-06	-4.699721e-09	-4.049140e+01	-3.081207e+02
2.900000e-06	-5.746367e-06	-4.763431e-09	-4.124438e+01	-3.120413e+02
2.910000e-06	-5.849128e-06	-4.821291e-09	-4.198195e+01	-3.158097e+02
2.920000e-06	-5.949722e-06	-4.875324e-09	-4.270396e+01	-3.194237e+02
2.930000e-06	-6.048198e-06	-4.928590e-09	-4.341076e+01	-3.228769e+02
2.940000e-06	-6.144579e-06	-4.980373e-09	-4.410254e+01	-3.261604e+02
