# Temperatura_=_32.44
# Concentracion g/m^3_=_5000.0
# C_Vs_to_Am_M_A/Vsm_=_65563218390.804596
# pendiente_HvsI_1/m_=_3716.3
# ordenada_HvsI_A/m_=_1297.0
# frecuencia_Hz_=_302564.6253087297

Tiempo_(s)	Campo_(V.s)	Magnetizacion_(V.s)	Campo_(kA/m)	Magnetizacion_(A/m)
0.000000e+00	-7.963204e-06	-6.073001e-09	-5.685105e+01	-3.969645e+02
1.000000e-08	-7.959479e-06	-6.071685e-09	-5.682446e+01	-3.967416e+02
2.000000e-08	-7.953165e-06	-6.064678e-09	-5.677938e+01	-3.964284e+02
3.000000e-08	-7.944147e-06	-6.063410e-09	-5.671500e+01	-3.960439e+02
4.000000e-08	-7.932275e-06	-6.061186e-09	-5.663024e+01	-3.956115e+02
5.000000e-08	-7.917469e-06	-6.052477e-09	-5.652454e+01	-3.951562e+02
6.000000e-08	-7.899898e-06	-6.037696e-09	-5.639910e+01	-3.947011e+02
7.000000e-08	-7.880043e-06	-6.013187e-09	-5.625735e+01	-3.942650e+02
8.000000e-08	-7.857767e-06	-6.051704e-09	-5.609831e+01	-3.938596e+02
9.000000e-08	-7.832366e-06	-6.128269e-09	-5.591697e+01	-3.934878e+02
1.000000e-07	-7.803663e-06	-6.070667e-09	-5.571206e+01	-3.931432e+02
1.100000e-07	-7.772143e-06	-6.017619e-09	-5.548702e+01	-3.928110e+02
1.200000e-07	-7.737873e-06	-6.002384e-09	-5.524236e+01	-3.924690e+02
1.300000e-07	-7.700971e-06	-5.947238e-09	-5.497892e+01	-3.920905e+02
1.400000e-07	-7.661918e-06	-5.859384e-09	-5.470010e+01	-3.916474e+02
1.500000e-07	-7.620728e-06	-5.903865e-09	-5.440604e+01	-3.911125e+02
1.600000e-07	-7.577002e-06	-6.095265e-09	-5.409387e+01	-3.904632e+02
1.700000e-07	-7.530554e-06	-5.917462e-09	-5.376227e+01	-3.896829e+02
1.800000e-07	-7.481319e-06	-5.945521e-09	-5.341077e+01	-3.887630e+02
1.900000e-07	-7.429025e-06	-5.958707e-09	-5.303743e+01	-3.877027e+02
2.000000e-07	-7.373843e-06	-5.792670e-09	-5.264347e+01	-3.865088e+02
2.100000e-07	-7.315948e-06	-5.860567e-09	-5.223015e+01	-3.851941e+02
2.200000e-07	-7.255361e-06	-5.823806e-09	-5.179760e+01	-3.837752e+02
2.300000e-07	-7.192221e-06	-5.845684e-09	-5.134683e+01	-3.822706e+02
2.400000e-07	-7.126307e-06	-5.761962e-09	-5.087626e+01	-3.806978e+02
2.500000e-07	-7.057657e-06	-5.729136e-09	-5.038615e+01	-3.790719e+02
2.600000e-07	-6.986396e-06	-5.779110e-09	-4.987740e+01	-3.774037e+02
2.700000e-07	-6.912294e-06	-5.755286e-09	-4.934838e+01	-3.756988e+02
2.800000e-07	-6.835443e-06	-5.708793e-09	-4.879972e+01	-3.739579e+02
2.900000e-07	-6.755788e-06	-5.652287e-09	-4.823104e+01	-3.721771e+02
3.000000e-07	-6.673500e-06	-5.679916e-09	-4.764357e+01	-3.703490e+02
3.100000e-07	-6.589018e-06	-5.633047e-09	-4.704044e+01	-3.684639e+02
3.200000e-07	-6.502313e-06	-5.572036e-09	-4.642143e+01	-3.665113e+02
3.300000e-07	-6.413295e-06	-5.579897e-09	-4.578592e+01	-3.644816e+02
3.400000e-07	-6.321906e-06	-5.514913e-09	-4.513347e+01	-3.623666e+02
3.500000e-07	-6.228235e-06	-5.453137e-09	-4.446473e+01	-3.601603e+02
3.600000e-07	-6.132305e-06	-5.423939e-09	-4.377987e+01	-3.578596e+02
3.700000e-07	-6.034039e-06	-5.433477e-09	-4.307832e+01	-3.554633e+02
3.800000e-07	-5.933613e-06	-5.409982e-09	-4.236136e+01	-3.529725e+02
3.900000e-07	-5.831125e-06	-5.353368e-09	-4.162967e+01	-3.503892e+02
4.000000e-07	-5.726541e-06	-5.299348e-09	-4.088303e+01	-3.477161e+02
4.100000e-07	-5.619908e-06	-5.239635e-09	-4.012175e+01	-3.449555e+02
4.200000e-07	-5.511320e-06	-5.211780e-09	-3.934652e+01	-3.421089e+02
4.300000e-07	-5.400820e-06	-5.173348e-09	-3.855763e+01	-3.391769e+02
4.400000e-07	-5.288314e-06	-5.131920e-09	-3.775443e+01	-3.361584e+02
4.500000e-07	-5.173686e-06	-5.079464e-09	-3.693608e+01	-3.330512e+02
4.600000e-07	-5.057061e-06	-5.023743e-09	-3.610347e+01	-3.298521e+02
4.700000e-07	-4.938639e-06	-4.965345e-09	-3.525802e+01	-3.265567e+02
4.800000e-07	-4.818395e-06	-4.912217e-09	-3.439957e+01	-3.231603e+02
4.900000e-07	-4.696340e-06	-4.872110e-09	-3.352819e+01	-3.196577e+02
5.000000e-07	-4.572523e-06	-4.816031e-09	-3.264424e+01	-3.160436e+02
5.100000e-07	-4.447093e-06	-4.747660e-09	-3.174877e+01	-3.123127e+02
5.200000e-07	-4.320087e-06	-4.692832e-09	-3.084205e+01	-3.084598e+02
5.300000e-07	-4.191512e-06	-4.652286e-09	-2.992412e+01	-3.044800e+02
5.400000e-07	-4.061414e-06	-4.584562e-09	-2.899532e+01	-3.003686e+02
5.500000e-07	-3.929706e-06	-4.499268e-09	-2.805503e+01	-2.961216e+02
5.600000e-07	-3.796527e-06	-4.433806e-09	-2.710424e+01	-2.917354e+02
5.700000e-07	-3.661927e-06	-4.368610e-09	-2.614329e+01	-2.872073e+02
5.800000e-07	-3.525901e-06	-4.286346e-09	-2.517217e+01	-2.825353e+02
5.900000e-07	-3.388603e-06	-4.205609e-09	-2.419197e+01	-2.777183e+02
6.000000e-07	-3.249970e-06	-4.142314e-09	-2.320225e+01	-2.727556e+02
6.100000e-07	-3.109890e-06	-4.064661e-09	-2.220218e+01	-2.676468e+02
6.200000e-07	-2.968462e-06	-3.972765e-09	-2.119250e+01	-2.623910e+02
6.300000e-07	-2.825789e-06	-3.896137e-09	-2.017393e+01	-2.569867e+02
6.400000e-07	-2.682005e-06	-3.828741e-09	-1.914742e+01	-2.514305e+02
6.500000e-07	-2.537224e-06	-3.745669e-09	-1.811380e+01	-2.457166e+02
6.600000e-07	-2.391544e-06	-3.645160e-09	-1.707375e+01	-2.398367e+02
6.700000e-07	-2.245101e-06	-3.548137e-09	-1.602827e+01	-2.337798e+02
6.800000e-07	-2.097947e-06	-3.448618e-09	-1.497770e+01	-2.275319e+02
6.900000e-07	-1.950132e-06	-3.343554e-09	-1.392242e+01	-2.210773e+02
7.000000e-07	-1.801715e-06	-3.237646e-09	-1.286284e+01	-2.143990e+02
7.100000e-07	-1.652759e-06	-3.135619e-09	-1.179941e+01	-2.074802e+02
7.200000e-07	-1.503338e-06	-3.029546e-09	-1.073266e+01	-2.003054e+02
7.300000e-07	-1.353450e-06	-2.915412e-09	-9.662578e+00	-1.928617e+02
7.400000e-07	-1.203086e-06	-2.797394e-09	-8.589092e+00	-1.851394e+02
7.500000e-07	-1.052260e-06	-2.678472e-09	-7.512313e+00	-1.771322e+02
7.600000e-07	-9.009716e-07	-2.557929e-09	-6.432233e+00	-1.688373e+02
7.700000e-07	-7.493542e-07	-2.426218e-09	-5.349803e+00	-1.602539e+02
7.800000e-07	-5.975354e-07	-2.289969e-09	-4.265936e+00	-1.513816e+02
7.900000e-07	-4.455511e-07	-2.150009e-09	-3.180887e+00	-1.422187e+02
8.000000e-07	-2.934033e-07	-2.004929e-09	-2.094670e+00	-1.327594e+02
8.100000e-07	-1.410916e-07	-1.850495e-09	-1.007284e+00	-1.229925e+02
8.200000e-07	1.132592e-08	-1.690393e-09	8.085824e-02	-1.128996e+02
8.300000e-07	1.638010e-07	-1.528886e-09	1.169411e+00	-1.024547e+02
8.400000e-07	3.162278e-07	-1.361626e-09	2.257619e+00	-9.162516e+01
8.500000e-07	4.685335e-07	-1.190755e-09	3.344963e+00	-8.037355e+01
8.600000e-07	6.206994e-07	-1.014963e-09	4.431309e+00	-6.866104e+01
8.700000e-07	7.726767e-07	-8.360158e-10	5.516308e+00	-5.645178e+01
8.800000e-07	9.244523e-07	-6.450383e-10	6.599867e+00	-4.371800e+01
8.900000e-07	1.075976e-06	-4.420966e-10	7.681631e+00	-3.044515e+01
9.000000e-07	1.227076e-06	-2.338872e-10	8.760365e+00	-1.663677e+01
9.100000e-07	1.377618e-06	-2.082746e-11	9.835116e+00	-2.318216e+00
9.200000e-07	1.527651e-06	2.023736e-10	1.090623e+01	1.246108e+01
9.300000e-07	1.677183e-06	4.369021e-10	1.197378e+01	2.762728e+01
9.400000e-07	1.826128e-06	6.743583e-10	1.303713e+01	4.308387e+01
9.500000e-07	1.974454e-06	9.152541e-10	1.409606e+01	5.871553e+01
9.600000e-07	2.122133e-06	1.156689e-09	1.515037e+01	7.439368e+01
9.700000e-07	2.268999e-06	1.394722e-09	1.619888e+01	8.998339e+01
9.800000e-07	2.415010e-06	1.625479e-09	1.724128e+01	1.053509e+02
9.900000e-07	2.560141e-06	1.851310e-09	1.827740e+01	1.203711e+02
1.000000e-06	2.704277e-06	2.073434e-09	1.930642e+01	1.349342e+02
1.010000e-06	2.847352e-06	2.287718e-09	2.032786e+01	1.489510e+02
1.020000e-06	2.989340e-06	2.488576e-09	2.134155e+01	1.623564e+02
1.030000e-06	3.130192e-06	2.676989e-09	2.234713e+01	1.751105e+02
1.040000e-06	3.269759e-06	2.857592e-09	2.334352e+01	1.871978e+02
1.050000e-06	3.407975e-06	3.028786e-09	2.433028e+01	1.986244e+02
1.060000e-06	3.544834e-06	3.191329e-09	2.530734e+01	2.094138e+02
1.070000e-06	3.680294e-06	3.345782e-09	2.627442e+01	2.196015e+02
1.080000e-06	3.814413e-06	3.494869e-09	2.723192e+01	2.292299e+02
1.090000e-06	3.947291e-06	3.637940e-09	2.818057e+01	2.383433e+02
1.100000e-06	4.078766e-06	3.772829e-09	2.911920e+01	2.469833e+02
1.110000e-06	4.208681e-06	3.903740e-09	3.004669e+01	2.551866e+02
1.120000e-06	4.337103e-06	4.024846e-09	3.096353e+01	2.629832e+02
1.130000e-06	4.464046e-06	4.134652e-09	3.186980e+01	2.703962e+02
1.140000e-06	4.589533e-06	4.235853e-09	3.276568e+01	2.774437e+02
1.150000e-06	4.713482e-06	4.334475e-09	3.365057e+01	2.841399e+02
1.160000e-06	4.835703e-06	4.431824e-09	3.452314e+01	2.904979e+02
1.170000e-06	4.956154e-06	4.522089e-09	3.538307e+01	2.965319e+02
1.180000e-06	5.074840e-06	4.607583e-09	3.623039e+01	3.022584e+02
1.190000e-06	5.191707e-06	4.690607e-09	3.706473e+01	3.076975e+02
1.200000e-06	5.306580e-06	4.773129e-09	3.788483e+01	3.128723e+02
1.210000e-06	5.419364e-06	4.853182e-09	3.869002e+01	3.178080e+02
1.220000e-06	5.530113e-06	4.927152e-09	3.948068e+01	3.225304e+02
1.230000e-06	5.638899e-06	4.992936e-09	4.025733e+01	3.270632e+02
1.240000e-06	5.745699e-06	5.053354e-09	4.101980e+01	3.314262e+02
1.250000e-06	5.850354e-06	5.112610e-09	4.176696e+01	3.356337e+02
1.260000e-06	5.952862e-06	5.174005e-09	4.249878e+01	3.396928e+02
1.270000e-06	6.053225e-06	5.232844e-09	4.321529e+01	3.436041e+02
1.280000e-06	6.151289e-06	5.286400e-09	4.391539e+01	3.473618e+02
1.290000e-06	6.246980e-06	5.337446e-09	4.459856e+01	3.509558e+02
1.300000e-06	6.340481e-06	5.388472e-09	4.526607e+01	3.543739e+02
1.310000e-06	6.431788e-06	5.437590e-09	4.591794e+01	3.576047e+02
1.320000e-06	6.520729e-06	5.481390e-09	4.655291e+01	3.606396e+02
1.330000e-06	6.607342e-06	5.522242e-09	4.717126e+01	3.634754e+02
1.340000e-06	6.691731e-06	5.561033e-09	4.777373e+01	3.661153e+02
1.350000e-06	6.773733e-06	5.597847e-09	4.835916e+01	3.685692e+02
1.360000e-06	6.853153e-06	5.633028e-09	4.892616e+01	3.708530e+02
1.370000e-06	6.930073e-06	5.666772e-09	4.947531e+01	3.729871e+02
1.380000e-06	7.004419e-06	5.698023e-09	5.000608e+01	3.749936e+02
1.390000e-06	7.076161e-06	5.727615e-09	5.051826e+01	3.768944e+02
1.400000e-06	7.145419e-06	5.756538e-09	5.101271e+01	3.787081e+02
1.410000e-06	7.212120e-06	5.782740e-09	5.148890e+01	3.804483e+02
1.420000e-06	7.276178e-06	5.806616e-09	5.194623e+01	3.821220e+02
1.430000e-06	7.337768e-06	5.828388e-09	5.238593e+01	3.837299e+02
1.440000e-06	7.396950e-06	5.850056e-09	5.280844e+01	3.852663e+02
1.450000e-06	7.453470e-06	5.871098e-09	5.321195e+01	3.867215e+02
1.460000e-06	7.507213e-06	5.889108e-09	5.359564e+01	3.880834e+02
1.470000e-06	7.557936e-06	5.904526e-09	5.395775e+01	3.893403e+02
1.480000e-06	7.605601e-06	5.919307e-09	5.429804e+01	3.904833e+02
1.490000e-06	7.650593e-06	5.933668e-09	5.461926e+01	3.915081e+02
1.500000e-06	7.692898e-06	5.946785e-09	5.492128e+01	3.924162e+02
1.510000e-06	7.732424e-06	5.960497e-09	5.520347e+01	3.932153e+02
1.520000e-06	7.769305e-06	5.975253e-09	5.546676e+01	3.939180e+02
1.530000e-06	7.803364e-06	5.987353e-09	5.570992e+01	3.945404e+02
1.540000e-06	7.834540e-06	5.995085e-09	5.593249e+01	3.951002e+02
1.550000e-06	7.863105e-06	6.000946e-09	5.613642e+01	3.956133e+02
1.560000e-06	7.888848e-06	6.008587e-09	5.632021e+01	3.960922e+02
1.570000e-06	7.911601e-06	6.017311e-09	5.648264e+01	3.965440e+02
1.580000e-06	7.931669e-06	6.023860e-09	5.662592e+01	3.969690e+02
1.590000e-06	7.948955e-06	6.027646e-09	5.674933e+01	3.973611e+02
1.600000e-06	7.963216e-06	6.031236e-09	5.685114e+01	3.977082e+02
1.610000e-06	7.974332e-06	6.035632e-09	5.693050e+01	3.979951e+02
1.620000e-06	7.982353e-06	6.038187e-09	5.698776e+01	3.982048e+02
1.630000e-06	7.987566e-06	6.040111e-09	5.702498e+01	3.983222e+02
1.640000e-06	7.989880e-06	6.043179e-09	5.704150e+01	3.983364e+02
1.650000e-06	7.989291e-06	6.044071e-09	5.703729e+01	3.982427e+02
1.660000e-06	7.986124e-06	6.032276e-09	5.701468e+01	3.980442e+02
1.670000e-06	7.980304e-06	6.030334e-09	5.697313e+01	3.977515e+02
1.680000e-06	7.971794e-06	6.026700e-09	5.691238e+01	3.973824e+02
1.690000e-06	7.960686e-06	6.019891e-09	5.683308e+01	3.969592e+02
1.700000e-06	7.946708e-06	6.018857e-09	5.673328e+01	3.965068e+02
1.710000e-06	7.930071e-06	6.027570e-09	5.661451e+01	3.960493e+02
1.720000e-06	7.911233e-06	6.044418e-09	5.648002e+01	3.956066e+02
1.730000e-06	7.889981e-06	5.931935e-09	5.632830e+01	3.951925e+02
1.740000e-06	7.865621e-06	5.889951e-09	5.615438e+01	3.948120e+02
1.750000e-06	7.837666e-06	5.959875e-09	5.595481e+01	3.944613e+02
1.760000e-06	7.806298e-06	5.945923e-09	5.573087e+01	3.941273e+02
1.770000e-06	7.772177e-06	5.932212e-09	5.548727e+01	3.937897e+02
1.780000e-06	7.735782e-06	6.051829e-09	5.522743e+01	3.934226e+02
1.790000e-06	7.697133e-06	6.087707e-09	5.495151e+01	3.929978e+02
1.800000e-06	7.656437e-06	5.855218e-09	5.466098e+01	3.924877e+02
1.810000e-06	7.613400e-06	5.998443e-09	5.435373e+01	3.918684e+02
1.820000e-06	7.567669e-06	5.932238e-09	5.402724e+01	3.911215e+02
1.830000e-06	7.519303e-06	5.885176e-09	5.368194e+01	3.902365e+02
1.840000e-06	7.467917e-06	6.064623e-09	5.331509e+01	3.892105e+02
1.850000e-06	7.413590e-06	5.899256e-09	5.292724e+01	3.880485e+02
1.860000e-06	7.356521e-06	5.995070e-09	5.251981e+01	3.867621e+02
1.870000e-06	7.296840e-06	5.828124e-09	5.209373e+01	3.853671e+02
1.880000e-06	7.234504e-06	5.790879e-09	5.164870e+01	3.838818e+02
1.890000e-06	7.169271e-06	5.902188e-09	5.118299e+01	3.823240e+02
1.900000e-06	7.101361e-06	5.757606e-09	5.069817e+01	3.807098e+02
1.910000e-06	7.030614e-06	5.822147e-09	5.019309e+01	3.790509e+02
1.920000e-06	6.957084e-06	5.710112e-09	4.966814e+01	3.773545e+02
1.930000e-06	6.880954e-06	5.727673e-09	4.912463e+01	3.756224e+02
1.940000e-06	6.802057e-06	5.695380e-09	4.856137e+01	3.738517e+02
1.950000e-06	6.720590e-06	5.655653e-09	4.797976e+01	3.720358e+02
1.960000e-06	6.636676e-06	5.712993e-09	4.738068e+01	3.701655e+02
1.970000e-06	6.550288e-06	5.560691e-09	4.676393e+01	3.682303e+02
1.980000e-06	6.461457e-06	5.576046e-09	4.612975e+01	3.662203e+02
1.990000e-06	6.370393e-06	5.535821e-09	4.547963e+01	3.641268e+02
2.000000e-06	6.277169e-06	5.557989e-09	4.481408e+01	3.619433e+02
2.010000e-06	6.181629e-06	5.503327e-09	4.413200e+01	3.596659e+02
2.020000e-06	6.083852e-06	5.431609e-09	4.343395e+01	3.572930e+02
2.030000e-06	5.983934e-06	5.386112e-09	4.272061e+01	3.548252e+02
2.040000e-06	5.881855e-06	5.328094e-09	4.199184e+01	3.522644e+02
2.050000e-06	5.777595e-06	5.357280e-09	4.124751e+01	3.496130e+02
2.060000e-06	5.671383e-06	5.313653e-09	4.048924e+01	3.468737e+02
2.070000e-06	5.563308e-06	5.280715e-09	3.971767e+01	3.440481e+02
2.080000e-06	5.453281e-06	5.185107e-09	3.893216e+01	3.411370e+02
2.090000e-06	5.341247e-06	5.128876e-09	3.813233e+01	3.381398e+02
2.100000e-06	5.227167e-06	5.082214e-09	3.731788e+01	3.350546e+02
2.110000e-06	5.111113e-06	5.075839e-09	3.648935e+01	3.318784e+02
2.120000e-06	4.992992e-06	5.049198e-09	3.564606e+01	3.286071e+02
2.130000e-06	4.872864e-06	4.973328e-09	3.478844e+01	3.252359e+02
2.140000e-06	4.751000e-06	4.893825e-09	3.391843e+01	3.217599e+02
2.150000e-06	4.627523e-06	4.838743e-09	3.303690e+01	3.181738e+02
2.160000e-06	4.502307e-06	4.810150e-09	3.214296e+01	3.144721e+02
2.170000e-06	4.375390e-06	4.744573e-09	3.123687e+01	3.106498e+02
2.180000e-06	4.246932e-06	4.682901e-09	3.031978e+01	3.067017e+02
2.190000e-06	4.116975e-06	4.611780e-09	2.939198e+01	3.026232e+02
2.200000e-06	3.985532e-06	4.545422e-09	2.845358e+01	2.984099e+02
2.210000e-06	3.852586e-06	4.477486e-09	2.750445e+01	2.940584e+02
2.220000e-06	3.718147e-06	4.435459e-09	2.654466e+01	2.895655e+02
2.230000e-06	3.582268e-06	4.374271e-09	2.557460e+01	2.849292e+02
2.240000e-06	3.445063e-06	4.281340e-09	2.459505e+01	2.801481e+02
2.250000e-06	3.306592e-06	4.194501e-09	2.360648e+01	2.752214e+02
2.260000e-06	3.166867e-06	4.137561e-09	2.260896e+01	2.701487e+02
2.270000e-06	3.025857e-06	4.076883e-09	2.160226e+01	2.649294e+02
2.280000e-06	2.883635e-06	3.985104e-09	2.058690e+01	2.595620e+02
2.290000e-06	2.740225e-06	3.885870e-09	1.956307e+01	2.540437e+02
2.300000e-06	2.595791e-06	3.786865e-09	1.853192e+01	2.483694e+02
2.310000e-06	2.450574e-06	3.697932e-09	1.749518e+01	2.425316e+02
2.320000e-06	2.304634e-06	3.619724e-09	1.645328e+01	2.365197e+02
2.330000e-06	2.157915e-06	3.547076e-09	1.540583e+01	2.303205e+02
2.340000e-06	2.010367e-06	3.453164e-09	1.435245e+01	2.239187e+02
2.350000e-06	1.862110e-06	3.335787e-09	1.329401e+01	2.172974e+02
2.360000e-06	1.713287e-06	3.221895e-09	1.223153e+01	2.104398e+02
2.370000e-06	1.563984e-06	3.121203e-09	1.116562e+01	2.033300e+02
2.380000e-06	1.414212e-06	3.020860e-09	1.009636e+01	1.959541e+02
2.390000e-06	1.263973e-06	2.904107e-09	9.023779e+00	1.883017e+02
2.400000e-06	1.113314e-06	2.772316e-09	7.948191e+00	1.803657e+02
2.410000e-06	9.622593e-07	2.639341e-09	6.869779e+00	1.721424e+02
2.420000e-06	8.108154e-07	2.512431e-09	5.788588e+00	1.636307e+02
2.430000e-06	6.590166e-07	2.390307e-09	4.704863e+00	1.548303e+02
2.440000e-06	5.069443e-07	2.261399e-09	3.619186e+00	1.457399e+02
2.450000e-06	3.546875e-07	2.119019e-09	2.532191e+00	1.363550e+02
2.460000e-06	2.022680e-07	1.966373e-09	1.444036e+00	1.266660e+02
2.470000e-06	4.973457e-08	1.809676e-09	3.550659e-01	1.166563e+02
2.480000e-06	-1.028371e-07	1.651662e-09	-7.341764e-01	1.063018e+02
2.490000e-06	-2.553791e-07	1.489561e-09	-1.823207e+00	9.557132e+01
2.500000e-06	-4.078522e-07	1.318500e-09	-2.911746e+00	8.442844e+01
2.510000e-06	-5.602411e-07	1.136679e-09	-3.999683e+00	7.283427e+01
2.520000e-06	-7.124074e-07	9.505368e-10	-5.086032e+00	6.075176e+01
2.530000e-06	-8.642363e-07	7.659748e-10	-6.169972e+00	4.815063e+01
2.540000e-06	-1.015712e-06	5.737472e-10	-7.251389e+00	3.501255e+01
2.550000e-06	-1.166846e-06	3.650103e-10	-8.330365e+00	2.133614e+01
2.560000e-06	-1.317530e-06	1.414015e-10	-9.406132e+00	7.141008e+00
2.570000e-06	-1.467692e-06	-8.926957e-11	-1.047817e+01	-7.529535e+00
2.580000e-06	-1.617374e-06	-3.201545e-10	-1.154679e+01	-2.260766e+01
2.590000e-06	-1.766452e-06	-5.536622e-10	-1.261109e+01	-3.800226e+01
2.600000e-06	-1.914906e-06	-7.904704e-10	-1.367093e+01	-5.360225e+01
2.610000e-06	-2.062727e-06	-1.031736e-09	-1.472626e+01	-6.928175e+01
2.620000e-06	-2.209692e-06	-1.275596e-09	-1.577547e+01	-8.490673e+01
2.630000e-06	-2.355754e-06	-1.515044e-09	-1.681824e+01	-1.003424e+02
2.640000e-06	-2.501093e-06	-1.745326e-09	-1.785585e+01	-1.154609e+02
2.650000e-06	-2.645528e-06	-1.967602e-09	-1.888700e+01	-1.301479e+02
2.660000e-06	-2.788812e-06	-2.185509e-09	-1.990994e+01	-1.443088e+02
2.670000e-06	-2.930968e-06	-2.396723e-09	-2.092482e+01	-1.578723e+02
2.680000e-06	-3.071940e-06	-2.594562e-09	-2.193125e+01	-1.707920e+02
2.690000e-06	-3.211645e-06	-2.778652e-09	-2.292864e+01	-1.830467e+02
2.700000e-06	-3.350049e-06	-2.953112e-09	-2.391673e+01	-1.946373e+02
2.710000e-06	-3.487213e-06	-3.117788e-09	-2.489597e+01	-2.055835e+02
2.720000e-06	-3.623090e-06	-3.275344e-09	-2.586603e+01	-2.159182e+02
2.730000e-06	-3.757583e-06	-3.427924e-09	-2.682620e+01	-2.256828e+02
2.740000e-06	-3.890748e-06	-3.574245e-09	-2.777690e+01	-2.349213e+02
2.750000e-06	-4.022548e-06	-3.710842e-09	-2.871785e+01	-2.436765e+02
2.760000e-06	-4.152950e-06	-3.838781e-09	-2.964881e+01	-2.519863e+02
2.770000e-06	-4.281992e-06	-3.960975e-09	-3.057008e+01	-2.598826e+02
2.780000e-06	-4.409570e-06	-4.076553e-09	-3.148088e+01	-2.673901e+02
2.790000e-06	-4.535611e-06	-4.182885e-09	-3.238072e+01	-2.745279e+02
2.800000e-06	-4.660127e-06	-4.280082e-09	-3.326966e+01	-2.813111e+02
2.810000e-06	-4.782953e-06	-4.373171e-09	-3.414655e+01	-2.877529e+02
2.820000e-06	-4.904064e-06	-4.464715e-09	-3.501118e+01	-2.938669e+02
2.830000e-06	-5.023353e-06	-4.554941e-09	-3.586281e+01	-2.996690e+02
2.840000e-06	-5.140632e-06	-4.641845e-09	-3.670009e+01	-3.051783e+02
2.850000e-06	-5.255838e-06	-4.723101e-09	-3.752257e+01	-3.104173e+02
2.860000e-06	-5.368854e-06	-4.798853e-09	-3.832942e+01	-3.154109e+02
2.870000e-06	-5.479723e-06	-4.871922e-09	-3.912094e+01	-3.201847e+02
2.880000e-06	-5.588598e-06	-4.945684e-09	-3.989822e+01	-3.247632e+02
2.890000e-06	-5.695582e-06	-5.018162e-09	-4.066200e+01	-3.291676e+02
2.900000e-06	-5.800610e-06	-5.087677e-09	-4.141182e+01	-3.334135e+02
2.910000e-06	-5.903486e-06	-5.153382e-09	-4.214627e+01	-3.375098e+02
2.920000e-06	-6.004128e-06	-5.214520e-09	-4.286478e+01	-3.414589e+02
2.930000e-06	-6.102640e-06	-5.272875e-09	-4.356808e+01	-3.452562e+02
2.940000e-06	-6.199044e-06	-5.328711e-09	-4.425633e+01	-3.488927e+02
