# Temperatura_=_34.43
# Concentracion g/m^3_=_5000.0
# C_Vs_to_Am_M_A/Vsm_=_65563218390.804596
# pendiente_HvsI_1/m_=_3716.3
# ordenada_HvsI_A/m_=_1297.0
# frecuencia_Hz_=_302570.5879640797

Tiempo_(s)	Campo_(V.s)	Magnetizacion_(V.s)	Campo_(kA/m)	Magnetizacion_(A/m)
0.000000e+00	-7.945370e-06	-5.950216e-09	-5.685122e+01	-3.898103e+02
1.000000e-08	-7.942131e-06	-5.949386e-09	-5.682804e+01	-3.895879e+02
2.000000e-08	-7.936310e-06	-5.944914e-09	-5.678639e+01	-3.892869e+02
3.000000e-08	-7.927957e-06	-5.940922e-09	-5.672663e+01	-3.889273e+02
4.000000e-08	-7.916782e-06	-5.935991e-09	-5.664666e+01	-3.885315e+02
5.000000e-08	-7.902549e-06	-5.929457e-09	-5.654482e+01	-3.881219e+02
6.000000e-08	-7.885467e-06	-5.919959e-09	-5.642260e+01	-3.877171e+02
7.000000e-08	-7.866063e-06	-5.907299e-09	-5.628375e+01	-3.873299e+02
8.000000e-08	-7.844363e-06	-5.922737e-09	-5.612848e+01	-3.869648e+02
9.000000e-08	-7.819780e-06	-5.948919e-09	-5.595259e+01	-3.866172e+02
1.000000e-07	-7.791904e-06	-5.942413e-09	-5.575313e+01	-3.862740e+02
1.100000e-07	-7.761021e-06	-5.922089e-09	-5.553216e+01	-3.859146e+02
1.200000e-07	-7.727377e-06	-5.890353e-09	-5.529142e+01	-3.855135e+02
1.300000e-07	-7.691074e-06	-5.834859e-09	-5.503166e+01	-3.850431e+02
1.400000e-07	-7.652528e-06	-5.768956e-09	-5.475586e+01	-3.844773e+02
1.500000e-07	-7.611917e-06	-5.803738e-09	-5.446527e+01	-3.837942e+02
1.600000e-07	-7.568817e-06	-5.903323e-09	-5.415688e+01	-3.829786e+02
1.700000e-07	-7.522955e-06	-5.856921e-09	-5.382873e+01	-3.820237e+02
1.800000e-07	-7.474471e-06	-5.849979e-09	-5.348181e+01	-3.809315e+02
1.900000e-07	-7.422991e-06	-5.801329e-09	-5.311346e+01	-3.797118e+02
2.000000e-07	-7.368469e-06	-5.715646e-09	-5.272334e+01	-3.783811e+02
2.100000e-07	-7.311255e-06	-5.727470e-09	-5.231396e+01	-3.769600e+02
2.200000e-07	-7.251357e-06	-5.731855e-09	-5.188537e+01	-3.754703e+02
2.300000e-07	-7.188884e-06	-5.735215e-09	-5.143836e+01	-3.739324e+02
2.400000e-07	-7.123730e-06	-5.662104e-09	-5.097217e+01	-3.723629e+02
2.500000e-07	-7.055863e-06	-5.634888e-09	-5.048656e+01	-3.707731e+02
2.600000e-07	-6.985339e-06	-5.648227e-09	-4.998195e+01	-3.691676e+02
2.700000e-07	-6.912011e-06	-5.648081e-09	-4.945726e+01	-3.675449e+02
2.800000e-07	-6.835860e-06	-5.614842e-09	-4.891238e+01	-3.658977e+02
2.900000e-07	-6.756888e-06	-5.576858e-09	-4.834731e+01	-3.642148e+02
3.000000e-07	-6.675250e-06	-5.561885e-09	-4.776318e+01	-3.624828e+02
3.100000e-07	-6.591338e-06	-5.516318e-09	-4.716276e+01	-3.606878e+02
3.200000e-07	-6.505223e-06	-5.491971e-09	-4.654658e+01	-3.588175e+02
3.300000e-07	-6.416816e-06	-5.476819e-09	-4.591401e+01	-3.568624e+02
3.400000e-07	-6.326027e-06	-5.420271e-09	-4.526439e+01	-3.548165e+02
3.500000e-07	-6.232966e-06	-5.361185e-09	-4.459852e+01	-3.526771e+02
3.600000e-07	-6.137673e-06	-5.342383e-09	-4.391667e+01	-3.504451e+02
3.700000e-07	-6.040122e-06	-5.334564e-09	-4.321867e+01	-3.481235e+02
3.800000e-07	-5.940411e-06	-5.304563e-09	-4.250521e+01	-3.457162e+02
3.900000e-07	-5.838523e-06	-5.270157e-09	-4.177617e+01	-3.432276e+02
4.000000e-07	-5.734574e-06	-5.217594e-09	-4.103239e+01	-3.406607e+02
4.100000e-07	-5.628614e-06	-5.149443e-09	-4.027422e+01	-3.380168e+02
4.200000e-07	-5.520667e-06	-5.110949e-09	-3.950183e+01	-3.352953e+02
4.300000e-07	-5.410732e-06	-5.099928e-09	-3.871522e+01	-3.324936e+02
4.400000e-07	-5.298854e-06	-5.059859e-09	-3.791470e+01	-3.296074e+02
4.500000e-07	-5.185011e-06	-4.993951e-09	-3.710012e+01	-3.266315e+02
4.600000e-07	-5.069104e-06	-4.937065e-09	-3.627078e+01	-3.235604e+02
4.700000e-07	-4.951275e-06	-4.887789e-09	-3.542768e+01	-3.203888e+02
4.800000e-07	-4.831643e-06	-4.834823e-09	-3.457168e+01	-3.171122e+02
4.900000e-07	-4.710276e-06	-4.793131e-09	-3.370327e+01	-3.137270e+02
5.000000e-07	-4.587150e-06	-4.750311e-09	-3.282227e+01	-3.102304e+02
5.100000e-07	-4.462318e-06	-4.682080e-09	-3.192906e+01	-3.066200e+02
5.200000e-07	-4.335915e-06	-4.616376e-09	-3.102461e+01	-3.028936e+02
5.300000e-07	-4.207957e-06	-4.569898e-09	-3.010904e+01	-2.990487e+02
5.400000e-07	-4.078511e-06	-4.513876e-09	-2.918282e+01	-2.950821e+02
5.500000e-07	-3.947510e-06	-4.433517e-09	-2.824548e+01	-2.909899e+02
5.600000e-07	-3.814925e-06	-4.366826e-09	-2.729680e+01	-2.867673e+02
5.700000e-07	-3.680882e-06	-4.309000e-09	-2.633768e+01	-2.824094e+02
5.800000e-07	-3.545442e-06	-4.232817e-09	-2.536857e+01	-2.779108e+02
5.900000e-07	-3.408657e-06	-4.152957e-09	-2.438984e+01	-2.732670e+02
6.000000e-07	-3.270606e-06	-4.088692e-09	-2.340205e+01	-2.684740e+02
6.100000e-07	-3.131204e-06	-4.016656e-09	-2.240459e+01	-2.635290e+02
6.200000e-07	-2.990363e-06	-3.925697e-09	-2.139684e+01	-2.584301e+02
6.300000e-07	-2.848242e-06	-3.845534e-09	-2.037992e+01	-2.531758e+02
6.400000e-07	-2.705038e-06	-3.778214e-09	-1.935526e+01	-2.477647e+02
6.500000e-07	-2.560838e-06	-3.698742e-09	-1.832347e+01	-2.421942e+02
6.600000e-07	-2.415632e-06	-3.602339e-09	-1.728448e+01	-2.364603e+02
6.700000e-07	-2.269571e-06	-3.507311e-09	-1.623938e+01	-2.305561e+02
6.800000e-07	-2.122824e-06	-3.411225e-09	-1.518937e+01	-2.244721e+02
6.900000e-07	-1.975438e-06	-3.308410e-09	-1.413478e+01	-2.181957e+02
7.000000e-07	-1.827394e-06	-3.206720e-09	-1.307549e+01	-2.117118e+02
7.100000e-07	-1.678759e-06	-3.109084e-09	-1.201197e+01	-2.050037e+02
7.200000e-07	-1.529674e-06	-3.004267e-09	-1.094522e+01	-1.980545e+02
7.300000e-07	-1.380149e-06	-2.889796e-09	-9.875333e+00	-1.908478e+02
7.400000e-07	-1.230247e-06	-2.775629e-09	-8.802739e+00	-1.833697e+02
7.500000e-07	-1.079873e-06	-2.661176e-09	-7.726779e+00	-1.756089e+02
7.600000e-07	-9.290286e-07	-2.544218e-09	-6.647445e+00	-1.675576e+02
7.700000e-07	-7.779375e-07	-2.417790e-09	-5.566348e+00	-1.592107e+02
7.800000e-07	-6.265904e-07	-2.283836e-09	-4.483419e+00	-1.505649e+02
7.900000e-07	-4.749280e-07	-2.143851e-09	-3.398235e+00	-1.416167e+02
8.000000e-07	-3.230861e-07	-1.998498e-09	-2.311766e+00	-1.323607e+02
8.100000e-07	-1.711732e-07	-1.849823e-09	-1.224790e+00	-1.227873e+02
8.200000e-07	-1.915731e-08	-1.696367e-09	-1.370756e-01	-1.128809e+02
8.300000e-07	1.329004e-07	-1.537906e-09	9.509377e-01	-1.026188e+02
8.400000e-07	2.849602e-07	-1.372933e-09	2.038966e+00	-9.197171e+01
8.500000e-07	4.369576e-07	-1.204946e-09	3.126547e+00	-8.090474e+01
8.600000e-07	5.888669e-07	-1.032294e-09	4.213498e+00	-6.938049e+01
8.700000e-07	7.406648e-07	-8.540915e-10	5.299652e+00	-5.736300e+01
8.800000e-07	8.921915e-07	-6.660746e-10	6.383866e+00	-4.482271e+01
8.900000e-07	1.043349e-06	-4.655806e-10	7.465435e+00	-3.174187e+01
9.000000e-07	1.194040e-06	-2.576010e-10	8.543670e+00	-1.811969e+01
9.100000e-07	1.344265e-06	-4.500753e-11	9.618574e+00	-3.976747e+00
9.200000e-07	1.494142e-06	1.749925e-10	1.069098e+01	1.064214e+01
9.300000e-07	1.643628e-06	4.040561e-10	1.176059e+01	2.566687e+01
9.400000e-07	1.792449e-06	6.376195e-10	1.282544e+01	4.100325e+01
9.500000e-07	1.940563e-06	8.745155e-10	1.388524e+01	5.653636e+01
9.600000e-07	2.088101e-06	1.114492e-09	1.494092e+01	7.213607e+01
9.700000e-07	2.234876e-06	1.354743e-09	1.599113e+01	8.766393e+01
9.800000e-07	2.380769e-06	1.589016e-09	1.703503e+01	1.029811e+02
9.900000e-07	2.525728e-06	1.816358e-09	1.807225e+01	1.179564e+02
1.000000e-06	2.669652e-06	2.035884e-09	1.910207e+01	1.324736e+02
1.010000e-06	2.812563e-06	2.247534e-09	2.012463e+01	1.464375e+02
1.020000e-06	2.954481e-06	2.448652e-09	2.114009e+01	1.597781e+02
1.030000e-06	3.095282e-06	2.636085e-09	2.214756e+01	1.724520e+02
1.040000e-06	3.234742e-06	2.814673e-09	2.314543e+01	1.844423e+02
1.050000e-06	3.372860e-06	2.983887e-09	2.413370e+01	1.957556e+02
1.060000e-06	3.509716e-06	3.145412e-09	2.511295e+01	2.064176e+02
1.070000e-06	3.645266e-06	3.298300e-09	2.608284e+01	2.164676e+02
1.080000e-06	3.779462e-06	3.446670e-09	2.704305e+01	2.259528e+02
1.090000e-06	3.912348e-06	3.588745e-09	2.799388e+01	2.349219e+02
1.100000e-06	4.043770e-06	3.721608e-09	2.893424e+01	2.434214e+02
1.110000e-06	4.173692e-06	3.848450e-09	2.986387e+01	2.514914e+02
1.120000e-06	4.302175e-06	3.966623e-09	3.078320e+01	2.591641e+02
1.130000e-06	4.429122e-06	4.075725e-09	3.169154e+01	2.664639e+02
1.140000e-06	4.554604e-06	4.174973e-09	3.258939e+01	2.734081e+02
1.150000e-06	4.678568e-06	4.271418e-09	3.347638e+01	2.800095e+02
1.160000e-06	4.800837e-06	4.367441e-09	3.435126e+01	2.862787e+02
1.170000e-06	4.921392e-06	4.458490e-09	3.521386e+01	2.922269e+02
1.180000e-06	5.040174e-06	4.544063e-09	3.606377e+01	2.978678e+02
1.190000e-06	5.157137e-06	4.626363e-09	3.690067e+01	3.032191e+02
1.200000e-06	5.272093e-06	4.707681e-09	3.772322e+01	3.083023e+02
1.210000e-06	5.384970e-06	4.786968e-09	3.853088e+01	3.131421e+02
1.220000e-06	5.495855e-06	4.860237e-09	3.932429e+01	3.177641e+02
1.230000e-06	5.604868e-06	4.924733e-09	4.010431e+01	3.221935e+02
1.240000e-06	5.711868e-06	4.983443e-09	4.086992e+01	3.264516e+02
1.250000e-06	5.816678e-06	5.041791e-09	4.161986e+01	3.305545e+02
1.260000e-06	5.919389e-06	5.102497e-09	4.235479e+01	3.345115e+02
1.270000e-06	6.019980e-06	5.161849e-09	4.307455e+01	3.383247e+02
1.280000e-06	6.118330e-06	5.216642e-09	4.377826e+01	3.419894e+02
1.290000e-06	6.214324e-06	5.268484e-09	4.446513e+01	3.454961e+02
1.300000e-06	6.308089e-06	5.319893e-09	4.513604e+01	3.488323e+02
1.310000e-06	6.399638e-06	5.368481e-09	4.579110e+01	3.519858e+02
1.320000e-06	6.488913e-06	5.410853e-09	4.642988e+01	3.549468e+02
1.330000e-06	6.575826e-06	5.449232e-09	4.705177e+01	3.577106e+02
1.340000e-06	6.660498e-06	5.485912e-09	4.765762e+01	3.602788e+02
1.350000e-06	6.742914e-06	5.522315e-09	4.824732e+01	3.626600e+02
1.360000e-06	6.822814e-06	5.557144e-09	4.881903e+01	3.648690e+02
1.370000e-06	6.900181e-06	5.589948e-09	4.937261e+01	3.669254e+02
1.380000e-06	6.974856e-06	5.621127e-09	4.990693e+01	3.688512e+02
1.390000e-06	7.046853e-06	5.651099e-09	5.042209e+01	3.706685e+02
1.400000e-06	7.116434e-06	5.679493e-09	5.091996e+01	3.723967e+02
1.410000e-06	7.183561e-06	5.705391e-09	5.140027e+01	3.740502e+02
1.420000e-06	7.248068e-06	5.728418e-09	5.186184e+01	3.756374e+02
1.430000e-06	7.310048e-06	5.747838e-09	5.230532e+01	3.771603e+02
1.440000e-06	7.369566e-06	5.766682e-09	5.273119e+01	3.786148e+02
1.450000e-06	7.426431e-06	5.786353e-09	5.313807e+01	3.799925e+02
1.460000e-06	7.480561e-06	5.804240e-09	5.352538e+01	3.812829e+02
1.470000e-06	7.531791e-06	5.820422e-09	5.389195e+01	3.824755e+02
1.480000e-06	7.579971e-06	5.836792e-09	5.423669e+01	3.835625e+02
1.490000e-06	7.625428e-06	5.851967e-09	5.456195e+01	3.845404e+02
1.500000e-06	7.668264e-06	5.864823e-09	5.486845e+01	3.854111e+02
1.510000e-06	7.708211e-06	5.877641e-09	5.515428e+01	3.861821e+02
1.520000e-06	7.745447e-06	5.890758e-09	5.542071e+01	3.868656e+02
1.530000e-06	7.780019e-06	5.902840e-09	5.566809e+01	3.874765e+02
1.540000e-06	7.811727e-06	5.911462e-09	5.589497e+01	3.880308e+02
1.550000e-06	7.840779e-06	5.916821e-09	5.610284e+01	3.885424e+02
1.560000e-06	7.867034e-06	5.923214e-09	5.629070e+01	3.890217e+02
1.570000e-06	7.890244e-06	5.931130e-09	5.645677e+01	3.894732e+02
1.580000e-06	7.910714e-06	5.938974e-09	5.660325e+01	3.898954e+02
1.590000e-06	7.928426e-06	5.944886e-09	5.672998e+01	3.902806e+02
1.600000e-06	7.943146e-06	5.948361e-09	5.683531e+01	3.906165e+02
1.610000e-06	7.954819e-06	5.950785e-09	5.691883e+01	3.908877e+02
1.620000e-06	7.963366e-06	5.952669e-09	5.697998e+01	3.910789e+02
1.630000e-06	7.969042e-06	5.954822e-09	5.702060e+01	3.911773e+02
1.640000e-06	7.971928e-06	5.956889e-09	5.704125e+01	3.911748e+02
1.650000e-06	7.971963e-06	5.956573e-09	5.704150e+01	3.910702e+02
1.660000e-06	7.969356e-06	5.951473e-09	5.702284e+01	3.908695e+02
1.670000e-06	7.964145e-06	5.947774e-09	5.698556e+01	3.905860e+02
1.680000e-06	7.956262e-06	5.942803e-09	5.692915e+01	3.902385e+02
1.690000e-06	7.945750e-06	5.937659e-09	5.685394e+01	3.898492e+02
1.700000e-06	7.932384e-06	5.935981e-09	5.675830e+01	3.894406e+02
1.710000e-06	7.916257e-06	5.936969e-09	5.664291e+01	3.890327e+02
1.720000e-06	7.897891e-06	5.938714e-09	5.651150e+01	3.886399e+02
1.730000e-06	7.877200e-06	5.886850e-09	5.636345e+01	3.882688e+02
1.740000e-06	7.853567e-06	5.857432e-09	5.619434e+01	3.879173e+02
1.750000e-06	7.826372e-06	5.863429e-09	5.599975e+01	3.875742e+02
1.760000e-06	7.795564e-06	5.859080e-09	5.577932e+01	3.872206e+02
1.770000e-06	7.761906e-06	5.866830e-09	5.553849e+01	3.868320e+02
1.780000e-06	7.726048e-06	5.935285e-09	5.528191e+01	3.863810e+02
1.790000e-06	7.687881e-06	5.947416e-09	5.500882e+01	3.858409e+02
1.800000e-06	7.647602e-06	5.855094e-09	5.472061e+01	3.851884e+02
1.810000e-06	7.605119e-06	5.870245e-09	5.441664e+01	3.844064e+02
1.820000e-06	7.559984e-06	5.807627e-09	5.409368e+01	3.834860e+02
1.830000e-06	7.512267e-06	5.822309e-09	5.375225e+01	3.824270e+02
1.840000e-06	7.461634e-06	5.872831e-09	5.338996e+01	3.812374e+02
1.850000e-06	7.407981e-06	5.821174e-09	5.300605e+01	3.799322e+02
1.860000e-06	7.351578e-06	5.815065e-09	5.260248e+01	3.785312e+02
1.870000e-06	7.292508e-06	5.696212e-09	5.217982e+01	3.770561e+02
1.880000e-06	7.230843e-06	5.673931e-09	5.173859e+01	3.755281e+02
1.890000e-06	7.166344e-06	5.692676e-09	5.127708e+01	3.739647e+02
1.900000e-06	7.099065e-06	5.665677e-09	5.079568e+01	3.723788e+02
1.910000e-06	7.028991e-06	5.671084e-09	5.029428e+01	3.707767e+02
1.920000e-06	6.956108e-06	5.597365e-09	4.977279e+01	3.691583e+02
1.930000e-06	6.880645e-06	5.555873e-09	4.923283e+01	3.675177e+02
1.940000e-06	6.802328e-06	5.536945e-09	4.867245e+01	3.658445e+02
1.950000e-06	6.721391e-06	5.552882e-09	4.809332e+01	3.641255e+02
1.960000e-06	6.638106e-06	5.546070e-09	4.749740e+01	3.623471e+02
1.970000e-06	6.552357e-06	5.468540e-09	4.688384e+01	3.604962e+02
1.980000e-06	6.464170e-06	5.435678e-09	4.625284e+01	3.585625e+02
1.990000e-06	6.373712e-06	5.406993e-09	4.560559e+01	3.565392e+02
2.000000e-06	6.281131e-06	5.394256e-09	4.494315e+01	3.544228e+02
2.010000e-06	6.186198e-06	5.367171e-09	4.426388e+01	3.522132e+02
2.020000e-06	6.088991e-06	5.328772e-09	4.356834e+01	3.499132e+02
2.030000e-06	5.989655e-06	5.257687e-09	4.285756e+01	3.475265e+02
2.040000e-06	5.888234e-06	5.202142e-09	4.213186e+01	3.450574e+02
2.050000e-06	5.784669e-06	5.211665e-09	4.139083e+01	3.425093e+02
2.060000e-06	5.679051e-06	5.208083e-09	4.063511e+01	3.398842e+02
2.070000e-06	5.571585e-06	5.152913e-09	3.986616e+01	3.371818e+02
2.080000e-06	5.462210e-06	5.074119e-09	3.908355e+01	3.344000e+02
2.090000e-06	5.350846e-06	5.015212e-09	3.828671e+01	3.315349e+02
2.100000e-06	5.237453e-06	4.969570e-09	3.747536e+01	3.285815e+02
2.110000e-06	5.122051e-06	4.952254e-09	3.664962e+01	3.255342e+02
2.120000e-06	5.004674e-06	4.939064e-09	3.580976e+01	3.223878e+02
2.130000e-06	4.885326e-06	4.879380e-09	3.495579e+01	3.191373e+02
2.140000e-06	4.764102e-06	4.786423e-09	3.408841e+01	3.157791e+02
2.150000e-06	4.641177e-06	4.727295e-09	3.320885e+01	3.123101e+02
2.160000e-06	4.516595e-06	4.703536e-09	3.231743e+01	3.087279e+02
2.170000e-06	4.390396e-06	4.662138e-09	3.141444e+01	3.050302e+02
2.180000e-06	4.262499e-06	4.593759e-09	3.049931e+01	3.012148e+02
2.190000e-06	4.133029e-06	4.524083e-09	2.957291e+01	2.972785e+02
2.200000e-06	4.002088e-06	4.451829e-09	2.863599e+01	2.932176e+02
2.210000e-06	3.869696e-06	4.386574e-09	2.768869e+01	2.890277e+02
2.220000e-06	3.735939e-06	4.345291e-09	2.673163e+01	2.847036e+02
2.230000e-06	3.600734e-06	4.298127e-09	2.576420e+01	2.802402e+02
2.240000e-06	3.464060e-06	4.212886e-09	2.478626e+01	2.756326e+02
2.250000e-06	3.326008e-06	4.120672e-09	2.379846e+01	2.708767e+02
2.260000e-06	3.186777e-06	4.056035e-09	2.280223e+01	2.659695e+02
2.270000e-06	3.046362e-06	3.997370e-09	2.179752e+01	2.609087e+02
2.280000e-06	2.904719e-06	3.915349e-09	2.078403e+01	2.556929e+02
2.290000e-06	2.761918e-06	3.819411e-09	1.976225e+01	2.503207e+02
2.300000e-06	2.618029e-06	3.724353e-09	1.873269e+01	2.447899e+02
2.310000e-06	2.473198e-06	3.633824e-09	1.769639e+01	2.390969e+02
2.320000e-06	2.327638e-06	3.557584e-09	1.665487e+01	2.332356e+02
2.330000e-06	2.181345e-06	3.488854e-09	1.560810e+01	2.271972e+02
2.340000e-06	2.034202e-06	3.400677e-09	1.455525e+01	2.209697e+02
2.350000e-06	1.886377e-06	3.284209e-09	1.349752e+01	2.145387e+02
2.360000e-06	1.737999e-06	3.169129e-09	1.243584e+01	2.078879e+02
2.370000e-06	1.589122e-06	3.072618e-09	1.137059e+01	2.010000e+02
2.380000e-06	1.439767e-06	2.977265e-09	1.030191e+01	1.938587e+02
2.390000e-06	1.289959e-06	2.866274e-09	9.229996e+00	1.864491e+02
2.400000e-06	1.139718e-06	2.740209e-09	8.154984e+00	1.787594e+02
2.410000e-06	9.891009e-07	2.608507e-09	7.077278e+00	1.707808e+02
2.420000e-06	8.381425e-07	2.482289e-09	5.997131e+00	1.625077e+02
2.430000e-06	6.868560e-07	2.364153e-09	4.914636e+00	1.539364e+02
2.440000e-06	5.353280e-07	2.243066e-09	3.830413e+00	1.450637e+02
2.450000e-06	3.835403e-07	2.104909e-09	2.744332e+00	1.358849e+02
2.460000e-06	2.315675e-07	1.952458e-09	1.656926e+00	1.263917e+02
2.470000e-06	7.952341e-08	1.797732e-09	5.690109e-01	1.165698e+02
2.480000e-06	-7.256666e-08	1.643471e-09	-5.192336e-01	1.063987e+02
2.490000e-06	-2.246815e-07	1.484513e-09	-1.607655e+00	9.585049e+01
2.500000e-06	-3.767575e-07	1.317054e-09	-2.695799e+00	8.489148e+01
2.510000e-06	-5.286770e-07	1.140603e-09	-3.782824e+00	7.348459e+01
2.520000e-06	-6.804322e-07	9.570818e-10	-4.868672e+00	6.159305e+01
2.530000e-06	-8.320118e-07	7.717545e-10	-5.953264e+00	4.918521e+01
2.540000e-06	-9.832344e-07	5.822332e-10	-7.035302e+00	3.623985e+01
2.550000e-06	-1.133988e-06	3.785322e-10	-8.113983e+00	2.275151e+01
2.560000e-06	-1.284304e-06	1.594433e-10	-9.189532e+00	8.735068e+00
2.570000e-06	-1.434173e-06	-6.742174e-11	-1.026188e+01	-5.770892e+00
2.580000e-06	-1.583595e-06	-2.952793e-10	-1.133104e+01	-2.070256e+01
2.590000e-06	-1.732523e-06	-5.260402e-10	-1.239666e+01	-3.597153e+01
2.600000e-06	-1.880807e-06	-7.624375e-10	-1.345767e+01	-5.146765e+01
2.610000e-06	-2.028340e-06	-1.002995e-09	-1.451331e+01	-6.706397e+01
2.620000e-06	-2.175074e-06	-1.246677e-09	-1.556323e+01	-8.262340e+01
2.630000e-06	-2.321075e-06	-1.485605e-09	-1.660790e+01	-9.800644e+01
2.640000e-06	-2.466291e-06	-1.714851e-09	-1.764696e+01	-1.130793e+02
2.650000e-06	-2.610513e-06	-1.935811e-09	-1.867891e+01	-1.277213e+02
2.660000e-06	-2.753644e-06	-2.152049e-09	-1.970305e+01	-1.418316e+02
2.670000e-06	-2.895593e-06	-2.362731e-09	-2.071873e+01	-1.553336e+02
2.680000e-06	-3.036414e-06	-2.559387e-09	-2.172634e+01	-1.681772e+02
2.690000e-06	-3.176076e-06	-2.742614e-09	-2.272566e+01	-1.803391e+02
2.700000e-06	-3.314506e-06	-2.915213e-09	-2.371616e+01	-1.918204e+02
2.710000e-06	-3.451719e-06	-3.076812e-09	-2.469796e+01	-2.026424e+02
2.720000e-06	-3.587626e-06	-3.230837e-09	-2.567041e+01	-2.128417e+02
2.730000e-06	-3.722111e-06	-3.380382e-09	-2.663268e+01	-2.224639e+02
2.740000e-06	-3.855273e-06	-3.525619e-09	-2.758550e+01	-2.315581e+02
2.750000e-06	-3.987158e-06	-3.660719e-09	-2.852916e+01	-2.401714e+02
2.760000e-06	-4.117614e-06	-3.786606e-09	-2.946262e+01	-2.483458e+02
2.770000e-06	-4.246741e-06	-3.905983e-09	-3.038655e+01	-2.561158e+02
2.780000e-06	-4.374404e-06	-4.018543e-09	-3.130001e+01	-2.635074e+02
2.790000e-06	-4.500451e-06	-4.123693e-09	-3.220191e+01	-2.705397e+02
2.800000e-06	-4.625017e-06	-4.219846e-09	-3.309321e+01	-2.772262e+02
2.810000e-06	-4.747936e-06	-4.311373e-09	-3.397273e+01	-2.835779e+02
2.820000e-06	-4.869074e-06	-4.401687e-09	-3.483951e+01	-2.896056e+02
2.830000e-06	-4.988375e-06	-4.490712e-09	-3.569314e+01	-2.953224e+02
2.840000e-06	-5.105758e-06	-4.575898e-09	-3.653305e+01	-3.007447e+02
2.850000e-06	-5.221061e-06	-4.654990e-09	-3.735807e+01	-3.058932e+02
2.860000e-06	-5.334132e-06	-4.729454e-09	-3.816712e+01	-3.107918e+02
2.870000e-06	-5.445127e-06	-4.802290e-09	-3.896132e+01	-3.154664e+02
2.880000e-06	-5.554210e-06	-4.874760e-09	-3.974184e+01	-3.199422e+02
2.890000e-06	-5.661405e-06	-4.944427e-09	-4.050885e+01	-3.242418e+02
2.900000e-06	-5.766693e-06	-5.010305e-09	-4.126221e+01	-3.283828e+02
2.910000e-06	-5.869829e-06	-5.071277e-09	-4.200017e+01	-3.323763e+02
2.920000e-06	-5.970646e-06	-5.128543e-09	-4.272155e+01	-3.362261e+02
2.930000e-06	-6.069352e-06	-5.184788e-09	-4.342782e+01	-3.399292e+02
2.940000e-06	-6.166046e-06	-5.239904e-09	-4.411968e+01	-3.434769e+02
