# Temperatura_=_46.04
# Concentracion g/m^3_=_5000.0
# C_Vs_to_Am_M_A/Vsm_=_65563218390.804596
# pendiente_HvsI_1/m_=_3716.3
# ordenada_HvsI_A/m_=_1297.0
# frecuencia_Hz_=_302570.8420216788

Tiempo_(s)	Campo_(V.s)	Magnetizacion_(V.s)	Campo_(kA/m)	Magnetizacion_(A/m)
0.000000e+00	-7.979793e-06	-5.939012e-09	-5.685713e+01	-3.888874e+02
1.000000e-08	-7.977020e-06	-5.937383e-09	-5.683737e+01	-3.886421e+02
2.000000e-08	-7.971505e-06	-5.932444e-09	-5.679807e+01	-3.883222e+02
3.000000e-08	-7.963432e-06	-5.925492e-09	-5.674055e+01	-3.879472e+02
4.000000e-08	-7.952580e-06	-5.920550e-09	-5.666323e+01	-3.875373e+02
5.000000e-08	-7.938884e-06	-5.915526e-09	-5.656564e+01	-3.871105e+02
6.000000e-08	-7.922301e-06	-5.908945e-09	-5.644749e+01	-3.866806e+02
7.000000e-08	-7.903179e-06	-5.902965e-09	-5.631124e+01	-3.862545e+02
8.000000e-08	-7.881836e-06	-5.898719e-09	-5.615917e+01	-3.858318e+02
9.000000e-08	-7.857682e-06	-5.894610e-09	-5.598707e+01	-3.854039e+02
1.000000e-07	-7.830239e-06	-5.935623e-09	-5.579153e+01	-3.849554e+02
1.100000e-07	-7.799725e-06	-5.920716e-09	-5.557412e+01	-3.844660e+02
1.200000e-07	-7.766396e-06	-5.868713e-09	-5.533664e+01	-3.839125e+02
1.300000e-07	-7.730353e-06	-5.826990e-09	-5.507983e+01	-3.832718e+02
1.400000e-07	-7.691940e-06	-5.790458e-09	-5.480614e+01	-3.825237e+02
1.500000e-07	-7.651464e-06	-5.785117e-09	-5.451774e+01	-3.816531e+02
1.600000e-07	-7.608649e-06	-5.771972e-09	-5.421267e+01	-3.806516e+02
1.700000e-07	-7.563075e-06	-5.890728e-09	-5.388795e+01	-3.795178e+02
1.800000e-07	-7.514780e-06	-5.802473e-09	-5.354384e+01	-3.782575e+02
1.900000e-07	-7.463523e-06	-5.725038e-09	-5.317863e+01	-3.768823e+02
2.000000e-07	-7.409261e-06	-5.751901e-09	-5.279201e+01	-3.754079e+02
2.100000e-07	-7.352262e-06	-5.646761e-09	-5.238588e+01	-3.738515e+02
2.200000e-07	-7.292600e-06	-5.681261e-09	-5.196078e+01	-3.722300e+02
2.300000e-07	-7.230339e-06	-5.663971e-09	-5.151716e+01	-3.705578e+02
2.400000e-07	-7.165358e-06	-5.622063e-09	-5.105416e+01	-3.688451e+02
2.500000e-07	-7.097641e-06	-5.591353e-09	-5.057167e+01	-3.670972e+02
2.600000e-07	-7.027246e-06	-5.582897e-09	-5.007010e+01	-3.653144e+02
2.700000e-07	-6.954076e-06	-5.598418e-09	-4.954875e+01	-3.634924e+02
2.800000e-07	-6.878133e-06	-5.548699e-09	-4.900765e+01	-3.616236e+02
2.900000e-07	-6.799401e-06	-5.524093e-09	-4.844667e+01	-3.596983e+02
3.000000e-07	-6.717970e-06	-5.471234e-09	-4.786646e+01	-3.577065e+02
3.100000e-07	-6.634188e-06	-5.440608e-09	-4.726951e+01	-3.556389e+02
3.200000e-07	-6.548120e-06	-5.432552e-09	-4.665626e+01	-3.534883e+02
3.300000e-07	-6.459696e-06	-5.374142e-09	-4.602622e+01	-3.512501e+02
3.400000e-07	-6.368935e-06	-5.332073e-09	-4.537954e+01	-3.489222e+02
3.500000e-07	-6.275912e-06	-5.274949e-09	-4.471674e+01	-3.465047e+02
3.600000e-07	-6.180673e-06	-5.249551e-09	-4.403815e+01	-3.439996e+02
3.700000e-07	-6.083115e-06	-5.216888e-09	-4.334304e+01	-3.414093e+02
3.800000e-07	-5.983299e-06	-5.187411e-09	-4.263183e+01	-3.387362e+02
3.900000e-07	-5.881412e-06	-5.168454e-09	-4.190587e+01	-3.359819e+02
4.000000e-07	-5.777433e-06	-5.107670e-09	-4.116501e+01	-3.331468e+02
4.100000e-07	-5.671370e-06	-5.038588e-09	-4.040929e+01	-3.302298e+02
4.200000e-07	-5.563335e-06	-4.983472e-09	-3.963953e+01	-3.272285e+02
4.300000e-07	-5.453361e-06	-4.973360e-09	-3.885595e+01	-3.241400e+02
4.400000e-07	-5.341421e-06	-4.918823e-09	-3.805836e+01	-3.209608e+02
4.500000e-07	-5.227383e-06	-4.845540e-09	-3.724583e+01	-3.176878e+02
4.600000e-07	-5.111207e-06	-4.801654e-09	-3.641806e+01	-3.143185e+02
4.700000e-07	-4.993183e-06	-4.759396e-09	-3.557712e+01	-3.108510e+02
4.800000e-07	-4.873361e-06	-4.691255e-09	-3.472337e+01	-3.072843e+02
4.900000e-07	-4.751754e-06	-4.630457e-09	-3.385690e+01	-3.036178e+02
5.000000e-07	-4.628406e-06	-4.587663e-09	-3.297803e+01	-2.998508e+02
5.100000e-07	-4.503362e-06	-4.515583e-09	-3.208707e+01	-2.959822e+02
5.200000e-07	-4.376715e-06	-4.444820e-09	-3.118470e+01	-2.920097e+02
5.300000e-07	-4.248401e-06	-4.396018e-09	-3.027044e+01	-2.879299e+02
5.400000e-07	-4.118571e-06	-4.346144e-09	-2.934539e+01	-2.837380e+02
5.500000e-07	-3.987234e-06	-4.263555e-09	-2.840959e+01	-2.794283e+02
5.600000e-07	-3.854308e-06	-4.184504e-09	-2.746248e+01	-2.749944e+02
5.700000e-07	-3.719936e-06	-4.124851e-09	-2.650506e+01	-2.704300e+02
5.800000e-07	-3.584195e-06	-4.049940e-09	-2.553788e+01	-2.657297e+02
5.900000e-07	-3.447025e-06	-3.964387e-09	-2.456053e+01	-2.608891e+02
6.000000e-07	-3.308516e-06	-3.888853e-09	-2.357363e+01	-2.559055e+02
6.100000e-07	-3.168648e-06	-3.818015e-09	-2.257706e+01	-2.507780e+02
6.200000e-07	-3.027325e-06	-3.730489e-09	-2.157011e+01	-2.455063e+02
6.300000e-07	-2.884698e-06	-3.648027e-09	-2.055387e+01	-2.400909e+02
6.400000e-07	-2.741038e-06	-3.576921e-09	-1.953027e+01	-2.345318e+02
6.500000e-07	-2.596498e-06	-3.496087e-09	-1.850041e+01	-2.288272e+02
6.600000e-07	-2.450969e-06	-3.399219e-09	-1.746349e+01	-2.229731e+02
6.700000e-07	-2.304498e-06	-3.300829e-09	-1.641987e+01	-2.169623e+02
6.800000e-07	-2.157325e-06	-3.204807e-09	-1.537124e+01	-2.107847e+02
6.900000e-07	-2.009483e-06	-3.100126e-09	-1.431784e+01	-2.044269e+02
7.000000e-07	-1.860954e-06	-2.995405e-09	-1.325956e+01	-1.978738e+02
7.100000e-07	-1.711836e-06	-2.890826e-09	-1.219707e+01	-1.911095e+02
7.200000e-07	-1.562170e-06	-2.783056e-09	-1.113068e+01	-1.841184e+02
7.300000e-07	-1.412081e-06	-2.673220e-09	-1.006127e+01	-1.768868e+02
7.400000e-07	-1.261610e-06	-2.564110e-09	-8.989145e+00	-1.694039e+02
7.500000e-07	-1.110649e-06	-2.450327e-09	-7.913528e+00	-1.616618e+02
7.600000e-07	-9.592588e-07	-2.328691e-09	-6.834852e+00	-1.536555e+02
7.700000e-07	-8.075311e-07	-2.201714e-09	-5.753771e+00	-1.453818e+02
7.800000e-07	-6.555438e-07	-2.068703e-09	-4.670840e+00	-1.368372e+02
7.900000e-07	-5.032201e-07	-1.932735e-09	-3.585512e+00	-1.280162e+02
8.000000e-07	-3.506288e-07	-1.792251e-09	-2.498279e+00	-1.189084e+02
8.100000e-07	-1.979872e-07	-1.648490e-09	-1.410686e+00	-1.094972e+02
8.200000e-07	-4.528529e-08	-1.496861e-09	-3.226640e-01	-9.975810e+01
8.300000e-07	1.075488e-07	-1.336905e-09	7.663000e-01	-8.965857e+01
8.400000e-07	2.604093e-07	-1.172238e-09	1.855452e+00	-7.915960e+01
8.500000e-07	4.131694e-07	-1.003916e-09	2.943889e+00	-6.821825e+01
8.600000e-07	5.658249e-07	-8.314043e-10	4.031580e+00	-5.679176e+01
8.700000e-07	7.182952e-07	-6.517230e-10	5.117953e+00	-4.484269e+01
8.800000e-07	8.705582e-07	-4.661328e-10	6.202847e+00	-3.234464e+01
8.900000e-07	1.022509e-06	-2.709352e-10	7.285519e+00	-1.928788e+01
9.000000e-07	1.174062e-06	-6.661658e-11	8.365351e+00	-5.684249e+00
9.100000e-07	1.325141e-06	1.459077e-10	9.441814e+00	8.429313e+00
9.200000e-07	1.475713e-06	3.661066e-10	1.051466e+01	2.298916e+01
9.300000e-07	1.625771e-06	5.942124e-10	1.158384e+01	3.790560e+01
9.400000e-07	1.775281e-06	8.278566e-10	1.264913e+01	5.306593e+01
9.500000e-07	1.924139e-06	1.060335e-09	1.370976e+01	6.833963e+01
9.600000e-07	2.072274e-06	1.294486e-09	1.476524e+01	8.358539e+01
9.700000e-07	2.219663e-06	1.528113e-09	1.581541e+01	9.865922e+01
9.800000e-07	2.366198e-06	1.753173e-09	1.685949e+01	1.134229e+02
9.900000e-07	2.511809e-06	1.966400e-09	1.789699e+01	1.277522e+02
1.000000e-06	2.656564e-06	2.169137e-09	1.892838e+01	1.415432e+02
1.010000e-06	2.800333e-06	2.367428e-09	1.995276e+01	1.547176e+02
1.020000e-06	2.942962e-06	2.557793e-09	2.096901e+01	1.672249e+02
1.030000e-06	3.084400e-06	2.734196e-09	2.197678e+01	1.790430e+02
1.040000e-06	3.224557e-06	2.902126e-09	2.297542e+01	1.901752e+02
1.050000e-06	3.363483e-06	3.061996e-09	2.396528e+01	2.006467e+02
1.060000e-06	3.501188e-06	3.213439e-09	2.494645e+01	2.104986e+02
1.070000e-06	3.637574e-06	3.354751e-09	2.591822e+01	2.197817e+02
1.080000e-06	3.772518e-06	3.489988e-09	2.687971e+01	2.285507e+02
1.090000e-06	3.906084e-06	3.618433e-09	2.783139e+01	2.368583e+02
1.100000e-06	4.038244e-06	3.740334e-09	2.877304e+01	2.447516e+02
1.110000e-06	4.168970e-06	3.858801e-09	2.970449e+01	2.522693e+02
1.120000e-06	4.298279e-06	3.970176e-09	3.062583e+01	2.594410e+02
1.130000e-06	4.426041e-06	4.072886e-09	3.153616e+01	2.662877e+02
1.140000e-06	4.552295e-06	4.166603e-09	3.243573e+01	2.728239e+02
1.150000e-06	4.677038e-06	4.256653e-09	3.332454e+01	2.790602e+02
1.160000e-06	4.800172e-06	4.347386e-09	3.420189e+01	2.850057e+02
1.170000e-06	4.921667e-06	4.434558e-09	3.506756e+01	2.906710e+02
1.180000e-06	5.041372e-06	4.515329e-09	3.592047e+01	2.960692e+02
1.190000e-06	5.159108e-06	4.591563e-09	3.675935e+01	3.012173e+02
1.200000e-06	5.274865e-06	4.668436e-09	3.758414e+01	3.061353e+02
1.210000e-06	5.388607e-06	4.747548e-09	3.839457e+01	3.108453e+02
1.220000e-06	5.500255e-06	4.821550e-09	3.919008e+01	3.153692e+02
1.230000e-06	5.609949e-06	4.886489e-09	3.997166e+01	3.197270e+02
1.240000e-06	5.717718e-06	4.943795e-09	4.073953e+01	3.239343e+02
1.250000e-06	5.823439e-06	5.001845e-09	4.149281e+01	3.280009e+02
1.260000e-06	5.926965e-06	5.061559e-09	4.223045e+01	3.319305e+02
1.270000e-06	6.028280e-06	5.119979e-09	4.295233e+01	3.357200e+02
1.280000e-06	6.127433e-06	5.173232e-09	4.365881e+01	3.393616e+02
1.290000e-06	6.224247e-06	5.222255e-09	4.434862e+01	3.428442e+02
1.300000e-06	6.318749e-06	5.271719e-09	4.502196e+01	3.461563e+02
1.310000e-06	6.411057e-06	5.319721e-09	4.567967e+01	3.492879e+02
1.320000e-06	6.501096e-06	5.364576e-09	4.632121e+01	3.522332e+02
1.330000e-06	6.588758e-06	5.405362e-09	4.694581e+01	3.549922e+02
1.340000e-06	6.674070e-06	5.443680e-09	4.755367e+01	3.575709e+02
1.350000e-06	6.757152e-06	5.481313e-09	4.814564e+01	3.599819e+02
1.360000e-06	6.837780e-06	5.517129e-09	4.872013e+01	3.622421e+02
1.370000e-06	6.915813e-06	5.551693e-09	4.927612e+01	3.643716e+02
1.380000e-06	6.991287e-06	5.583267e-09	4.981388e+01	3.663908e+02
1.390000e-06	7.064130e-06	5.612458e-09	5.033290e+01	3.683179e+02
1.400000e-06	7.134425e-06	5.640394e-09	5.083376e+01	3.701673e+02
1.410000e-06	7.202242e-06	5.667355e-09	5.131697e+01	3.719474e+02
1.420000e-06	7.267449e-06	5.692564e-09	5.178158e+01	3.736607e+02
1.430000e-06	7.330037e-06	5.715684e-09	5.222753e+01	3.753035e+02
1.440000e-06	7.390177e-06	5.739417e-09	5.265603e+01	3.768678e+02
1.450000e-06	7.447778e-06	5.762171e-09	5.306645e+01	3.783427e+02
1.460000e-06	7.502670e-06	5.780898e-09	5.345756e+01	3.797172e+02
1.470000e-06	7.554643e-06	5.796153e-09	5.382788e+01	3.809822e+02
1.480000e-06	7.603504e-06	5.812400e-09	5.417602e+01	3.821324e+02
1.490000e-06	7.649508e-06	5.829137e-09	5.450380e+01	3.831677e+02
1.500000e-06	7.692911e-06	5.843056e-09	5.481305e+01	3.840937e+02
1.510000e-06	7.733543e-06	5.856703e-09	5.510256e+01	3.849206e+02
1.520000e-06	7.771402e-06	5.870870e-09	5.537231e+01	3.856625e+02
1.530000e-06	7.806653e-06	5.883806e-09	5.562348e+01	3.863348e+02
1.540000e-06	7.839063e-06	5.894087e-09	5.585441e+01	3.869522e+02
1.550000e-06	7.868661e-06	5.901733e-09	5.606529e+01	3.875263e+02
1.560000e-06	7.895533e-06	5.909090e-09	5.625676e+01	3.880641e+02
1.570000e-06	7.919416e-06	5.918076e-09	5.642693e+01	3.885666e+02
1.580000e-06	7.940455e-06	5.927099e-09	5.657684e+01	3.890289e+02
1.590000e-06	7.958780e-06	5.933615e-09	5.670741e+01	3.894410e+02
1.600000e-06	7.974151e-06	5.937226e-09	5.681693e+01	3.897896e+02
1.610000e-06	7.986423e-06	5.940336e-09	5.690437e+01	3.900598e+02
1.620000e-06	7.995522e-06	5.943418e-09	5.696920e+01	3.902385e+02
1.630000e-06	8.001684e-06	5.945663e-09	5.701310e+01	3.903160e+02
1.640000e-06	8.005108e-06	5.947404e-09	5.703750e+01	3.902881e+02
1.650000e-06	8.005669e-06	5.944977e-09	5.704150e+01	3.901573e+02
1.660000e-06	8.003526e-06	5.943788e-09	5.702623e+01	3.899327e+02
1.670000e-06	7.998726e-06	5.935385e-09	5.699202e+01	3.896292e+02
1.680000e-06	7.991236e-06	5.930601e-09	5.693866e+01	3.892655e+02
1.690000e-06	7.981159e-06	5.927235e-09	5.686686e+01	3.888619e+02
1.700000e-06	7.968262e-06	5.921225e-09	5.677497e+01	3.884373e+02
1.710000e-06	7.952561e-06	5.915042e-09	5.666310e+01	3.880067e+02
1.720000e-06	7.934501e-06	5.903983e-09	5.653441e+01	3.875789e+02
1.730000e-06	7.914168e-06	5.892964e-09	5.638954e+01	3.871552e+02
1.740000e-06	7.890967e-06	5.857071e-09	5.622423e+01	3.867293e+02
1.750000e-06	7.864326e-06	5.824240e-09	5.603441e+01	3.862872e+02
1.760000e-06	7.834137e-06	5.842831e-09	5.581931e+01	3.858096e+02
1.770000e-06	7.800922e-06	5.858111e-09	5.558265e+01	3.852737e+02
1.780000e-06	7.765324e-06	5.872922e-09	5.532900e+01	3.846563e+02
1.790000e-06	7.727395e-06	5.879871e-09	5.505875e+01	3.839362e+02
1.800000e-06	7.687398e-06	5.903151e-09	5.477377e+01	3.830968e+02
1.810000e-06	7.645229e-06	5.770624e-09	5.447331e+01	3.821278e+02
1.820000e-06	7.600337e-06	5.764154e-09	5.415345e+01	3.810262e+02
1.830000e-06	7.552758e-06	5.822321e-09	5.381444e+01	3.797961e+02
1.840000e-06	7.502365e-06	5.750867e-09	5.345539e+01	3.784478e+02
1.850000e-06	7.448970e-06	5.825181e-09	5.307494e+01	3.769960e+02
1.860000e-06	7.392733e-06	5.724660e-09	5.267425e+01	3.754579e+02
1.870000e-06	7.333772e-06	5.674984e-09	5.225414e+01	3.738507e+02
1.880000e-06	7.272189e-06	5.645307e-09	5.181535e+01	3.721895e+02
1.890000e-06	7.207883e-06	5.588833e-09	5.135716e+01	3.704857e+02
1.900000e-06	7.140830e-06	5.637399e-09	5.087940e+01	3.687458e+02
1.910000e-06	7.070954e-06	5.569859e-09	5.038152e+01	3.669715e+02
1.920000e-06	6.998246e-06	5.566858e-09	4.986347e+01	3.651593e+02
1.930000e-06	6.922957e-06	5.487522e-09	4.932703e+01	3.633025e+02
1.940000e-06	6.844897e-06	5.472525e-09	4.877084e+01	3.613918e+02
1.950000e-06	6.764190e-06	5.501234e-09	4.819579e+01	3.594169e+02
1.960000e-06	6.681095e-06	5.424837e-09	4.760373e+01	3.573685e+02
1.970000e-06	6.595447e-06	5.409662e-09	4.699347e+01	3.552387e+02
1.980000e-06	6.507312e-06	5.336878e-09	4.636550e+01	3.530221e+02
1.990000e-06	6.416897e-06	5.324162e-09	4.572128e+01	3.507161e+02
2.000000e-06	6.324233e-06	5.286790e-09	4.506103e+01	3.483204e+02
2.010000e-06	6.229232e-06	5.279447e-09	4.438414e+01	3.458364e+02
2.020000e-06	6.132040e-06	5.245380e-09	4.369163e+01	3.432666e+02
2.030000e-06	6.032725e-06	5.158949e-09	4.298400e+01	3.406135e+02
2.040000e-06	5.931267e-06	5.109138e-09	4.226110e+01	3.378789e+02
2.050000e-06	5.827652e-06	5.083559e-09	4.152283e+01	3.350634e+02
2.060000e-06	5.721975e-06	5.098536e-09	4.076987e+01	3.321665e+02
2.070000e-06	5.614429e-06	5.023401e-09	4.000358e+01	3.291860e+02
2.080000e-06	5.504925e-06	4.963997e-09	3.922335e+01	3.261191e+02
2.090000e-06	5.393402e-06	4.902366e-09	3.842874e+01	3.229624e+02
2.100000e-06	5.279814e-06	4.841156e-09	3.761941e+01	3.197125e+02
2.110000e-06	5.164159e-06	4.801524e-09	3.679535e+01	3.163669e+02
2.120000e-06	5.046529e-06	4.787565e-09	3.595721e+01	3.129235e+02
2.130000e-06	4.926999e-06	4.737785e-09	3.510555e+01	3.093812e+02
2.140000e-06	4.805614e-06	4.644773e-09	3.424066e+01	3.057391e+02
2.150000e-06	4.682529e-06	4.581908e-09	3.336367e+01	3.019968e+02
2.160000e-06	4.557705e-06	4.545441e-09	3.247428e+01	2.981532e+02
2.170000e-06	4.431239e-06	4.502575e-09	3.157319e+01	2.942064e+02
2.180000e-06	4.303209e-06	4.421461e-09	3.066096e+01	2.901533e+02
2.190000e-06	4.173543e-06	4.355342e-09	2.973707e+01	2.859894e+02
2.200000e-06	4.042387e-06	4.283587e-09	2.880256e+01	2.817091e+02
2.210000e-06	3.909655e-06	4.215316e-09	2.785683e+01	2.773063e+02
2.220000e-06	3.775430e-06	4.162093e-09	2.690046e+01	2.727746e+02
2.230000e-06	3.639765e-06	4.112158e-09	2.593383e+01	2.681082e+02
2.240000e-06	3.502745e-06	4.028079e-09	2.495754e+01	2.633024e+02
2.250000e-06	3.364439e-06	3.930610e-09	2.397209e+01	2.583542e+02
2.260000e-06	3.224850e-06	3.860061e-09	2.297750e+01	2.532621e+02
2.270000e-06	3.083938e-06	3.802074e-09	2.197348e+01	2.480259e+02
2.280000e-06	2.941772e-06	3.722423e-09	2.096053e+01	2.426459e+02
2.290000e-06	2.798533e-06	3.623088e-09	1.993994e+01	2.371222e+02
2.300000e-06	2.654245e-06	3.526365e-09	1.891186e+01	2.314537e+02
2.310000e-06	2.509017e-06	3.428524e-09	1.787710e+01	2.256370e+02
2.320000e-06	2.362998e-06	3.344893e-09	1.683669e+01	2.196657e+02
2.330000e-06	2.216259e-06	3.271550e-09	1.579115e+01	2.135303e+02
2.340000e-06	2.068753e-06	3.185893e-09	1.474015e+01	2.072184e+02
2.350000e-06	1.920507e-06	3.077454e-09	1.368388e+01	2.007151e+02
2.360000e-06	1.771568e-06	2.964413e-09	1.262266e+01	1.940045e+02
2.370000e-06	1.621996e-06	2.863491e-09	1.155695e+01	1.870710e+02
2.380000e-06	1.471946e-06	2.766236e-09	1.048782e+01	1.799001e+02
2.390000e-06	1.321517e-06	2.656167e-09	9.415992e+00	1.724803e+02
2.400000e-06	1.170707e-06	2.531595e-09	8.341446e+00	1.648030e+02
2.410000e-06	1.019476e-06	2.400991e-09	7.263909e+00	1.568626e+02
2.420000e-06	8.678628e-07	2.273085e-09	6.183642e+00	1.486555e+02
2.430000e-06	7.159427e-07	2.154264e-09	5.101190e+00	1.401785e+02
2.440000e-06	5.637566e-07	2.034969e-09	4.016843e+00	1.314267e+02
2.450000e-06	4.113195e-07	1.899952e-09	2.930708e+00	1.223914e+02
2.460000e-06	2.586632e-07	1.751921e-09	1.843011e+00	1.130575e+02
2.470000e-06	1.059284e-07	1.602060e-09	7.547544e-01	1.034026e+02
2.480000e-06	-4.684456e-08	1.451483e-09	-3.337740e-01	9.339603e+01
2.490000e-06	-1.996068e-07	1.294089e-09	-1.422226e+00	8.300031e+01
2.500000e-06	-3.522963e-07	1.127895e-09	-2.510160e+00	7.217311e+01
2.510000e-06	-5.049244e-07	9.527577e-10	-3.597656e+00	6.087117e+01
2.520000e-06	-6.574018e-07	7.691195e-10	-4.684079e+00	4.905520e+01
2.530000e-06	-8.095908e-07	5.833699e-10	-5.768446e+00	3.669551e+01
2.540000e-06	-9.614119e-07	3.964089e-10	-6.850192e+00	2.377768e+01
2.550000e-06	-1.112860e-06	1.972188e-10	-7.929283e+00	1.030778e+01
2.560000e-06	-1.263949e-06	-2.000672e-11	-9.005815e+00	-3.683762e+00
2.570000e-06	-1.414591e-06	-2.473562e-10	-1.007916e+01	-1.814001e+01
2.580000e-06	-1.564774e-06	-4.757912e-10	-1.114923e+01	-3.297759e+01
2.590000e-06	-1.714456e-06	-7.051143e-10	-1.221574e+01	-4.808914e+01
2.600000e-06	-1.863487e-06	-9.395206e-10	-1.327760e+01	-6.334800e+01
2.610000e-06	-2.011853e-06	-1.177091e-09	-1.433473e+01	-7.861484e+01
2.620000e-06	-2.159409e-06	-1.414656e-09	-1.538609e+01	-9.374552e+01
2.630000e-06	-2.306058e-06	-1.647379e-09	-1.643098e+01	-1.085996e+02
2.640000e-06	-2.451905e-06	-1.869280e-09	-1.747016e+01	-1.230487e+02
2.650000e-06	-2.596845e-06	-2.079053e-09	-1.850288e+01	-1.369832e+02
2.660000e-06	-2.740727e-06	-2.278744e-09	-1.952806e+01	-1.503181e+02
2.670000e-06	-2.883525e-06	-2.471247e-09	-2.054552e+01	-1.629959e+02
2.680000e-06	-3.025211e-06	-2.654440e-09	-2.155505e+01	-1.749875e+02
2.690000e-06	-3.165743e-06	-2.826609e-09	-2.255636e+01	-1.862902e+02
2.700000e-06	-3.305033e-06	-2.988043e-09	-2.354882e+01	-1.969241e+02
2.710000e-06	-3.443013e-06	-3.139757e-09	-2.453194e+01	-2.069269e+02
2.720000e-06	-3.579585e-06	-3.285303e-09	-2.550504e+01	-2.163476e+02
2.730000e-06	-3.714779e-06	-3.423974e-09	-2.646832e+01	-2.252406e+02
2.740000e-06	-3.848771e-06	-3.555396e-09	-2.742303e+01	-2.336594e+02
2.750000e-06	-3.981463e-06	-3.678563e-09	-2.836847e+01	-2.416529e+02
2.760000e-06	-4.112643e-06	-3.795197e-09	-2.930315e+01	-2.492619e+02
2.770000e-06	-4.242414e-06	-3.906385e-09	-3.022778e+01	-2.565183e+02
2.780000e-06	-4.370761e-06	-4.012146e-09	-3.114227e+01	-2.634453e+02
2.790000e-06	-4.497612e-06	-4.112866e-09	-3.204611e+01	-2.700586e+02
2.800000e-06	-4.623009e-06	-4.207496e-09	-3.293958e+01	-2.763695e+02
2.810000e-06	-4.746703e-06	-4.297127e-09	-3.382092e+01	-2.823874e+02
2.820000e-06	-4.868614e-06	-4.382234e-09	-3.468955e+01	-2.881221e+02
2.830000e-06	-4.988753e-06	-4.466295e-09	-3.554555e+01	-2.935862e+02
2.840000e-06	-5.107080e-06	-4.549105e-09	-3.638865e+01	-2.987956e+02
2.850000e-06	-5.223353e-06	-4.626273e-09	-3.721711e+01	-3.037697e+02
2.860000e-06	-5.337356e-06	-4.698027e-09	-3.802940e+01	-3.085301e+02
2.870000e-06	-5.449245e-06	-4.768306e-09	-3.882663e+01	-3.130991e+02
2.880000e-06	-5.559098e-06	-4.839066e-09	-3.960934e+01	-3.174973e+02
2.890000e-06	-5.666985e-06	-4.908169e-09	-4.037805e+01	-3.217415e+02
2.900000e-06	-5.772968e-06	-4.974364e-09	-4.113319e+01	-3.258434e+02
2.910000e-06	-5.876906e-06	-5.036728e-09	-4.187377e+01	-3.298078e+02
2.920000e-06	-5.978622e-06	-5.093611e-09	-4.259851e+01	-3.336334e+02
2.930000e-06	-6.078100e-06	-5.147880e-09	-4.330730e+01	-3.373135e+02
2.940000e-06	-6.175457e-06	-5.201567e-09	-4.400099e+01	-3.408375e+02
