# Temperatura_=_42.69
# Concentracion g/m^3_=_5000.0
# C_Vs_to_Am_M_A/Vsm_=_65563218390.804596
# pendiente_HvsI_1/m_=_3716.3
# ordenada_HvsI_A/m_=_1297.0
# frecuencia_Hz_=_302570.53099639155

Tiempo_(s)	Campo_(V.s)	Magnetizacion_(V.s)	Campo_(kA/m)	Magnetizacion_(A/m)
0.000000e+00	-7.965711e-06	-5.703666e-09	-5.685306e+01	-3.739059e+02
1.000000e-08	-7.962592e-06	-5.701987e-09	-5.683080e+01	-3.736477e+02
2.000000e-08	-7.956814e-06	-5.695554e-09	-5.678956e+01	-3.733268e+02
3.000000e-08	-7.948523e-06	-5.688833e-09	-5.673039e+01	-3.729655e+02
4.000000e-08	-7.937469e-06	-5.684375e-09	-5.665149e+01	-3.725859e+02
5.000000e-08	-7.923377e-06	-5.679191e-09	-5.655091e+01	-3.722066e+02
6.000000e-08	-7.906369e-06	-5.672328e-09	-5.642952e+01	-3.718401e+02
7.000000e-08	-7.886988e-06	-5.667571e-09	-5.629120e+01	-3.714909e+02
8.000000e-08	-7.865376e-06	-5.670093e-09	-5.613695e+01	-3.711540e+02
9.000000e-08	-7.840866e-06	-5.676721e-09	-5.596201e+01	-3.708161e+02
1.000000e-07	-7.813009e-06	-5.699520e-09	-5.576319e+01	-3.704563e+02
1.100000e-07	-7.782125e-06	-5.686949e-09	-5.554277e+01	-3.700486e+02
1.200000e-07	-7.748552e-06	-5.644488e-09	-5.530315e+01	-3.695654e+02
1.300000e-07	-7.712388e-06	-5.587693e-09	-5.504504e+01	-3.689805e+02
1.400000e-07	-7.673841e-06	-5.524737e-09	-5.476992e+01	-3.682721e+02
1.500000e-07	-7.633151e-06	-5.528474e-09	-5.447951e+01	-3.674256e+02
1.600000e-07	-7.590052e-06	-5.591252e-09	-5.417190e+01	-3.664350e+02
1.700000e-07	-7.544154e-06	-5.660134e-09	-5.384431e+01	-3.653034e+02
1.800000e-07	-7.495622e-06	-5.598027e-09	-5.349793e+01	-3.640420e+02
1.900000e-07	-7.444160e-06	-5.541131e-09	-5.313063e+01	-3.626686e+02
2.000000e-07	-7.389604e-06	-5.496955e-09	-5.274125e+01	-3.612052e+02
2.100000e-07	-7.332358e-06	-5.428525e-09	-5.233268e+01	-3.596747e+02
2.200000e-07	-7.272488e-06	-5.468578e-09	-5.190537e+01	-3.580984e+02
2.300000e-07	-7.210023e-06	-5.466920e-09	-5.145954e+01	-3.564933e+02
2.400000e-07	-7.144849e-06	-5.419088e-09	-5.099439e+01	-3.548704e+02
2.500000e-07	-7.076875e-06	-5.382406e-09	-5.050924e+01	-3.532338e+02
2.600000e-07	-7.006198e-06	-5.389039e-09	-5.000480e+01	-3.515807e+02
2.700000e-07	-6.932778e-06	-5.394680e-09	-4.948079e+01	-3.499028e+02
2.800000e-07	-6.856598e-06	-5.355686e-09	-4.893708e+01	-3.481874e+02
2.900000e-07	-6.777617e-06	-5.332822e-09	-4.837337e+01	-3.464198e+02
3.000000e-07	-6.695947e-06	-5.289045e-09	-4.779047e+01	-3.445853e+02
3.100000e-07	-6.611965e-06	-5.251610e-09	-4.719108e+01	-3.426715e+02
3.200000e-07	-6.525755e-06	-5.236957e-09	-4.657577e+01	-3.406691e+02
3.300000e-07	-6.437290e-06	-5.198076e-09	-4.594438e+01	-3.385732e+02
3.400000e-07	-6.346451e-06	-5.141788e-09	-4.529604e+01	-3.363830e+02
3.500000e-07	-6.253302e-06	-5.081815e-09	-4.463122e+01	-3.341013e+02
3.600000e-07	-6.157968e-06	-5.061309e-09	-4.395080e+01	-3.317336e+02
3.700000e-07	-6.060332e-06	-5.045206e-09	-4.325395e+01	-3.292865e+02
3.800000e-07	-5.960450e-06	-5.023312e-09	-4.254106e+01	-3.267663e+02
3.900000e-07	-5.858445e-06	-5.002685e-09	-4.181304e+01	-3.241778e+02
4.000000e-07	-5.754389e-06	-4.944259e-09	-4.107036e+01	-3.215233e+02
4.100000e-07	-5.648285e-06	-4.864225e-09	-4.031307e+01	-3.188026e+02
4.200000e-07	-5.540216e-06	-4.814677e-09	-3.954176e+01	-3.160126e+02
4.300000e-07	-5.430225e-06	-4.813265e-09	-3.875673e+01	-3.131481e+02
4.400000e-07	-5.318262e-06	-4.771945e-09	-3.795763e+01	-3.102026e+02
4.500000e-07	-5.204197e-06	-4.699614e-09	-3.714351e+01	-3.071692e+02
4.600000e-07	-5.087998e-06	-4.650098e-09	-3.631418e+01	-3.040413e+02
4.700000e-07	-4.969907e-06	-4.601950e-09	-3.547134e+01	-3.008137e+02
4.800000e-07	-4.850071e-06	-4.537562e-09	-3.461604e+01	-2.974826e+02
4.900000e-07	-4.728469e-06	-4.489918e-09	-3.374814e+01	-2.940455e+02
5.000000e-07	-4.605049e-06	-4.454489e-09	-3.286726e+01	-2.905015e+02
5.100000e-07	-4.479893e-06	-4.388535e-09	-3.197400e+01	-2.868502e+02
5.200000e-07	-4.353180e-06	-4.317554e-09	-3.106962e+01	-2.830915e+02
5.300000e-07	-4.224954e-06	-4.272828e-09	-3.015444e+01	-2.792247e+02
5.400000e-07	-4.095226e-06	-4.223662e-09	-2.922854e+01	-2.752484e+02
5.500000e-07	-3.963911e-06	-4.141475e-09	-2.829132e+01	-2.711603e+02
5.600000e-07	-3.831030e-06	-4.067809e-09	-2.734292e+01	-2.669569e+02
5.700000e-07	-3.696768e-06	-4.011710e-09	-2.638466e+01	-2.626342e+02
5.800000e-07	-3.561162e-06	-3.938243e-09	-2.541681e+01	-2.581881e+02
5.900000e-07	-3.424138e-06	-3.855054e-09	-2.443884e+01	-2.536147e+02
6.000000e-07	-3.285725e-06	-3.787564e-09	-2.345096e+01	-2.489106e+02
6.100000e-07	-3.145861e-06	-3.723820e-09	-2.245271e+01	-2.440733e+02
6.200000e-07	-3.004623e-06	-3.639177e-09	-2.144466e+01	-2.391005e+02
6.300000e-07	-2.862265e-06	-3.558150e-09	-2.042863e+01	-2.339903e+02
6.400000e-07	-2.718816e-06	-3.492561e-09	-1.940480e+01	-2.287400e+02
6.500000e-07	-2.574247e-06	-3.418076e-09	-1.837298e+01	-2.233456e+02
6.600000e-07	-2.428675e-06	-3.327038e-09	-1.733400e+01	-2.178011e+02
6.700000e-07	-2.282303e-06	-3.232407e-09	-1.628931e+01	-2.120979e+02
6.800000e-07	-2.135255e-06	-3.138106e-09	-1.523979e+01	-2.062245e+02
6.900000e-07	-1.987528e-06	-3.036433e-09	-1.418543e+01	-2.001673e+02
7.000000e-07	-1.839227e-06	-2.935751e-09	-1.312697e+01	-1.939108e+02
7.100000e-07	-1.690451e-06	-2.841152e-09	-1.206512e+01	-1.874389e+02
7.200000e-07	-1.541105e-06	-2.742016e-09	-1.099921e+01	-1.807362e+02
7.300000e-07	-1.391208e-06	-2.633647e-09	-9.929363e+00	-1.737888e+02
7.400000e-07	-1.240853e-06	-2.523229e-09	-8.856248e+00	-1.665858e+02
7.500000e-07	-1.090070e-06	-2.411956e-09	-7.780072e+00	-1.591191e+02
7.600000e-07	-9.389194e-07	-2.297858e-09	-6.701278e+00	-1.513835e+02
7.700000e-07	-7.874742e-07	-2.178547e-09	-5.620379e+00	-1.433754e+02
7.800000e-07	-6.357471e-07	-2.050858e-09	-4.537469e+00	-1.350914e+02
7.900000e-07	-4.837562e-07	-1.917693e-09	-3.452676e+00	-1.265263e+02
8.000000e-07	-3.315472e-07	-1.779567e-09	-2.366326e+00	-1.176705e+02
8.100000e-07	-1.791631e-07	-1.636977e-09	-1.278727e+00	-1.085084e+02
8.200000e-07	-2.668599e-08	-1.488633e-09	-1.904639e-01	-9.901683e+01
8.300000e-07	1.258075e-07	-1.334440e-09	8.979165e-01	-8.916534e+01
8.400000e-07	2.782509e-07	-1.176020e-09	1.985939e+00	-7.891682e+01
8.500000e-07	4.306280e-07	-1.011058e-09	3.073489e+00	-6.823030e+01
8.600000e-07	5.829478e-07	-8.404485e-10	4.160629e+00	-5.706475e+01
8.700000e-07	7.350629e-07	-6.639809e-10	5.246308e+00	-4.538411e+01
8.800000e-07	8.869356e-07	-4.819355e-10	6.330257e+00	-3.316275e+01
8.900000e-07	1.038578e-06	-2.904012e-10	7.412563e+00	-2.039112e+01
9.000000e-07	1.189817e-06	-8.913865e-11	8.491992e+00	-7.080569e+00
9.100000e-07	1.340500e-06	1.174169e-10	9.567450e+00	6.733054e+00
9.200000e-07	1.490655e-06	3.315730e-10	1.063914e+01	2.098766e+01
9.300000e-07	1.640333e-06	5.543242e-10	1.170743e+01	3.559539e+01
9.400000e-07	1.789474e-06	7.839410e-10	1.277188e+01	5.044550e+01
9.500000e-07	1.938043e-06	1.014271e-09	1.383225e+01	6.540927e+01
9.600000e-07	2.085968e-06	1.245597e-09	1.488802e+01	8.034694e+01
9.700000e-07	2.233095e-06	1.474848e-09	1.593810e+01	9.511564e+01
9.800000e-07	2.379350e-06	1.693983e-09	1.698195e+01	1.095778e+02
9.900000e-07	2.524775e-06	1.902228e-09	1.801988e+01	1.236094e+02
1.000000e-06	2.669256e-06	2.100180e-09	1.905108e+01	1.371062e+02
1.010000e-06	2.812685e-06	2.294181e-09	2.007476e+01	1.499895e+02
1.020000e-06	2.955023e-06	2.479295e-09	2.109066e+01	1.622083e+02
1.030000e-06	3.096175e-06	2.650771e-09	2.209809e+01	1.737398e+02
1.040000e-06	3.236060e-06	2.814308e-09	2.309648e+01	1.845871e+02
1.050000e-06	3.374624e-06	2.969583e-09	2.408544e+01	1.947753e+02
1.060000e-06	3.511871e-06	3.117826e-09	2.506501e+01	2.043457e+02
1.070000e-06	3.647690e-06	3.255214e-09	2.603438e+01	2.133500e+02
1.080000e-06	3.782120e-06	3.386875e-09	2.699384e+01	2.218437e+02
1.090000e-06	3.915328e-06	3.512639e-09	2.794458e+01	2.298809e+02
1.100000e-06	4.047179e-06	3.632934e-09	2.888562e+01	2.375097e+02
1.110000e-06	4.177544e-06	3.748166e-09	2.981607e+01	2.447698e+02
1.120000e-06	4.306387e-06	3.854681e-09	3.073564e+01	2.516918e+02
1.130000e-06	4.433690e-06	3.952717e-09	3.164424e+01	2.582969e+02
1.140000e-06	4.559562e-06	4.042446e-09	3.254261e+01	2.645996e+02
1.150000e-06	4.684038e-06	4.129266e-09	3.343103e+01	2.706098e+02
1.160000e-06	4.806865e-06	4.215624e-09	3.430767e+01	2.763356e+02
1.170000e-06	4.927857e-06	4.299559e-09	3.517122e+01	2.817859e+02
1.180000e-06	5.047064e-06	4.378207e-09	3.602203e+01	2.869723e+02
1.190000e-06	5.164463e-06	4.453900e-09	3.685993e+01	2.919097e+02
1.200000e-06	5.279860e-06	4.528247e-09	3.768354e+01	2.966164e+02
1.210000e-06	5.393089e-06	4.601836e-09	3.849168e+01	3.011127e+02
1.220000e-06	5.504265e-06	4.669482e-09	3.928517e+01	3.054197e+02
1.230000e-06	5.613642e-06	4.729706e-09	4.006582e+01	3.095564e+02
1.240000e-06	5.721118e-06	4.785338e-09	4.083290e+01	3.135384e+02
1.250000e-06	5.826385e-06	4.840513e-09	4.158421e+01	3.173760e+02
1.260000e-06	5.929481e-06	4.896113e-09	4.232003e+01	3.210739e+02
1.270000e-06	6.030457e-06	4.950000e-09	4.304072e+01	3.246305e+02
1.280000e-06	6.129172e-06	4.998437e-09	4.374527e+01	3.280400e+02
1.290000e-06	6.225531e-06	5.042414e-09	4.443301e+01	3.312935e+02
1.300000e-06	6.319645e-06	5.088397e-09	4.510472e+01	3.343813e+02
1.310000e-06	6.411648e-06	5.135648e-09	4.576137e+01	3.372958e+02
1.320000e-06	6.501258e-06	5.178346e-09	4.640093e+01	3.400328e+02
1.330000e-06	6.588438e-06	5.215244e-09	4.702316e+01	3.425937e+02
1.340000e-06	6.673444e-06	5.249455e-09	4.762987e+01	3.449854e+02
1.350000e-06	6.756144e-06	5.283925e-09	4.822011e+01	3.472205e+02
1.360000e-06	6.836339e-06	5.316930e-09	4.879248e+01	3.493158e+02
1.370000e-06	6.913975e-06	5.346394e-09	4.934659e+01	3.512905e+02
1.380000e-06	6.988942e-06	5.374819e-09	4.988165e+01	3.531637e+02
1.390000e-06	7.061303e-06	5.403298e-09	5.039810e+01	3.549522e+02
1.400000e-06	7.131222e-06	5.430064e-09	5.089713e+01	3.566687e+02
1.410000e-06	7.198599e-06	5.455037e-09	5.137801e+01	3.583203e+02
1.420000e-06	7.263305e-06	5.479564e-09	5.183984e+01	3.599080e+02
1.430000e-06	7.325483e-06	5.501894e-09	5.228361e+01	3.614278e+02
1.440000e-06	7.385273e-06	5.521260e-09	5.271035e+01	3.628713e+02
1.450000e-06	7.442439e-06	5.538759e-09	5.311835e+01	3.642283e+02
1.460000e-06	7.496868e-06	5.555709e-09	5.350682e+01	3.654887e+02
1.470000e-06	7.548327e-06	5.571212e-09	5.387410e+01	3.666451e+02
1.480000e-06	7.596699e-06	5.586056e-09	5.421934e+01	3.676939e+02
1.490000e-06	7.642315e-06	5.601689e-09	5.454491e+01	3.686370e+02
1.500000e-06	7.685360e-06	5.614519e-09	5.485214e+01	3.694817e+02
1.510000e-06	7.725655e-06	5.626385e-09	5.513973e+01	3.702396e+02
1.520000e-06	7.763134e-06	5.640598e-09	5.540723e+01	3.709251e+02
1.530000e-06	7.797856e-06	5.654282e-09	5.565504e+01	3.715536e+02
1.540000e-06	7.829710e-06	5.664043e-09	5.588239e+01	3.721386e+02
1.550000e-06	7.858917e-06	5.669340e-09	5.609085e+01	3.726899e+02
1.560000e-06	7.885402e-06	5.675404e-09	5.627988e+01	3.732119e+02
1.570000e-06	7.908869e-06	5.683655e-09	5.644737e+01	3.737027e+02
1.580000e-06	7.929565e-06	5.691674e-09	5.659508e+01	3.741546e+02
1.590000e-06	7.947593e-06	5.698257e-09	5.672375e+01	3.745549e+02
1.600000e-06	7.962594e-06	5.703590e-09	5.683081e+01	3.748884e+02
1.610000e-06	7.974426e-06	5.707660e-09	5.691526e+01	3.751395e+02
1.620000e-06	7.983170e-06	5.708184e-09	5.697767e+01	3.752950e+02
1.630000e-06	7.988977e-06	5.708166e-09	5.701911e+01	3.753467e+02
1.640000e-06	7.991958e-06	5.708707e-09	5.704039e+01	3.752931e+02
1.650000e-06	7.992113e-06	5.707249e-09	5.704150e+01	3.751400e+02
1.660000e-06	7.989646e-06	5.705050e-09	5.702389e+01	3.749001e+02
1.670000e-06	7.984590e-06	5.699229e-09	5.698780e+01	3.745923e+02
1.680000e-06	7.976836e-06	5.695712e-09	5.693247e+01	3.742383e+02
1.690000e-06	7.966402e-06	5.692421e-09	5.685800e+01	3.738607e+02
1.700000e-06	7.953115e-06	5.687786e-09	5.676316e+01	3.734793e+02
1.710000e-06	7.937112e-06	5.684245e-09	5.664894e+01	3.731083e+02
1.720000e-06	7.918772e-06	5.674668e-09	5.651805e+01	3.727542e+02
1.730000e-06	7.898115e-06	5.656589e-09	5.637062e+01	3.724146e+02
1.740000e-06	7.874573e-06	5.624871e-09	5.620259e+01	3.720781e+02
1.750000e-06	7.847495e-06	5.604366e-09	5.600933e+01	3.717254e+02
1.760000e-06	7.816817e-06	5.610478e-09	5.579037e+01	3.713316e+02
1.770000e-06	7.783186e-06	5.626956e-09	5.555034e+01	3.708693e+02
1.780000e-06	7.747290e-06	5.671938e-09	5.529414e+01	3.703114e+02
1.790000e-06	7.709129e-06	5.694507e-09	5.502178e+01	3.696350e+02
1.800000e-06	7.668900e-06	5.676177e-09	5.473465e+01	3.688233e+02
1.810000e-06	7.626467e-06	5.612227e-09	5.443180e+01	3.678682e+02
1.820000e-06	7.581400e-06	5.571486e-09	5.411014e+01	3.667705e+02
1.830000e-06	7.533719e-06	5.561567e-09	5.376984e+01	3.655394e+02
1.840000e-06	7.483097e-06	5.556607e-09	5.340854e+01	3.641915e+02
1.850000e-06	7.429458e-06	5.602188e-09	5.302570e+01	3.627479e+02
1.860000e-06	7.373016e-06	5.542054e-09	5.262287e+01	3.612314e+02
1.870000e-06	7.313849e-06	5.450482e-09	5.220058e+01	3.596642e+02
1.880000e-06	7.252131e-06	5.398717e-09	5.176008e+01	3.580644e+02
1.890000e-06	7.187654e-06	5.376295e-09	5.129989e+01	3.564447e+02
1.900000e-06	7.120388e-06	5.390411e-09	5.081980e+01	3.548109e+02
1.910000e-06	7.050335e-06	5.381313e-09	5.031982e+01	3.531619e+02
1.920000e-06	6.977482e-06	5.364992e-09	4.979985e+01	3.514907e+02
1.930000e-06	6.901983e-06	5.271710e-09	4.926099e+01	3.497853e+02
1.940000e-06	6.823635e-06	5.252212e-09	4.870181e+01	3.480316e+02
1.950000e-06	6.742692e-06	5.274888e-09	4.812410e+01	3.462145e+02
1.960000e-06	6.659382e-06	5.233179e-09	4.752950e+01	3.443210e+02
1.970000e-06	6.573614e-06	5.200205e-09	4.691735e+01	3.423407e+02
1.980000e-06	6.485389e-06	5.147010e-09	4.628767e+01	3.402678e+02
1.990000e-06	6.394804e-06	5.131542e-09	4.564114e+01	3.381004e+02
2.000000e-06	6.302062e-06	5.091237e-09	4.497923e+01	3.358406e+02
2.010000e-06	6.207052e-06	5.076619e-09	4.430112e+01	3.334932e+02
2.020000e-06	6.109778e-06	5.048737e-09	4.360686e+01	3.310647e+02
2.030000e-06	6.010312e-06	4.966767e-09	4.289694e+01	3.285617e+02
2.040000e-06	5.908723e-06	4.907625e-09	4.217188e+01	3.259893e+02
2.050000e-06	5.805040e-06	4.906716e-09	4.143187e+01	3.233506e+02
2.060000e-06	5.699314e-06	4.925796e-09	4.067728e+01	3.206460e+02
2.070000e-06	5.591677e-06	4.853247e-09	3.990905e+01	3.178731e+02
2.080000e-06	5.482141e-06	4.780207e-09	3.912726e+01	3.150272e+02
2.090000e-06	5.370621e-06	4.714610e-09	3.833132e+01	3.121020e+02
2.100000e-06	5.257010e-06	4.663808e-09	3.752046e+01	3.090906e+02
2.110000e-06	5.141384e-06	4.639824e-09	3.669521e+01	3.059863e+02
2.120000e-06	5.023748e-06	4.644760e-09	3.585562e+01	3.027835e+02
2.130000e-06	4.904156e-06	4.600342e-09	3.500206e+01	2.994779e+02
2.140000e-06	4.782731e-06	4.496778e-09	3.413542e+01	2.960668e+02
2.150000e-06	4.659623e-06	4.422502e-09	3.325677e+01	2.925490e+02
2.160000e-06	4.534870e-06	4.389431e-09	3.236638e+01	2.889239e+02
2.170000e-06	4.408407e-06	4.355644e-09	3.146378e+01	2.851915e+02
2.180000e-06	4.280262e-06	4.288708e-09	3.054919e+01	2.813512e+02
2.190000e-06	4.150576e-06	4.229276e-09	2.962359e+01	2.774019e+02
2.200000e-06	4.019416e-06	4.157027e-09	2.868747e+01	2.733414e+02
2.210000e-06	3.886814e-06	4.086103e-09	2.774106e+01	2.691665e+02
2.220000e-06	3.752760e-06	4.037156e-09	2.678429e+01	2.648735e+02
2.230000e-06	3.617186e-06	3.998188e-09	2.581667e+01	2.604580e+02
2.240000e-06	3.480214e-06	3.918808e-09	2.483907e+01	2.559161e+02
2.250000e-06	3.341913e-06	3.821022e-09	2.385198e+01	2.512444e+02
2.260000e-06	3.202416e-06	3.754505e-09	2.285636e+01	2.464400e+02
2.270000e-06	3.061698e-06	3.701988e-09	2.185203e+01	2.415007e+02
2.280000e-06	2.919754e-06	3.626773e-09	2.083894e+01	2.364244e+02
2.290000e-06	2.776602e-06	3.533791e-09	1.981723e+01	2.312089e+02
2.300000e-06	2.632349e-06	3.441615e-09	1.878766e+01	2.258504e+02
2.310000e-06	2.487244e-06	3.349765e-09	1.775201e+01	2.203435e+02
2.320000e-06	2.341338e-06	3.272259e-09	1.671066e+01	2.146803e+02
2.330000e-06	2.194705e-06	3.206763e-09	1.566410e+01	2.088500e+02
2.340000e-06	2.047377e-06	3.127808e-09	1.461259e+01	2.028396e+02
2.350000e-06	1.899314e-06	3.018578e-09	1.355583e+01	1.966338e+02
2.360000e-06	1.750536e-06	2.904994e-09	1.249397e+01	1.902166e+02
2.370000e-06	1.601280e-06	2.808317e-09	1.142869e+01	1.835724e+02
2.380000e-06	1.451594e-06	2.718649e-09	1.036035e+01	1.766868e+02
2.390000e-06	1.301440e-06	2.615343e-09	9.288669e+00	1.695479e+02
2.400000e-06	1.150820e-06	2.493949e-09	8.213660e+00	1.621471e+02
2.410000e-06	9.997341e-07	2.364693e-09	7.135326e+00	1.544785e+02
2.420000e-06	8.482800e-07	2.241564e-09	6.054364e+00	1.465382e+02
2.430000e-06	6.965168e-07	2.128372e-09	4.971197e+00	1.383230e+02
2.440000e-06	5.444851e-07	2.013248e-09	3.886112e+00	1.298282e+02
2.450000e-06	3.922277e-07	1.883446e-09	2.799417e+00	1.210457e+02
2.460000e-06	2.398179e-07	1.738797e-09	1.711634e+00	1.119614e+02
2.470000e-06	8.729690e-08	1.589005e-09	6.230575e-01	1.025542e+02
2.480000e-06	-6.530651e-08	1.440615e-09	-4.661072e-01	9.279532e+01
2.490000e-06	-2.178949e-07	1.289106e-09	-1.555164e+00	8.264920e+01
2.500000e-06	-3.703915e-07	1.129856e-09	-2.643567e+00	7.207549e+01
2.510000e-06	-5.228019e-07	9.603407e-10	-3.731354e+00	6.103276e+01
2.520000e-06	-6.750896e-07	7.822999e-10	-4.818265e+00	4.948319e+01
2.530000e-06	-8.271709e-07	6.018777e-10	-5.903704e+00	3.739802e+01
2.540000e-06	-9.789507e-07	4.174781e-10	-6.986990e+00	2.476318e+01
2.550000e-06	-1.130346e-06	2.199457e-10	-8.067534e+00	1.158439e+01
2.560000e-06	-1.281264e-06	6.676157e-12	-9.144667e+00	-2.108857e+00
2.570000e-06	-1.431646e-06	-2.132486e-10	-1.021798e+01	-1.626108e+01
2.580000e-06	-1.581488e-06	-4.343686e-10	-1.128743e+01	-3.079070e+01
2.590000e-06	-1.730734e-06	-6.592224e-10	-1.235264e+01	-4.559229e+01
2.600000e-06	-1.879391e-06	-8.910888e-10	-1.341363e+01	-6.054105e+01
2.610000e-06	-2.027350e-06	-1.124282e-09	-1.446965e+01	-7.549927e+01
2.620000e-06	-2.174483e-06	-1.355585e-09	-1.551977e+01	-9.032407e+01
2.630000e-06	-2.320757e-06	-1.581374e-09	-1.656376e+01	-1.048758e+02
2.640000e-06	-2.466183e-06	-1.796597e-09	-1.760170e+01	-1.190262e+02
2.650000e-06	-2.610758e-06	-2.002306e-09	-1.863357e+01	-1.326658e+02
2.660000e-06	-2.754363e-06	-2.201134e-09	-1.965850e+01	-1.457090e+02
2.670000e-06	-2.896845e-06	-2.392553e-09	-2.067543e+01	-1.580978e+02
2.680000e-06	-3.038167e-06	-2.571860e-09	-2.168408e+01	-1.698024e+02
2.690000e-06	-3.178239e-06	-2.737250e-09	-2.268380e+01	-1.808197e+02
2.700000e-06	-3.316941e-06	-2.890708e-09	-2.367375e+01	-1.911699e+02
2.710000e-06	-3.454416e-06	-3.036007e-09	-2.465494e+01	-2.008909e+02
2.720000e-06	-3.590747e-06	-3.176955e-09	-2.562796e+01	-2.100321e+02
2.730000e-06	-3.725727e-06	-3.313291e-09	-2.659135e+01	-2.186489e+02
2.740000e-06	-3.859318e-06	-3.442992e-09	-2.754482e+01	-2.267960e+02
2.750000e-06	-3.991538e-06	-3.563302e-09	-2.848850e+01	-2.345234e+02
2.760000e-06	-4.122305e-06	-3.675317e-09	-2.942182e+01	-2.418731e+02
2.770000e-06	-4.251712e-06	-3.781277e-09	-3.034542e+01	-2.488778e+02
2.780000e-06	-4.379701e-06	-3.882686e-09	-3.125890e+01	-2.555612e+02
2.790000e-06	-4.506107e-06	-3.979051e-09	-3.216110e+01	-2.619391e+02
2.800000e-06	-4.630941e-06	-4.069704e-09	-3.305206e+01	-2.680222e+02
2.810000e-06	-4.754144e-06	-4.155290e-09	-3.393139e+01	-2.738189e+02
2.820000e-06	-4.875702e-06	-4.237253e-09	-3.479897e+01	-2.793378e+02
2.830000e-06	-4.995509e-06	-4.319261e-09	-3.565406e+01	-2.845895e+02
2.840000e-06	-5.113304e-06	-4.398676e-09	-3.649479e+01	-2.895882e+02
2.850000e-06	-5.229016e-06	-4.471699e-09	-3.732066e+01	-2.943513e+02
2.860000e-06	-5.342595e-06	-4.540139e-09	-3.813129e+01	-2.988988e+02
2.870000e-06	-5.453950e-06	-4.608613e-09	-3.892606e+01	-3.032518e+02
2.880000e-06	-5.563256e-06	-4.677250e-09	-3.970620e+01	-3.074301e+02
2.890000e-06	-5.670761e-06	-4.742609e-09	-4.047349e+01	-3.114501e+02
2.900000e-06	-5.776385e-06	-4.804901e-09	-4.122736e+01	-3.153239e+02
2.910000e-06	-5.879931e-06	-4.864353e-09	-4.196639e+01	-3.190572e+02
2.920000e-06	-5.981193e-06	-4.918862e-09	-4.268911e+01	-3.226501e+02
2.930000e-06	-6.080231e-06	-4.971280e-09	-4.339597e+01	-3.260978e+02
2.940000e-06	-6.177224e-06	-5.021697e-09	-4.408823e+01	-3.293917e+02
