# Temperatura_=_26.29
# Concentracion g/m^3_=_5000.0
# C_Vs_to_Am_M_A/Vsm_=_65563218390.804596
# pendiente_HvsI_1/m_=_3716.3
# ordenada_HvsI_A/m_=_1297.0
# frecuencia_Hz_=_302573.8241961982

Tiempo_(s)	Campo_(V.s)	Magnetizacion_(V.s)	Campo_(kA/m)	Magnetizacion_(A/m)
0.000000e+00	-7.997821e-06	-5.941333e-09	-5.685187e+01	-3.885519e+02
1.000000e-08	-7.994741e-06	-5.930147e-09	-5.682998e+01	-3.883952e+02
2.000000e-08	-7.989021e-06	-5.926607e-09	-5.678932e+01	-3.881760e+02
3.000000e-08	-7.980719e-06	-5.922592e-09	-5.673031e+01	-3.879015e+02
4.000000e-08	-7.969609e-06	-5.916200e-09	-5.665133e+01	-3.875792e+02
5.000000e-08	-7.955514e-06	-5.912765e-09	-5.655113e+01	-3.872154e+02
6.000000e-08	-7.938573e-06	-5.913914e-09	-5.643071e+01	-3.868145e+02
7.000000e-08	-7.919185e-06	-5.910806e-09	-5.629289e+01	-3.863783e+02
8.000000e-08	-7.897440e-06	-5.929974e-09	-5.613832e+01	-3.859060e+02
9.000000e-08	-7.872835e-06	-5.861752e-09	-5.596342e+01	-3.853941e+02
1.000000e-07	-7.844937e-06	-5.859711e-09	-5.576511e+01	-3.848373e+02
1.100000e-07	-7.813965e-06	-5.897433e-09	-5.554494e+01	-3.842289e+02
1.200000e-07	-7.780254e-06	-5.864198e-09	-5.530532e+01	-3.835625e+02
1.300000e-07	-7.743945e-06	-5.828628e-09	-5.504721e+01	-3.828321e+02
1.400000e-07	-7.705330e-06	-5.821623e-09	-5.477272e+01	-3.820337e+02
1.500000e-07	-7.664538e-06	-5.882478e-09	-5.448276e+01	-3.811653e+02
1.600000e-07	-7.621249e-06	-5.765961e-09	-5.417504e+01	-3.802272e+02
1.700000e-07	-7.575218e-06	-5.784665e-09	-5.384783e+01	-3.792217e+02
1.800000e-07	-7.526399e-06	-5.860457e-09	-5.350080e+01	-3.781529e+02
1.900000e-07	-7.474630e-06	-5.710747e-09	-5.313281e+01	-3.770252e+02
2.000000e-07	-7.419929e-06	-5.747990e-09	-5.274398e+01	-3.758430e+02
2.100000e-07	-7.362528e-06	-5.724719e-09	-5.233594e+01	-3.746094e+02
2.200000e-07	-7.302472e-06	-5.687822e-09	-5.190904e+01	-3.733259e+02
2.300000e-07	-7.239738e-06	-5.704207e-09	-5.146310e+01	-3.719917e+02
2.400000e-07	-7.174257e-06	-5.633369e-09	-5.099763e+01	-3.706041e+02
2.500000e-07	-7.106055e-06	-5.670658e-09	-5.051283e+01	-3.691582e+02
2.600000e-07	-7.035174e-06	-5.606776e-09	-5.000897e+01	-3.676483e+02
2.700000e-07	-6.961532e-06	-5.583431e-09	-4.948550e+01	-3.660678e+02
2.800000e-07	-6.885048e-06	-5.565449e-09	-4.894181e+01	-3.644111e+02
2.900000e-07	-6.805735e-06	-5.569337e-09	-4.837803e+01	-3.626734e+02
3.000000e-07	-6.723841e-06	-5.543523e-09	-4.779588e+01	-3.608517e+02
3.100000e-07	-6.639621e-06	-5.461813e-09	-4.719722e+01	-3.589450e+02
3.200000e-07	-6.553144e-06	-5.488418e-09	-4.658250e+01	-3.569541e+02
3.300000e-07	-6.464354e-06	-5.423364e-09	-4.595134e+01	-3.548813e+02
3.400000e-07	-6.373172e-06	-5.375115e-09	-4.530319e+01	-3.527297e+02
3.500000e-07	-6.279689e-06	-5.338382e-09	-4.463867e+01	-3.505021e+02
3.600000e-07	-6.183952e-06	-5.325630e-09	-4.395813e+01	-3.482009e+02
3.700000e-07	-6.085959e-06	-5.289777e-09	-4.326155e+01	-3.458270e+02
3.800000e-07	-5.985721e-06	-5.229651e-09	-4.254902e+01	-3.433796e+02
3.900000e-07	-5.883319e-06	-5.218288e-09	-4.182110e+01	-3.408559e+02
4.000000e-07	-5.778848e-06	-5.172684e-09	-4.107848e+01	-3.382520e+02
4.100000e-07	-5.672331e-06	-5.125858e-09	-4.032131e+01	-3.355627e+02
4.200000e-07	-5.563864e-06	-5.057992e-09	-3.955029e+01	-3.327825e+02
4.300000e-07	-5.453422e-06	-5.037978e-09	-3.876521e+01	-3.299065e+02
4.400000e-07	-5.340888e-06	-4.996552e-09	-3.796528e+01	-3.269304e+02
4.500000e-07	-5.226260e-06	-4.939360e-09	-3.715045e+01	-3.238519e+02
4.600000e-07	-5.109637e-06	-4.887788e-09	-3.632145e+01	-3.206698e+02
4.700000e-07	-4.991148e-06	-4.846352e-09	-3.547918e+01	-3.173846e+02
4.800000e-07	-4.870831e-06	-4.793031e-09	-3.462392e+01	-3.139975e+02
4.900000e-07	-4.748720e-06	-4.726695e-09	-3.375589e+01	-3.105100e+02
5.000000e-07	-4.624856e-06	-4.682262e-09	-3.287542e+01	-3.069229e+02
5.100000e-07	-4.499372e-06	-4.625150e-09	-3.198343e+01	-3.032359e+02
5.200000e-07	-4.372248e-06	-4.566908e-09	-3.107977e+01	-2.994467e+02
5.300000e-07	-4.243450e-06	-4.495482e-09	-3.016422e+01	-2.955510e+02
5.400000e-07	-4.113219e-06	-4.436855e-09	-2.923849e+01	-2.915425e+02
5.500000e-07	-3.981428e-06	-4.368621e-09	-2.830166e+01	-2.874134e+02
5.600000e-07	-3.848106e-06	-4.302160e-09	-2.735396e+01	-2.831551e+02
5.700000e-07	-3.713335e-06	-4.238367e-09	-2.639594e+01	-2.787590e+02
5.800000e-07	-3.577008e-06	-4.171123e-09	-2.542687e+01	-2.742175e+02
5.900000e-07	-3.439316e-06	-4.098677e-09	-2.444810e+01	-2.695247e+02
6.000000e-07	-3.300289e-06	-4.019743e-09	-2.345984e+01	-2.646768e+02
6.100000e-07	-3.159756e-06	-3.946915e-09	-2.246087e+01	-2.596720e+02
6.200000e-07	-3.017802e-06	-3.868671e-09	-2.145180e+01	-2.545105e+02
6.300000e-07	-2.874759e-06	-3.791752e-09	-2.043500e+01	-2.491933e+02
6.400000e-07	-2.730788e-06	-3.707266e-09	-1.941159e+01	-2.437213e+02
6.500000e-07	-2.585779e-06	-3.623089e-09	-1.838080e+01	-2.380945e+02
6.600000e-07	-2.439797e-06	-3.533473e-09	-1.734310e+01	-2.323105e+02
6.700000e-07	-2.293036e-06	-3.441781e-09	-1.629986e+01	-2.263638e+02
6.800000e-07	-2.145512e-06	-3.346077e-09	-1.525120e+01	-2.202457e+02
6.900000e-07	-1.997257e-06	-3.244126e-09	-1.419734e+01	-2.139444e+02
7.000000e-07	-1.848349e-06	-3.144031e-09	-1.313884e+01	-2.074454e+02
7.100000e-07	-1.698860e-06	-3.040589e-09	-1.207621e+01	-2.007329e+02
7.200000e-07	-1.548938e-06	-2.936162e-09	-1.101050e+01	-1.937911e+02
7.300000e-07	-1.398564e-06	-2.823597e-09	-9.941579e+00	-1.866056e+02
7.400000e-07	-1.247675e-06	-2.710184e-09	-8.868997e+00	-1.791646e+02
7.500000e-07	-1.096217e-06	-2.592490e-09	-7.792372e+00	-1.714594e+02
7.600000e-07	-9.443135e-07	-2.473906e-09	-6.712577e+00	-1.634850e+02
7.700000e-07	-7.921563e-07	-2.350995e-09	-5.630980e+00	-1.552389e+02
7.800000e-07	-6.397057e-07	-2.221808e-09	-4.547297e+00	-1.467205e+02
7.900000e-07	-4.870499e-07	-2.086587e-09	-3.462155e+00	-1.379284e+02
8.000000e-07	-3.342583e-07	-1.943701e-09	-2.376049e+00	-1.288596e+02
8.100000e-07	-1.813062e-07	-1.799732e-09	-1.288801e+00	-1.195062e+02
8.200000e-07	-2.822501e-08	-1.648727e-09	-2.006353e-01	-1.098547e+02
8.300000e-07	1.249138e-07	-1.493587e-09	8.879395e-01	-9.988494e+01
8.400000e-07	2.780541e-07	-1.332501e-09	1.976525e+00	-8.957045e+01
8.500000e-07	4.311319e-07	-1.168325e-09	3.064667e+00	-7.887972e+01
8.600000e-07	5.841088e-07	-9.995984e-10	4.152091e+00	-6.777900e+01
8.700000e-07	7.369080e-07	-8.239075e-10	5.238252e+00	-5.623595e+01
8.800000e-07	8.894386e-07	-6.430190e-10	6.322503e+00	-4.422394e+01
8.900000e-07	1.041686e-06	-4.544597e-10	7.404744e+00	-3.172674e+01
9.000000e-07	1.193654e-06	-2.592583e-10	8.484993e+00	-1.874283e+01
9.100000e-07	1.345187e-06	-5.449348e-11	9.562158e+00	-5.289001e+00
9.200000e-07	1.496107e-06	1.547076e-10	1.063495e+01	8.597344e+00
9.300000e-07	1.646375e-06	3.692876e-10	1.170312e+01	2.285748e+01
9.400000e-07	1.796058e-06	5.894486e-10	1.276714e+01	3.741244e+01
9.500000e-07	1.945176e-06	8.128124e-10	1.382713e+01	5.216586e+01
9.600000e-07	2.093550e-06	1.041629e-09	1.488184e+01	6.700839e+01
9.700000e-07	2.241142e-06	1.267058e-09	1.593098e+01	8.182332e+01
9.800000e-07	2.387947e-06	1.486865e-09	1.697453e+01	9.649279e+01
9.900000e-07	2.533910e-06	1.702999e-09	1.801210e+01	1.109041e+02
1.000000e-06	2.678960e-06	1.912488e-09	1.904318e+01	1.249556e+02
1.010000e-06	2.822957e-06	2.122686e-09	2.006676e+01	1.385613e+02
1.020000e-06	2.965857e-06	2.324904e-09	2.108256e+01	1.516539e+02
1.030000e-06	3.107564e-06	2.512414e-09	2.208987e+01	1.641870e+02
1.040000e-06	3.248003e-06	2.688220e-09	2.308817e+01	1.761345e+02
1.050000e-06	3.387199e-06	2.855449e-09	2.407763e+01	1.874887e+02
1.060000e-06	3.525077e-06	3.016580e-09	2.505773e+01	1.982582e+02
1.070000e-06	3.661564e-06	3.168440e-09	2.602794e+01	2.084633e+02
1.080000e-06	3.796642e-06	3.314157e-09	2.698812e+01	2.181323e+02
1.090000e-06	3.930406e-06	3.455195e-09	2.793898e+01	2.272979e+02
1.100000e-06	4.062824e-06	3.591252e-09	2.888026e+01	2.359933e+02
1.110000e-06	4.193792e-06	3.724395e-09	2.981124e+01	2.442501e+02
1.120000e-06	4.323221e-06	3.850656e-09	3.073127e+01	2.520965e+02
1.130000e-06	4.451032e-06	3.965414e-09	3.163981e+01	2.595571e+02
1.140000e-06	4.577356e-06	4.068668e-09	3.253777e+01	2.666529e+02
1.150000e-06	4.702187e-06	4.164945e-09	3.342512e+01	2.734024e+02
1.160000e-06	4.825378e-06	4.260476e-09	3.430081e+01	2.798228e+02
1.170000e-06	4.946857e-06	4.352124e-09	3.516434e+01	2.859312e+02
1.180000e-06	5.066555e-06	4.439555e-09	3.601520e+01	2.917452e+02
1.190000e-06	5.184355e-06	4.522241e-09	3.685257e+01	2.972841e+02
1.200000e-06	5.300226e-06	4.605377e-09	3.767623e+01	3.025678e+02
1.210000e-06	5.414077e-06	4.689818e-09	3.848553e+01	3.076169e+02
1.220000e-06	5.525790e-06	4.768814e-09	3.927964e+01	3.124515e+02
1.230000e-06	5.635551e-06	4.836689e-09	4.005987e+01	3.170898e+02
1.240000e-06	5.743390e-06	4.898210e-09	4.082643e+01	3.215467e+02
1.250000e-06	5.849104e-06	4.959737e-09	4.157789e+01	3.258335e+02
1.260000e-06	5.952671e-06	5.022081e-09	4.231408e+01	3.299567e+02
1.270000e-06	6.054058e-06	5.082615e-09	4.303479e+01	3.339183e+02
1.280000e-06	6.153190e-06	5.138929e-09	4.373946e+01	3.377166e+02
1.290000e-06	6.249953e-06	5.194106e-09	4.442729e+01	3.413471e+02
1.300000e-06	6.344377e-06	5.247511e-09	4.509850e+01	3.448041e+02
1.310000e-06	6.436579e-06	5.297605e-09	4.575391e+01	3.480819e+02
1.320000e-06	6.526466e-06	5.342998e-09	4.639287e+01	3.511771e+02
1.330000e-06	6.614046e-06	5.385078e-09	4.701542e+01	3.540889e+02
1.340000e-06	6.699317e-06	5.423867e-09	4.762156e+01	3.568206e+02
1.350000e-06	6.782256e-06	5.460414e-09	4.821112e+01	3.593792e+02
1.360000e-06	6.862750e-06	5.497369e-09	4.878331e+01	3.617751e+02
1.370000e-06	6.940686e-06	5.532538e-09	4.933731e+01	3.640211e+02
1.380000e-06	7.016084e-06	5.566658e-09	4.987328e+01	3.661316e+02
1.390000e-06	7.088866e-06	5.599229e-09	5.039063e+01	3.681204e+02
1.400000e-06	7.159058e-06	5.628669e-09	5.088959e+01	3.700002e+02
1.410000e-06	7.226767e-06	5.656132e-09	5.137090e+01	3.717810e+02
1.420000e-06	7.291857e-06	5.681417e-09	5.183358e+01	3.734696e+02
1.430000e-06	7.354286e-06	5.704986e-09	5.227735e+01	3.750696e+02
1.440000e-06	7.414276e-06	5.727462e-09	5.270379e+01	3.765819e+02
1.450000e-06	7.471688e-06	5.746546e-09	5.311190e+01	3.780049e+02
1.460000e-06	7.526401e-06	5.762673e-09	5.350082e+01	3.793362e+02
1.470000e-06	7.578235e-06	5.778527e-09	5.386928e+01	3.805735e+02
1.480000e-06	7.626908e-06	5.794672e-09	5.421527e+01	3.817154e+02
1.490000e-06	7.672706e-06	5.811508e-09	5.454082e+01	3.827624e+02
1.500000e-06	7.715886e-06	5.827052e-09	5.484776e+01	3.837171e+02
1.510000e-06	7.756271e-06	5.841988e-09	5.513483e+01	3.845844e+02
1.520000e-06	7.793868e-06	5.856315e-09	5.540209e+01	3.853705e+02
1.530000e-06	7.828789e-06	5.868322e-09	5.565032e+01	3.860828e+02
1.540000e-06	7.860874e-06	5.877546e-09	5.587839e+01	3.867282e+02
1.550000e-06	7.890166e-06	5.885181e-09	5.608661e+01	3.873127e+02
1.560000e-06	7.916736e-06	5.892778e-09	5.627548e+01	3.878405e+02
1.570000e-06	7.940385e-06	5.900756e-09	5.644359e+01	3.883132e+02
1.580000e-06	7.961239e-06	5.908238e-09	5.659183e+01	3.887302e+02
1.590000e-06	7.979352e-06	5.913063e-09	5.672058e+01	3.890887e+02
1.600000e-06	7.994427e-06	5.916995e-09	5.682774e+01	3.893842e+02
1.610000e-06	8.006360e-06	5.921919e-09	5.691257e+01	3.896120e+02
1.620000e-06	8.015180e-06	5.926103e-09	5.697527e+01	3.897677e+02
1.630000e-06	8.021126e-06	5.928721e-09	5.701753e+01	3.898482e+02
1.640000e-06	8.024263e-06	5.931700e-09	5.703983e+01	3.898528e+02
1.650000e-06	8.024498e-06	5.928318e-09	5.704150e+01	3.897829e+02
1.660000e-06	8.022061e-06	5.930713e-09	5.702418e+01	3.896426e+02
1.670000e-06	8.017001e-06	5.926610e-09	5.698821e+01	3.894380e+02
1.680000e-06	8.009220e-06	5.920216e-09	5.693290e+01	3.891763e+02
1.690000e-06	7.998773e-06	5.916923e-09	5.685864e+01	3.888650e+02
1.700000e-06	7.985555e-06	5.912064e-09	5.676468e+01	3.885108e+02
1.710000e-06	7.969558e-06	5.900688e-09	5.665097e+01	3.881185e+02
1.720000e-06	7.951150e-06	5.883781e-09	5.652011e+01	3.876908e+02
1.730000e-06	7.930418e-06	5.860297e-09	5.637274e+01	3.872274e+02
1.740000e-06	7.906794e-06	5.930371e-09	5.620481e+01	3.867256e+02
1.750000e-06	7.879624e-06	5.875537e-09	5.601168e+01	3.861802e+02
1.760000e-06	7.848863e-06	5.842528e-09	5.579302e+01	3.855851e+02
1.770000e-06	7.815249e-06	5.880958e-09	5.555407e+01	3.849334e+02
1.780000e-06	7.779260e-06	5.886102e-09	5.529825e+01	3.842192e+02
1.790000e-06	7.740904e-06	5.764429e-09	5.502560e+01	3.834377e+02
1.800000e-06	7.700463e-06	5.816534e-09	5.473812e+01	3.825865e+02
1.810000e-06	7.657800e-06	5.828232e-09	5.443486e+01	3.816654e+02
1.820000e-06	7.612567e-06	5.673930e-09	5.411333e+01	3.806761e+02
1.830000e-06	7.564684e-06	5.875692e-09	5.377295e+01	3.796224e+02
1.840000e-06	7.513821e-06	5.725678e-09	5.341140e+01	3.785087e+02
1.850000e-06	7.459955e-06	5.765577e-09	5.302850e+01	3.773394e+02
1.860000e-06	7.403275e-06	5.773774e-09	5.262559e+01	3.761181e+02
1.870000e-06	7.343921e-06	5.626325e-09	5.220367e+01	3.748467e+02
1.880000e-06	7.281985e-06	5.767638e-09	5.176341e+01	3.735251e+02
1.890000e-06	7.217243e-06	5.590925e-09	5.130319e+01	3.721509e+02
1.900000e-06	7.149639e-06	5.634793e-09	5.082264e+01	3.707198e+02
1.910000e-06	7.079247e-06	5.641714e-09	5.032226e+01	3.692261e+02
1.920000e-06	7.006112e-06	5.590431e-09	4.980239e+01	3.676636e+02
1.930000e-06	6.930286e-06	5.585894e-09	4.926339e+01	3.660261e+02
1.940000e-06	6.851690e-06	5.471338e-09	4.870469e+01	3.643087e+02
1.950000e-06	6.770486e-06	5.565648e-09	4.812746e+01	3.625078e+02
1.960000e-06	6.686794e-06	5.448699e-09	4.753254e+01	3.606220e+02
1.970000e-06	6.600602e-06	5.450444e-09	4.691985e+01	3.586517e+02
1.980000e-06	6.512008e-06	5.447861e-09	4.629009e+01	3.565988e+02
1.990000e-06	6.421093e-06	5.393006e-09	4.564382e+01	3.544663e+02
2.000000e-06	6.327929e-06	5.370666e-09	4.498158e+01	3.522571e+02
2.010000e-06	6.232545e-06	5.295575e-09	4.430355e+01	3.499739e+02
2.020000e-06	6.134976e-06	5.330981e-09	4.360999e+01	3.476178e+02
2.030000e-06	6.035146e-06	5.253386e-09	4.290035e+01	3.451886e+02
2.040000e-06	5.933127e-06	5.226242e-09	4.217516e+01	3.426840e+02
2.050000e-06	5.828989e-06	5.169836e-09	4.143490e+01	3.401003e+02
2.060000e-06	5.722891e-06	5.155771e-09	4.068071e+01	3.374326e+02
2.070000e-06	5.614873e-06	5.100098e-09	3.991288e+01	3.346753e+02
2.080000e-06	5.504832e-06	5.042387e-09	3.913066e+01	3.318233e+02
2.090000e-06	5.392768e-06	5.021522e-09	3.833406e+01	3.288722e+02
2.100000e-06	5.278590e-06	4.962982e-09	3.752244e+01	3.258191e+02
2.110000e-06	5.162356e-06	4.919661e-09	3.669619e+01	3.226627e+02
2.120000e-06	5.044216e-06	4.866982e-09	3.585640e+01	3.194028e+02
2.130000e-06	4.924201e-06	4.842061e-09	3.500329e+01	3.160407e+02
2.140000e-06	4.802374e-06	4.769509e-09	3.413729e+01	3.125779e+02
2.150000e-06	4.678756e-06	4.712918e-09	3.325856e+01	3.090153e+02
2.160000e-06	4.553426e-06	4.653340e-09	3.236767e+01	3.053531e+02
2.170000e-06	4.426564e-06	4.613215e-09	3.146588e+01	3.015894e+02
2.180000e-06	4.298070e-06	4.553384e-09	3.055249e+01	2.977205e+02
2.190000e-06	4.167924e-06	4.496837e-09	2.962736e+01	2.937406e+02
2.200000e-06	4.036204e-06	4.434247e-09	2.869103e+01	2.896421e+02
2.210000e-06	3.903018e-06	4.363126e-09	2.774429e+01	2.854166e+02
2.220000e-06	3.768404e-06	4.295745e-09	2.678740e+01	2.810554e+02
2.230000e-06	3.632318e-06	4.229395e-09	2.582004e+01	2.765506e+02
2.240000e-06	3.494816e-06	4.165258e-09	2.484262e+01	2.718957e+02
2.250000e-06	3.355975e-06	4.086883e-09	2.385568e+01	2.670865e+02
2.260000e-06	3.215863e-06	4.015087e-09	2.285970e+01	2.621207e+02
2.270000e-06	3.074489e-06	3.935256e-09	2.185476e+01	2.569980e+02
2.280000e-06	2.931965e-06	3.856982e-09	2.084164e+01	2.517192e+02
2.290000e-06	2.788218e-06	3.769753e-09	1.981983e+01	2.462856e+02
2.300000e-06	2.643412e-06	3.685439e-09	1.879048e+01	2.406973e+02
2.310000e-06	2.497845e-06	3.594400e-09	1.775573e+01	2.349527e+02
2.320000e-06	2.351470e-06	3.504425e-09	1.671524e+01	2.290470e+02
2.330000e-06	2.204292e-06	3.418453e-09	1.566904e+01	2.229725e+02
2.340000e-06	2.056232e-06	3.328774e-09	1.461656e+01	2.167179e+02
2.350000e-06	1.907445e-06	3.228666e-09	1.355892e+01	2.102694e+02
2.360000e-06	1.758146e-06	3.122788e-09	1.249764e+01	2.036114e+02
2.370000e-06	1.608322e-06	3.018824e-09	1.143263e+01	1.967281e+02
2.380000e-06	1.458017e-06	2.912621e-09	1.036420e+01	1.896044e+02
2.390000e-06	1.307269e-06	2.801156e-09	9.292619e+00	1.822279e+02
2.400000e-06	1.156080e-06	2.684115e-09	8.217900e+00	1.745891e+02
2.410000e-06	1.004432e-06	2.562502e-09	7.139928e+00	1.666820e+02
2.420000e-06	8.524039e-07	2.435570e-09	6.059245e+00	1.585036e+02
2.430000e-06	7.001134e-07	2.310020e-09	4.976700e+00	1.500530e+02
2.440000e-06	5.475904e-07	2.184546e-09	3.892503e+00	1.413292e+02
2.450000e-06	3.948525e-07	2.053829e-09	2.806777e+00	1.323297e+02
2.460000e-06	2.419640e-07	1.915320e-09	1.719982e+00	1.230482e+02
2.470000e-06	8.893521e-08	1.768022e-09	6.321888e-01	1.134725e+02
2.480000e-06	-6.420057e-08	1.613347e-09	-4.563646e-01	1.035843e+02
2.490000e-06	-2.173532e-07	1.451219e-09	-1.545038e+00	9.335843e+01
2.500000e-06	-3.704734e-07	1.285742e-09	-2.633480e+00	8.276457e+01
2.510000e-06	-5.234027e-07	1.119685e-09	-3.720566e+00	7.176919e+01
2.520000e-06	-6.761341e-07	9.511758e-10	-4.806245e+00	6.033919e+01
2.530000e-06	-8.286817e-07	7.763153e-10	-5.890617e+00	4.844611e+01
2.540000e-06	-9.809152e-07	5.915175e-10	-6.972757e+00	3.607067e+01
2.550000e-06	-1.132802e-06	3.964714e-10	-8.052432e+00	2.320731e+01
2.560000e-06	-1.284313e-06	1.910010e-10	-9.129437e+00	9.867963e+00
2.570000e-06	-1.435372e-06	-2.112301e-11	-1.020323e+01	-3.915251e+00
2.580000e-06	-1.585905e-06	-2.396077e-10	-1.127328e+01	-1.808891e+01
2.590000e-06	-1.735805e-06	-4.656832e-10	-1.233883e+01	-3.257891e+01
2.600000e-06	-1.885088e-06	-6.970487e-10	-1.340000e+01	-4.729286e+01
2.610000e-06	-2.033780e-06	-9.277015e-10	-1.445696e+01	-6.212419e+01
2.620000e-06	-2.181649e-06	-1.153723e-09	-1.550808e+01	-7.695746e+01
2.630000e-06	-2.328527e-06	-1.377338e-09	-1.655215e+01	-9.167449e+01
2.640000e-06	-2.474496e-06	-1.598411e-09	-1.758976e+01	-1.061607e+02
2.650000e-06	-2.619616e-06	-1.814927e-09	-1.862133e+01	-1.203113e+02
2.660000e-06	-2.763777e-06	-2.026375e-09	-1.964608e+01	-1.340358e+02
2.670000e-06	-2.906849e-06	-2.231853e-09	-2.066310e+01	-1.472622e+02
2.680000e-06	-3.048762e-06	-2.427732e-09	-2.167188e+01	-1.599387e+02
2.690000e-06	-3.189438e-06	-2.612868e-09	-2.267187e+01	-1.720343e+02
2.700000e-06	-3.328826e-06	-2.788180e-09	-2.366269e+01	-1.835369e+02
2.710000e-06	-3.466919e-06	-2.951972e-09	-2.464432e+01	-1.944514e+02
2.720000e-06	-3.603684e-06	-3.107163e-09	-2.561650e+01	-2.047955e+02
2.730000e-06	-3.739123e-06	-3.256972e-09	-2.657926e+01	-2.145959e+02
2.740000e-06	-3.873258e-06	-3.402596e-09	-2.753275e+01	-2.238845e+02
2.750000e-06	-4.005987e-06	-3.541386e-09	-2.847624e+01	-2.326948e+02
2.760000e-06	-4.137216e-06	-3.671888e-09	-2.940907e+01	-2.410587e+02
2.770000e-06	-4.267083e-06	-3.794843e-09	-3.033222e+01	-2.490056e+02
2.780000e-06	-4.395594e-06	-3.911376e-09	-3.124573e+01	-2.565608e+02
2.790000e-06	-4.522566e-06	-4.021123e-09	-3.214830e+01	-2.637463e+02
2.800000e-06	-4.647939e-06	-4.122344e-09	-3.303950e+01	-2.705811e+02
2.810000e-06	-4.771619e-06	-4.217729e-09	-3.391867e+01	-2.770826e+02
2.820000e-06	-4.893628e-06	-4.309452e-09	-3.478596e+01	-2.832676e+02
2.830000e-06	-5.013904e-06	-4.398546e-09	-3.564094e+01	-2.891538e+02
2.840000e-06	-5.132301e-06	-4.485396e-09	-3.648255e+01	-2.947599e+02
2.850000e-06	-5.248598e-06	-4.569339e-09	-3.730924e+01	-3.001058e+02
2.860000e-06	-5.362693e-06	-4.648498e-09	-3.812028e+01	-3.052120e+02
2.870000e-06	-5.474653e-06	-4.724329e-09	-3.891613e+01	-3.100988e+02
2.880000e-06	-5.584513e-06	-4.797836e-09	-3.969706e+01	-3.147849e+02
2.890000e-06	-5.692435e-06	-4.868334e-09	-4.046422e+01	-3.192863e+02
2.900000e-06	-5.798429e-06	-4.936315e-09	-4.121767e+01	-3.236151e+02
2.910000e-06	-5.902383e-06	-5.001120e-09	-4.195662e+01	-3.277791e+02
2.920000e-06	-6.004109e-06	-5.063092e-09	-4.267973e+01	-3.317815e+02
2.930000e-06	-6.103583e-06	-5.121742e-09	-4.338683e+01	-3.356213e+02
2.940000e-06	-6.200888e-06	-5.177575e-09	-4.407852e+01	-3.392946e+02
