# Temperatura_=_34.64
# Concentracion g/m^3_=_5000.0
# C_Vs_to_Am_M_A/Vsm_=_65563218390.804596
# pendiente_HvsI_1/m_=_3716.3
# ordenada_HvsI_A/m_=_1297.0
# frecuencia_Hz_=_302572.93769123143

Tiempo_(s)	Campo_(V.s)	Magnetizacion_(V.s)	Campo_(kA/m)	Magnetizacion_(A/m)
0.000000e+00	-7.968296e-06	-5.960816e-09	-5.684943e+01	-3.902182e+02
1.000000e-08	-7.965412e-06	-5.959891e-09	-5.682886e+01	-3.899868e+02
2.000000e-08	-7.959841e-06	-5.953649e-09	-5.678911e+01	-3.896911e+02
3.000000e-08	-7.951762e-06	-5.946680e-09	-5.673147e+01	-3.893498e+02
4.000000e-08	-7.940951e-06	-5.941189e-09	-5.665434e+01	-3.889820e+02
5.000000e-08	-7.927054e-06	-5.936661e-09	-5.655520e+01	-3.886053e+02
6.000000e-08	-7.910232e-06	-5.929526e-09	-5.643518e+01	-3.882330e+02
7.000000e-08	-7.891033e-06	-5.923537e-09	-5.629821e+01	-3.878717e+02
8.000000e-08	-7.869605e-06	-5.924919e-09	-5.614533e+01	-3.875209e+02
9.000000e-08	-7.845255e-06	-5.940101e-09	-5.597161e+01	-3.871719e+02
1.000000e-07	-7.817625e-06	-5.949990e-09	-5.577448e+01	-3.868091e+02
1.100000e-07	-7.787055e-06	-5.930324e-09	-5.555638e+01	-3.864117e+02
1.200000e-07	-7.753685e-06	-5.896774e-09	-5.531830e+01	-3.859558e+02
1.300000e-07	-7.717584e-06	-5.847501e-09	-5.506074e+01	-3.854178e+02
1.400000e-07	-7.679165e-06	-5.790287e-09	-5.478665e+01	-3.847765e+02
1.500000e-07	-7.638647e-06	-5.794732e-09	-5.449757e+01	-3.840164e+02
1.600000e-07	-7.595743e-06	-5.865988e-09	-5.419147e+01	-3.831286e+02
1.700000e-07	-7.550109e-06	-5.882433e-09	-5.386590e+01	-3.821125e+02
1.800000e-07	-7.501790e-06	-5.825836e-09	-5.352117e+01	-3.809748e+02
1.900000e-07	-7.450432e-06	-5.795661e-09	-5.315476e+01	-3.797289e+02
2.000000e-07	-7.396071e-06	-5.755651e-09	-5.276692e+01	-3.783927e+02
2.100000e-07	-7.339004e-06	-5.722320e-09	-5.235978e+01	-3.769864e+02
2.200000e-07	-7.279170e-06	-5.749031e-09	-5.193290e+01	-3.755296e+02
2.300000e-07	-7.216799e-06	-5.737580e-09	-5.148791e+01	-3.740394e+02
2.400000e-07	-7.151745e-06	-5.671990e-09	-5.102379e+01	-3.725278e+02
2.500000e-07	-7.083930e-06	-5.630197e-09	-5.053997e+01	-3.710010e+02
2.600000e-07	-7.013488e-06	-5.655120e-09	-5.003741e+01	-3.694590e+02
2.700000e-07	-6.940248e-06	-5.660517e-09	-4.951488e+01	-3.678960e+02
2.800000e-07	-6.864218e-06	-5.621570e-09	-4.897244e+01	-3.663014e+02
2.900000e-07	-6.785374e-06	-5.589140e-09	-4.840993e+01	-3.646620e+02
3.000000e-07	-6.703832e-06	-5.551121e-09	-4.782818e+01	-3.629630e+02
3.100000e-07	-6.620006e-06	-5.514994e-09	-4.723013e+01	-3.611910e+02
3.200000e-07	-6.533979e-06	-5.500130e-09	-4.661637e+01	-3.593344e+02
3.300000e-07	-6.445607e-06	-5.481679e-09	-4.598588e+01	-3.573852e+02
3.400000e-07	-6.354809e-06	-5.427579e-09	-4.533809e+01	-3.553390e+02
3.500000e-07	-6.261708e-06	-5.372356e-09	-4.467387e+01	-3.531953e+02
3.600000e-07	-6.166418e-06	-5.348988e-09	-4.399402e+01	-3.509563e+02
3.700000e-07	-6.068862e-06	-5.332918e-09	-4.329801e+01	-3.486264e+02
3.800000e-07	-5.969017e-06	-5.305840e-09	-4.258567e+01	-3.462105e+02
3.900000e-07	-5.867079e-06	-5.279486e-09	-4.185840e+01	-3.437136e+02
4.000000e-07	-5.763086e-06	-5.229360e-09	-4.111647e+01	-3.411391e+02
4.100000e-07	-5.657032e-06	-5.156064e-09	-4.035983e+01	-3.384886e+02
4.200000e-07	-5.548999e-06	-5.113906e-09	-3.958907e+01	-3.357619e+02
4.300000e-07	-5.439032e-06	-5.105968e-09	-3.880452e+01	-3.329566e+02
4.400000e-07	-5.327085e-06	-5.064017e-09	-3.800584e+01	-3.300689e+02
4.500000e-07	-5.213048e-06	-4.991308e-09	-3.719225e+01	-3.270941e+02
4.600000e-07	-5.096978e-06	-4.941106e-09	-3.636415e+01	-3.240272e+02
4.700000e-07	-4.979058e-06	-4.898709e-09	-3.552285e+01	-3.208634e+02
4.800000e-07	-4.859302e-06	-4.843674e-09	-3.466846e+01	-3.175984e+02
4.900000e-07	-4.737741e-06	-4.798900e-09	-3.380119e+01	-3.142284e+02
5.000000e-07	-4.614459e-06	-4.758121e-09	-3.292164e+01	-3.107502e+02
5.100000e-07	-4.489511e-06	-4.690387e-09	-3.203021e+01	-3.071606e+02
5.200000e-07	-4.362953e-06	-4.621616e-09	-3.112728e+01	-3.034565e+02
5.300000e-07	-4.234707e-06	-4.579369e-09	-3.021232e+01	-2.996340e+02
5.400000e-07	-4.104942e-06	-4.527520e-09	-2.928652e+01	-2.956889e+02
5.500000e-07	-3.973730e-06	-4.446523e-09	-2.835039e+01	-2.916160e+02
5.600000e-07	-3.840977e-06	-4.373933e-09	-2.740327e+01	-2.874099e+02
5.700000e-07	-3.706775e-06	-4.318150e-09	-2.644581e+01	-2.830651e+02
5.800000e-07	-3.571144e-06	-4.245386e-09	-2.547816e+01	-2.785766e+02
5.900000e-07	-3.434137e-06	-4.163951e-09	-2.450069e+01	-2.739401e+02
6.000000e-07	-3.295814e-06	-4.098824e-09	-2.351383e+01	-2.691527e+02
6.100000e-07	-3.156071e-06	-4.030809e-09	-2.251684e+01	-2.642126e+02
6.200000e-07	-3.014861e-06	-3.941877e-09	-2.150939e+01	-2.591190e+02
6.300000e-07	-2.872370e-06	-3.859373e-09	-2.049279e+01	-2.538713e+02
6.400000e-07	-2.728842e-06	-3.793558e-09	-1.946880e+01	-2.484689e+02
6.500000e-07	-2.584375e-06	-3.714694e-09	-1.843810e+01	-2.429094e+02
6.600000e-07	-2.438999e-06	-3.618375e-09	-1.740093e+01	-2.371886e+02
6.700000e-07	-2.292769e-06	-3.523247e-09	-1.635765e+01	-2.312991e+02
6.800000e-07	-2.145748e-06	-3.429006e-09	-1.530874e+01	-2.252306e+02
6.900000e-07	-1.998040e-06	-3.326573e-09	-1.425492e+01	-2.189694e+02
7.000000e-07	-1.849752e-06	-3.224349e-09	-1.319697e+01	-2.124996e+02
7.100000e-07	-1.700866e-06	-3.127111e-09	-1.213475e+01	-2.058038e+02
7.200000e-07	-1.551405e-06	-3.023230e-09	-1.106843e+01	-1.988648e+02
7.300000e-07	-1.401539e-06	-2.911025e-09	-9.999212e+00	-1.916666e+02
7.400000e-07	-1.251290e-06	-2.796185e-09	-8.927270e+00	-1.841956e+02
7.500000e-07	-1.100616e-06	-2.679132e-09	-7.852294e+00	-1.764420e+02
7.600000e-07	-9.495439e-07	-2.558058e-09	-6.774476e+00	-1.683991e+02
7.700000e-07	-7.980503e-07	-2.430497e-09	-5.693653e+00	-1.600634e+02
7.800000e-07	-6.462311e-07	-2.298376e-09	-4.610506e+00	-1.514328e+02
7.900000e-07	-4.941470e-07	-2.160243e-09	-3.525469e+00	-1.425050e+02
8.000000e-07	-3.418561e-07	-2.016690e-09	-2.438956e+00	-1.332751e+02
8.100000e-07	-1.894479e-07	-1.870174e-09	-1.351607e+00	-1.237334e+02
8.200000e-07	-3.689459e-08	-1.717625e-09	-2.632228e-01	-1.138636e+02
8.300000e-07	1.156988e-07	-1.558303e-09	8.254477e-01	-1.036420e+02
8.400000e-07	2.682963e-07	-1.392318e-09	1.914147e+00	-9.303750e+01
8.500000e-07	4.208838e-07	-1.222159e-09	3.002776e+00	-8.201354e+01
8.600000e-07	5.732883e-07	-1.048290e-09	4.090099e+00	-7.053074e+01
8.700000e-07	7.255270e-07	-8.702621e-10	5.176239e+00	-5.855136e+01
8.800000e-07	8.776222e-07	-6.851795e-10	6.261355e+00	-4.604434e+01
8.900000e-07	1.029364e-06	-4.879730e-10	7.343949e+00	-3.299077e+01
9.000000e-07	1.180612e-06	-2.807084e-10	8.423022e+00	-1.938912e+01
9.100000e-07	1.331382e-06	-6.833121e-11	9.498682e+00	-5.259550e+00
9.200000e-07	1.481712e-06	1.517389e-10	1.057121e+01	9.353268e+00
9.300000e-07	1.631602e-06	3.813546e-10	1.164059e+01	2.437922e+01
9.400000e-07	1.780913e-06	6.167493e-10	1.270584e+01	3.972404e+01
9.500000e-07	1.929532e-06	8.544396e-10	1.376615e+01	5.527283e+01
9.600000e-07	2.077539e-06	1.094248e-09	1.482210e+01	7.089551e+01
9.700000e-07	2.224785e-06	1.332538e-09	1.587262e+01	8.645378e+01
9.800000e-07	2.371075e-06	1.564388e-09	1.691633e+01	1.018089e+02
9.900000e-07	2.516529e-06	1.791319e-09	1.795406e+01	1.168298e+02
1.000000e-06	2.661118e-06	2.011842e-09	1.898562e+01	1.313998e+02
1.010000e-06	2.804635e-06	2.224981e-09	2.000954e+01	1.454233e+02
1.020000e-06	2.947053e-06	2.426413e-09	2.102561e+01	1.588289e+02
1.030000e-06	3.088305e-06	2.614986e-09	2.203337e+01	1.715718e+02
1.040000e-06	3.228322e-06	2.795899e-09	2.303231e+01	1.836328e+02
1.050000e-06	3.367041e-06	2.968396e-09	2.402199e+01	1.950161e+02
1.060000e-06	3.504421e-06	3.131941e-09	2.500213e+01	2.057448e+02
1.070000e-06	3.640476e-06	3.284202e-09	2.597281e+01	2.158558e+02
1.080000e-06	3.775143e-06	3.429697e-09	2.693358e+01	2.253941e+02
1.090000e-06	3.908511e-06	3.569427e-09	2.788509e+01	2.344073e+02
1.100000e-06	4.040468e-06	3.703477e-09	2.882653e+01	2.429412e+02
1.110000e-06	4.170899e-06	3.832430e-09	2.975708e+01	2.510364e+02
1.120000e-06	4.299906e-06	3.952022e-09	3.067748e+01	2.587266e+02
1.130000e-06	4.427402e-06	4.062781e-09	3.158710e+01	2.660382e+02
1.140000e-06	4.553388e-06	4.164716e-09	3.248593e+01	2.729915e+02
1.150000e-06	4.677884e-06	4.261875e-09	3.337415e+01	2.796019e+02
1.160000e-06	4.800715e-06	4.356306e-09	3.425047e+01	2.858829e+02
1.170000e-06	4.921864e-06	4.446037e-09	3.511481e+01	2.918480e+02
1.180000e-06	5.041263e-06	4.530585e-09	3.596666e+01	2.975125e+02
1.190000e-06	5.158814e-06	4.612619e-09	3.680532e+01	3.028945e+02
1.200000e-06	5.274404e-06	4.694664e-09	3.762999e+01	3.080151e+02
1.210000e-06	5.387929e-06	4.775964e-09	3.843993e+01	3.128975e+02
1.220000e-06	5.499374e-06	4.850560e-09	3.923503e+01	3.175656e+02
1.230000e-06	5.608852e-06	4.916217e-09	4.001609e+01	3.220418e+02
1.240000e-06	5.716395e-06	4.976710e-09	4.078336e+01	3.263453e+02
1.250000e-06	5.821851e-06	5.035382e-09	4.153573e+01	3.304901e+02
1.260000e-06	5.925160e-06	5.094379e-09	4.227278e+01	3.344841e+02
1.270000e-06	6.026311e-06	5.151859e-09	4.299443e+01	3.383289e+02
1.280000e-06	6.125186e-06	5.204677e-09	4.369986e+01	3.420203e+02
1.290000e-06	6.221587e-06	5.255089e-09	4.438762e+01	3.455498e+02
1.300000e-06	6.315756e-06	5.307582e-09	4.505947e+01	3.489070e+02
1.310000e-06	6.407839e-06	5.358522e-09	4.571643e+01	3.520817e+02
1.320000e-06	6.497631e-06	5.402967e-09	4.635704e+01	3.550662e+02
1.330000e-06	6.585041e-06	5.443596e-09	4.698067e+01	3.578574e+02
1.340000e-06	6.670168e-06	5.482684e-09	4.758800e+01	3.604579e+02
1.350000e-06	6.753009e-06	5.520210e-09	4.817903e+01	3.628763e+02
1.360000e-06	6.833351e-06	5.555452e-09	4.875222e+01	3.651265e+02
1.370000e-06	6.911192e-06	5.587966e-09	4.930757e+01	3.672264e+02
1.380000e-06	6.986464e-06	5.618300e-09	4.984460e+01	3.691958e+02
1.390000e-06	7.059024e-06	5.647173e-09	5.036228e+01	3.710541e+02
1.400000e-06	7.129048e-06	5.674685e-09	5.086186e+01	3.728184e+02
1.410000e-06	7.196616e-06	5.700574e-09	5.134392e+01	3.745015e+02
1.420000e-06	7.261614e-06	5.724938e-09	5.180765e+01	3.761107e+02
1.430000e-06	7.324020e-06	5.747364e-09	5.225288e+01	3.776481e+02
1.440000e-06	7.383975e-06	5.768913e-09	5.268062e+01	3.791107e+02
1.450000e-06	7.441363e-06	5.789909e-09	5.309006e+01	3.804923e+02
1.460000e-06	7.496041e-06	5.808362e-09	5.348016e+01	3.817847e+02
1.470000e-06	7.547801e-06	5.822855e-09	5.384943e+01	3.829804e+02
1.480000e-06	7.596443e-06	5.836550e-09	5.419647e+01	3.840741e+02
1.490000e-06	7.642261e-06	5.852234e-09	5.452335e+01	3.850641e+02
1.500000e-06	7.685471e-06	5.867397e-09	5.483163e+01	3.859531e+02
1.510000e-06	7.725882e-06	5.882037e-09	5.511994e+01	3.867482e+02
1.520000e-06	7.763505e-06	5.897177e-09	5.538836e+01	3.874597e+02
1.530000e-06	7.798476e-06	5.910835e-09	5.563786e+01	3.881001e+02
1.540000e-06	7.830652e-06	5.919553e-09	5.586742e+01	3.886817e+02
1.550000e-06	7.860054e-06	5.924230e-09	5.607719e+01	3.892149e+02
1.560000e-06	7.886652e-06	5.929797e-09	5.626695e+01	3.897066e+02
1.570000e-06	7.910329e-06	5.937377e-09	5.643587e+01	3.901589e+02
1.580000e-06	7.931277e-06	5.944280e-09	5.658533e+01	3.905690e+02
1.590000e-06	7.949496e-06	5.949212e-09	5.671531e+01	3.909296e+02
1.600000e-06	7.964700e-06	5.954397e-09	5.682378e+01	3.912301e+02
1.610000e-06	7.976790e-06	5.959380e-09	5.691004e+01	3.914586e+02
1.620000e-06	7.985726e-06	5.961627e-09	5.697379e+01	3.916043e+02
1.630000e-06	7.991725e-06	5.961935e-09	5.701659e+01	3.916589e+02
1.640000e-06	7.994937e-06	5.961634e-09	5.703950e+01	3.916196e+02
1.650000e-06	7.995217e-06	5.960552e-09	5.704150e+01	3.914888e+02
1.660000e-06	7.992826e-06	5.957330e-09	5.702444e+01	3.912755e+02
1.670000e-06	7.987892e-06	5.952553e-09	5.698924e+01	3.909937e+02
1.680000e-06	7.980263e-06	5.948449e-09	5.693481e+01	3.906614e+02
1.690000e-06	7.969964e-06	5.944793e-09	5.686134e+01	3.902980e+02
1.700000e-06	7.956823e-06	5.941388e-09	5.676758e+01	3.899216e+02
1.710000e-06	7.940969e-06	5.939891e-09	5.665447e+01	3.895467e+02
1.720000e-06	7.922777e-06	5.935105e-09	5.652468e+01	3.891819e+02
1.730000e-06	7.902317e-06	5.914687e-09	5.637871e+01	3.888284e+02
1.740000e-06	7.879084e-06	5.876751e-09	5.621296e+01	3.884796e+02
1.750000e-06	7.852368e-06	5.866711e-09	5.602235e+01	3.881216e+02
1.760000e-06	7.821951e-06	5.870443e-09	5.580535e+01	3.877344e+02
1.770000e-06	7.788473e-06	5.875882e-09	5.556650e+01	3.872949e+02
1.780000e-06	7.752703e-06	5.913066e-09	5.531130e+01	3.867790e+02
1.790000e-06	7.714603e-06	5.943203e-09	5.503948e+01	3.861647e+02
1.800000e-06	7.674428e-06	5.916865e-09	5.475285e+01	3.854349e+02
1.810000e-06	7.632138e-06	5.862005e-09	5.445113e+01	3.845789e+02
1.820000e-06	7.587198e-06	5.832180e-09	5.413051e+01	3.835940e+02
1.830000e-06	7.539633e-06	5.809428e-09	5.379116e+01	3.824851e+02
1.840000e-06	7.489156e-06	5.828588e-09	5.343104e+01	3.812642e+02
1.850000e-06	7.435648e-06	5.843574e-09	5.304928e+01	3.799482e+02
1.860000e-06	7.379378e-06	5.791097e-09	5.264783e+01	3.785570e+02
1.870000e-06	7.320398e-06	5.722996e-09	5.222704e+01	3.771106e+02
1.880000e-06	7.258763e-06	5.681790e-09	5.178731e+01	3.756268e+02
1.890000e-06	7.194299e-06	5.698758e-09	5.132739e+01	3.741192e+02
1.900000e-06	7.127109e-06	5.692818e-09	5.084802e+01	3.725954e+02
1.910000e-06	7.057185e-06	5.668802e-09	5.034916e+01	3.710571e+02
1.920000e-06	6.984400e-06	5.629248e-09	4.982988e+01	3.694996e+02
1.930000e-06	6.908981e-06	5.557223e-09	4.929181e+01	3.679136e+02
1.940000e-06	6.830813e-06	5.563120e-09	4.873411e+01	3.662862e+02
1.950000e-06	6.750049e-06	5.579775e-09	4.815791e+01	3.646029e+02
1.960000e-06	6.666854e-06	5.553007e-09	4.756436e+01	3.628498e+02
1.970000e-06	6.581173e-06	5.496729e-09	4.695307e+01	3.610147e+02
1.980000e-06	6.493037e-06	5.442416e-09	4.632427e+01	3.590887e+02
1.990000e-06	6.402582e-06	5.422109e-09	4.567892e+01	3.570664e+02
2.000000e-06	6.309921e-06	5.400107e-09	4.501784e+01	3.549464e+02
2.010000e-06	6.214944e-06	5.393128e-09	4.434023e+01	3.527304e+02
2.020000e-06	6.117727e-06	5.358257e-09	4.364664e+01	3.504222e+02
2.030000e-06	6.018321e-06	5.281598e-09	4.293743e+01	3.480268e+02
2.040000e-06	5.916747e-06	5.218232e-09	4.221276e+01	3.455493e+02
2.050000e-06	5.813091e-06	5.221018e-09	4.147323e+01	3.429934e+02
2.060000e-06	5.707476e-06	5.227638e-09	4.071972e+01	3.403613e+02
2.070000e-06	5.599976e-06	5.166488e-09	3.995277e+01	3.376533e+02
2.080000e-06	5.490548e-06	5.096453e-09	3.917206e+01	3.348674e+02
2.090000e-06	5.379111e-06	5.036875e-09	3.837702e+01	3.320002e+02
2.100000e-06	5.265615e-06	4.988269e-09	3.756729e+01	3.290471e+02
2.110000e-06	5.150053e-06	4.966534e-09	3.674282e+01	3.260032e+02
2.120000e-06	5.032516e-06	4.963240e-09	3.590425e+01	3.228635e+02
2.130000e-06	4.912997e-06	4.906679e-09	3.505155e+01	3.196236e+02
2.140000e-06	4.791584e-06	4.806912e-09	3.418533e+01	3.162797e+02
2.150000e-06	4.668548e-06	4.742256e-09	3.330754e+01	3.128283e+02
2.160000e-06	4.543801e-06	4.719237e-09	3.241754e+01	3.092663e+02
2.170000e-06	4.417344e-06	4.682244e-09	3.151533e+01	3.055906e+02
2.180000e-06	4.289263e-06	4.613448e-09	3.060154e+01	3.017976e+02
2.190000e-06	4.159639e-06	4.548240e-09	2.967675e+01	2.978831e+02
2.200000e-06	4.028506e-06	4.478547e-09	2.874119e+01	2.938421e+02
2.210000e-06	3.895868e-06	4.409977e-09	2.779489e+01	2.896693e+02
2.220000e-06	3.761824e-06	4.365827e-09	2.683856e+01	2.853591e+02
2.230000e-06	3.626305e-06	4.321579e-09	2.587170e+01	2.809064e+02
2.240000e-06	3.489378e-06	4.234014e-09	2.489481e+01	2.763067e+02
2.250000e-06	3.351124e-06	4.133756e-09	2.390843e+01	2.715568e+02
2.260000e-06	3.211636e-06	4.067046e-09	2.291326e+01	2.666544e+02
2.270000e-06	3.070869e-06	4.016207e-09	2.190897e+01	2.615987e+02
2.280000e-06	2.928840e-06	3.939423e-09	2.089567e+01	2.563891e+02
2.290000e-06	2.785702e-06	3.844075e-09	1.987446e+01	2.510249e+02
2.300000e-06	2.641544e-06	3.747813e-09	1.884597e+01	2.455045e+02
2.310000e-06	2.496429e-06	3.653609e-09	1.781066e+01	2.398240e+02
2.320000e-06	2.350506e-06	3.575624e-09	1.676958e+01	2.339771e+02
2.330000e-06	2.203965e-06	3.506771e-09	1.572408e+01	2.279539e+02
2.340000e-06	2.056660e-06	3.419421e-09	1.467314e+01	2.217417e+02
2.350000e-06	1.908539e-06	3.301650e-09	1.361638e+01	2.153251e+02
2.360000e-06	1.759746e-06	3.184454e-09	1.255483e+01	2.086870e+02
2.370000e-06	1.610388e-06	3.087589e-09	1.148924e+01	2.018099e+02
2.380000e-06	1.460590e-06	2.995507e-09	1.042051e+01	1.946773e+02
2.390000e-06	1.310376e-06	2.888290e-09	9.348816e+00	1.872751e+02
2.400000e-06	1.159717e-06	2.763161e-09	8.273949e+00	1.795923e+02
2.410000e-06	1.008660e-06	2.630048e-09	7.196239e+00	1.716217e+02
2.420000e-06	8.572756e-07	2.501187e-09	6.116193e+00	1.633588e+02
2.430000e-06	7.055945e-07	2.382504e-09	5.034031e+00	1.548016e+02
2.440000e-06	5.536646e-07	2.261717e-09	3.950094e+00	1.459479e+02
2.450000e-06	4.015469e-07	2.123350e-09	2.864818e+00	1.367937e+02
2.460000e-06	2.491889e-07	1.970771e-09	1.777826e+00	1.273306e+02
2.470000e-06	9.666270e-08	1.817177e-09	6.896355e-01	1.175442e+02
2.480000e-06	-5.589216e-08	1.666473e-09	-3.987600e-01	1.074127e+02
2.490000e-06	-2.084639e-07	1.510463e-09	-1.487276e+00	9.690668e+01
2.500000e-06	-3.610092e-07	1.342314e-09	-2.575603e+00	8.599071e+01
2.510000e-06	-5.133752e-07	1.163245e-09	-3.662652e+00	7.462577e+01
2.520000e-06	-6.655619e-07	9.772353e-10	-4.748420e+00	6.277328e+01
2.530000e-06	-8.175306e-07	7.933445e-10	-5.832634e+00	5.039998e+01
2.540000e-06	-9.691597e-07	6.072786e-10	-6.914425e+00	3.748342e+01
2.550000e-06	-1.120443e-06	4.051578e-10	-7.993750e+00	2.401729e+01
2.560000e-06	-1.271293e-06	1.849352e-10	-9.069980e+00	1.001597e+01
2.570000e-06	-1.421634e-06	-4.374448e-11	-1.014258e+01	-4.482153e+00
2.580000e-06	-1.571517e-06	-2.724572e-10	-1.121191e+01	-1.941328e+01
2.590000e-06	-1.720951e-06	-5.023628e-10	-1.227804e+01	-3.468896e+01
2.600000e-06	-1.869786e-06	-7.391012e-10	-1.333990e+01	-5.019900e+01
2.610000e-06	-2.017852e-06	-9.807559e-10	-1.439627e+01	-6.581651e+01
2.620000e-06	-2.165058e-06	-1.224087e-09	-1.544650e+01	-8.140454e+01
2.630000e-06	-2.311461e-06	-1.463790e-09	-1.649101e+01	-9.682372e+01
2.640000e-06	-2.457076e-06	-1.694532e-09	-1.752990e+01	-1.119403e+02
2.650000e-06	-2.601801e-06	-1.917234e-09	-1.856243e+01	-1.266334e+02
2.660000e-06	-2.745485e-06	-2.134611e-09	-1.958753e+01	-1.408018e+02
2.670000e-06	-2.888019e-06	-2.346004e-09	-2.060444e+01	-1.543676e+02
2.680000e-06	-3.029463e-06	-2.544205e-09	-2.161356e+01	-1.672795e+02
2.690000e-06	-3.169646e-06	-2.728590e-09	-2.261369e+01	-1.795119e+02
2.700000e-06	-3.308513e-06	-2.900998e-09	-2.360443e+01	-1.910637e+02
2.710000e-06	-3.446186e-06	-3.063293e-09	-2.458665e+01	-2.019535e+02
2.720000e-06	-3.582590e-06	-3.220297e-09	-2.555982e+01	-2.122155e+02
2.730000e-06	-3.717661e-06	-3.372858e-09	-2.652348e+01	-2.218930e+02
2.740000e-06	-3.851432e-06	-3.517921e-09	-2.747786e+01	-2.310336e+02
2.750000e-06	-3.983838e-06	-3.652011e-09	-2.842251e+01	-2.396838e+02
2.760000e-06	-4.114721e-06	-3.778089e-09	-2.935629e+01	-2.478858e+02
2.770000e-06	-4.244219e-06	-3.897894e-09	-3.028018e+01	-2.556750e+02
2.780000e-06	-4.372274e-06	-4.011087e-09	-3.119378e+01	-2.630797e+02
2.790000e-06	-4.498770e-06	-4.116406e-09	-3.209626e+01	-2.701215e+02
2.800000e-06	-4.623834e-06	-4.213882e-09	-3.298853e+01	-2.768168e+02
2.810000e-06	-4.747280e-06	-4.306678e-09	-3.386925e+01	-2.831795e+02
2.820000e-06	-4.868997e-06	-4.395774e-09	-3.473763e+01	-2.892228e+02
2.830000e-06	-4.988960e-06	-4.484485e-09	-3.559350e+01	-2.949614e+02
2.840000e-06	-5.106994e-06	-4.569719e-09	-3.643561e+01	-3.004126e+02
2.850000e-06	-5.222944e-06	-4.648969e-09	-3.726285e+01	-3.055970e+02
2.860000e-06	-5.336677e-06	-4.722702e-09	-3.807427e+01	-3.105372e+02
2.870000e-06	-5.448244e-06	-4.794985e-09	-3.887024e+01	-3.152572e+02
2.880000e-06	-5.557784e-06	-4.869037e-09	-3.965175e+01	-3.197800e+02
2.890000e-06	-5.665434e-06	-4.941180e-09	-4.041977e+01	-3.241256e+02
2.900000e-06	-5.771207e-06	-5.009825e-09	-4.117441e+01	-3.283097e+02
2.910000e-06	-5.874895e-06	-5.074969e-09	-4.191416e+01	-3.323415e+02
2.920000e-06	-5.976263e-06	-5.135104e-09	-4.263737e+01	-3.362244e+02
2.930000e-06	-6.075421e-06	-5.190435e-09	-4.334481e+01	-3.399553e+02
2.940000e-06	-6.172546e-06	-5.242709e-09	-4.403774e+01	-3.435267e+02
