# Temperatura_=_41.88
# Concentracion g/m^3_=_5000.0
# C_Vs_to_Am_M_A/Vsm_=_65563218390.804596
# pendiente_HvsI_1/m_=_3716.3
# ordenada_HvsI_A/m_=_1297.0
# frecuencia_Hz_=_302575.5819745095

Tiempo_(s)	Campo_(V.s)	Magnetizacion_(V.s)	Campo_(kA/m)	Magnetizacion_(A/m)
0.000000e+00	-8.007108e-06	-5.716842e-09	-5.685219e+01	-3.758954e+02
1.000000e-08	-8.004225e-06	-5.712499e-09	-5.683172e+01	-3.756601e+02
2.000000e-08	-7.998619e-06	-5.707223e-09	-5.679191e+01	-3.753825e+02
3.000000e-08	-7.990499e-06	-5.701579e-09	-5.673426e+01	-3.750835e+02
4.000000e-08	-7.979565e-06	-5.696668e-09	-5.665662e+01	-3.747803e+02
5.000000e-08	-7.965614e-06	-5.691014e-09	-5.655757e+01	-3.744836e+02
6.000000e-08	-7.948757e-06	-5.687269e-09	-5.643788e+01	-3.741953e+02
7.000000e-08	-7.929460e-06	-5.688288e-09	-5.630087e+01	-3.739076e+02
8.000000e-08	-7.907884e-06	-5.701587e-09	-5.614767e+01	-3.736036e+02
9.000000e-08	-7.883348e-06	-5.679617e-09	-5.597346e+01	-3.732584e+02
1.000000e-07	-7.855555e-06	-5.694032e-09	-5.577613e+01	-3.728428e+02
1.100000e-07	-7.824786e-06	-5.699786e-09	-5.555766e+01	-3.723262e+02
1.200000e-07	-7.791226e-06	-5.656246e-09	-5.531938e+01	-3.716806e+02
1.300000e-07	-7.754998e-06	-5.597150e-09	-5.506215e+01	-3.708848e+02
1.400000e-07	-7.716409e-06	-5.553799e-09	-5.478816e+01	-3.699267e+02
1.500000e-07	-7.675717e-06	-5.588000e-09	-5.449924e+01	-3.688052e+02
1.600000e-07	-7.632657e-06	-5.579685e-09	-5.419351e+01	-3.675304e+02
1.700000e-07	-7.586871e-06	-5.667351e-09	-5.386841e+01	-3.661225e+02
1.800000e-07	-7.538324e-06	-5.643070e-09	-5.352372e+01	-3.646094e+02
1.900000e-07	-7.486749e-06	-5.529822e-09	-5.315752e+01	-3.630232e+02
2.000000e-07	-7.432196e-06	-5.532548e-09	-5.277018e+01	-3.613963e+02
2.100000e-07	-7.374932e-06	-5.455940e-09	-5.236360e+01	-3.597575e+02
2.200000e-07	-7.314985e-06	-5.481901e-09	-5.193796e+01	-3.581287e+02
2.300000e-07	-7.252460e-06	-5.500985e-09	-5.149402e+01	-3.565228e+02
2.400000e-07	-7.187189e-06	-5.427308e-09	-5.103058e+01	-3.549426e+02
2.500000e-07	-7.119053e-06	-5.401982e-09	-5.054680e+01	-3.533808e+02
2.600000e-07	-7.048217e-06	-5.398602e-09	-5.004385e+01	-3.518219e+02
2.700000e-07	-6.974579e-06	-5.408753e-09	-4.952101e+01	-3.502444e+02
2.800000e-07	-6.898130e-06	-5.374114e-09	-4.897820e+01	-3.486242e+02
2.900000e-07	-6.818891e-06	-5.365831e-09	-4.841559e+01	-3.469377e+02
3.000000e-07	-6.737014e-06	-5.321996e-09	-4.783425e+01	-3.451647e+02
3.100000e-07	-6.652810e-06	-5.255840e-09	-4.723638e+01	-3.432905e+02
3.200000e-07	-6.566378e-06	-5.263116e-09	-4.662270e+01	-3.413072e+02
3.300000e-07	-6.477586e-06	-5.218626e-09	-4.599225e+01	-3.392139e+02
3.400000e-07	-6.386389e-06	-5.161553e-09	-4.534473e+01	-3.370156e+02
3.500000e-07	-6.292969e-06	-5.109240e-09	-4.468143e+01	-3.347218e+02
3.600000e-07	-6.197242e-06	-5.092610e-09	-4.400175e+01	-3.323441e+02
3.700000e-07	-6.099177e-06	-5.071159e-09	-4.330547e+01	-3.298943e+02
3.800000e-07	-5.998938e-06	-5.037214e-09	-4.259375e+01	-3.273817e+02
3.900000e-07	-5.896600e-06	-5.028236e-09	-4.186713e+01	-3.248121e+02
4.000000e-07	-5.792135e-06	-4.971811e-09	-4.112540e+01	-3.221871e+02
4.100000e-07	-5.685535e-06	-4.891282e-09	-4.036852e+01	-3.195037e+02
4.200000e-07	-5.576963e-06	-4.831133e-09	-3.959764e+01	-3.167550e+02
4.300000e-07	-5.466504e-06	-4.836752e-09	-3.881335e+01	-3.139319e+02
4.400000e-07	-5.354039e-06	-4.801254e-09	-3.801483e+01	-3.110244e+02
4.500000e-07	-5.239425e-06	-4.725700e-09	-3.720104e+01	-3.080228e+02
4.600000e-07	-5.122737e-06	-4.674727e-09	-3.637254e+01	-3.049194e+02
4.700000e-07	-5.004246e-06	-4.630993e-09	-3.553122e+01	-3.017089e+02
4.800000e-07	-4.883970e-06	-4.565974e-09	-3.467724e+01	-2.983890e+02
4.900000e-07	-4.761848e-06	-4.510545e-09	-3.381014e+01	-2.949596e+02
5.000000e-07	-4.637938e-06	-4.479971e-09	-3.293036e+01	-2.914222e+02
5.100000e-07	-4.512353e-06	-4.415048e-09	-3.203868e+01	-2.877789e+02
5.200000e-07	-4.385155e-06	-4.344698e-09	-3.113554e+01	-2.840309e+02
5.300000e-07	-4.256364e-06	-4.298069e-09	-3.022110e+01	-2.801781e+02
5.400000e-07	-4.125989e-06	-4.253329e-09	-2.929541e+01	-2.762183e+02
5.500000e-07	-3.994044e-06	-4.173036e-09	-2.835857e+01	-2.721469e+02
5.600000e-07	-3.860641e-06	-4.096037e-09	-2.741138e+01	-2.679579e+02
5.700000e-07	-3.725871e-06	-4.039417e-09	-2.645448e+01	-2.636440e+02
5.800000e-07	-3.589694e-06	-3.967732e-09	-2.548759e+01	-2.591982e+02
5.900000e-07	-3.452020e-06	-3.885921e-09	-2.451008e+01	-2.546143e+02
6.000000e-07	-3.312894e-06	-3.815987e-09	-2.352226e+01	-2.498880e+02
6.100000e-07	-3.172354e-06	-3.749591e-09	-2.252440e+01	-2.450174e+02
6.200000e-07	-3.030403e-06	-3.660385e-09	-2.151651e+01	-2.400022e+02
6.300000e-07	-2.887194e-06	-3.578170e-09	-2.049970e+01	-2.348438e+02
6.400000e-07	-2.742876e-06	-3.514360e-09	-1.947501e+01	-2.295437e+02
6.500000e-07	-2.597616e-06	-3.442916e-09	-1.844363e+01	-2.241021e+02
6.600000e-07	-2.451513e-06	-3.351264e-09	-1.740627e+01	-2.185171e+02
6.700000e-07	-2.304587e-06	-3.256796e-09	-1.636307e+01	-2.127828e+02
6.800000e-07	-2.156964e-06	-3.163561e-09	-1.531491e+01	-2.068896e+02
6.900000e-07	-2.008644e-06	-3.059490e-09	-1.426180e+01	-2.008235e+02
7.000000e-07	-1.859654e-06	-2.957092e-09	-1.320394e+01	-1.945674e+02
7.100000e-07	-1.710087e-06	-2.860714e-09	-1.214199e+01	-1.881020e+02
7.200000e-07	-1.560056e-06	-2.761171e-09	-1.107673e+01	-1.814080e+02
7.300000e-07	-1.409539e-06	-2.652477e-09	-1.000803e+01	-1.744675e+02
7.400000e-07	-1.258496e-06	-2.543810e-09	-8.935593e+00	-1.672657e+02
7.500000e-07	-1.106978e-06	-2.433976e-09	-7.859783e+00	-1.597919e+02
7.600000e-07	-9.550057e-07	-2.318230e-09	-6.780745e+00	-1.520396e+02
7.700000e-07	-8.026791e-07	-2.195504e-09	-5.699194e+00	-1.440059e+02
7.800000e-07	-6.501022e-07	-2.066504e-09	-4.615865e+00	-1.356895e+02
7.900000e-07	-4.972629e-07	-1.933488e-09	-3.530673e+00	-1.270884e+02
8.000000e-07	-3.441750e-07	-1.794129e-09	-2.443717e+00	-1.181973e+02
8.100000e-07	-1.909777e-07	-1.651209e-09	-1.355982e+00	-1.090049e+02
8.200000e-07	-3.771335e-08	-1.502394e-09	-2.677729e-01	-9.949181e+01
8.300000e-07	1.156078e-07	-1.346210e-09	8.208403e-01	-8.963014e+01
8.400000e-07	2.689437e-07	-1.184532e-09	1.909558e+00	-7.938378e+01
8.500000e-07	4.221947e-07	-1.019383e-09	2.997673e+00	-6.871094e+01
8.600000e-07	5.753093e-07	-8.504099e-10	4.084820e+00	-5.756805e+01
8.700000e-07	7.282757e-07	-6.768110e-10	5.170914e+00	-4.591501e+01
8.800000e-07	8.810346e-07	-4.956423e-10	6.255535e+00	-3.372129e+01
8.900000e-07	1.033533e-06	-3.020150e-10	7.338305e+00	-2.097212e+01
9.000000e-07	1.185680e-06	-1.003568e-10	8.418580e+00	-7.674022e+00
9.100000e-07	1.337302e-06	1.068254e-10	9.495133e+00	6.140931e+00
9.200000e-07	1.488356e-06	3.215518e-10	1.056765e+01	2.041299e+01
9.300000e-07	1.638852e-06	5.470674e-10	1.163620e+01	3.505495e+01
9.400000e-07	1.788728e-06	7.781862e-10	1.270035e+01	4.995499e+01
9.500000e-07	1.937983e-06	1.008181e-09	1.376010e+01	6.498189e+01
9.600000e-07	2.086603e-06	1.239536e-09	1.481533e+01	7.999235e+01
9.700000e-07	2.234428e-06	1.467556e-09	1.586492e+01	9.483948e+01
9.800000e-07	2.381427e-06	1.686083e-09	1.690864e+01	1.093818e+02
9.900000e-07	2.527636e-06	1.895682e-09	1.794676e+01	1.234919e+02
1.000000e-06	2.672927e-06	2.096455e-09	1.897835e+01	1.370635e+02
1.010000e-06	2.817174e-06	2.293453e-09	2.000254e+01	1.500164e+02
1.020000e-06	2.960311e-06	2.480229e-09	2.101884e+01	1.622999e+02
1.030000e-06	3.102348e-06	2.653436e-09	2.202734e+01	1.738920e+02
1.040000e-06	3.243160e-06	2.818179e-09	2.302713e+01	1.847974e+02
1.050000e-06	3.382594e-06	2.974356e-09	2.401714e+01	1.950431e+02
1.060000e-06	3.520690e-06	3.122563e-09	2.499765e+01	2.046719e+02
1.070000e-06	3.657399e-06	3.261633e-09	2.596832e+01	2.137364e+02
1.080000e-06	3.792677e-06	3.394358e-09	2.692882e+01	2.222923e+02
1.090000e-06	3.926620e-06	3.521066e-09	2.787984e+01	2.303931e+02
1.100000e-06	4.059206e-06	3.641307e-09	2.882123e+01	2.380857e+02
1.110000e-06	4.190388e-06	3.756721e-09	2.975265e+01	2.454080e+02
1.120000e-06	4.320106e-06	3.865437e-09	3.067368e+01	2.523889e+02
1.130000e-06	4.448225e-06	3.965285e-09	3.158335e+01	2.590482e+02
1.140000e-06	4.574779e-06	4.057375e-09	3.248191e+01	2.653999e+02
1.150000e-06	4.699865e-06	4.146645e-09	3.337005e+01	2.714541e+02
1.160000e-06	4.823363e-06	4.234899e-09	3.424691e+01	2.772202e+02
1.170000e-06	4.945131e-06	4.318365e-09	3.511149e+01	2.827091e+02
1.180000e-06	5.065068e-06	4.396571e-09	3.596307e+01	2.879352e+02
1.190000e-06	5.183106e-06	4.470663e-09	3.680116e+01	2.929161e+02
1.200000e-06	5.299224e-06	4.546766e-09	3.762563e+01	2.976723e+02
1.210000e-06	5.413271e-06	4.622331e-09	3.843539e+01	3.022261e+02
1.220000e-06	5.525185e-06	4.692354e-09	3.923000e+01	3.065986e+02
1.230000e-06	5.635157e-06	4.754885e-09	4.001082e+01	3.108081e+02
1.240000e-06	5.743243e-06	4.811933e-09	4.077826e+01	3.148678e+02
1.250000e-06	5.849252e-06	4.869181e-09	4.153095e+01	3.187849e+02
1.260000e-06	5.953012e-06	4.925675e-09	4.226766e+01	3.225597e+02
1.270000e-06	6.054614e-06	4.980558e-09	4.298906e+01	3.261867e+02
1.280000e-06	6.154029e-06	5.030505e-09	4.369493e+01	3.296563e+02
1.290000e-06	6.251054e-06	5.077157e-09	4.438383e+01	3.329568e+02
1.300000e-06	6.345719e-06	5.124824e-09	4.505597e+01	3.360773e+02
1.310000e-06	6.438245e-06	5.171738e-09	4.571292e+01	3.390101e+02
1.320000e-06	6.528561e-06	5.214241e-09	4.635419e+01	3.417530e+02
1.330000e-06	6.616461e-06	5.252344e-09	4.697829e+01	3.443105e+02
1.340000e-06	6.702012e-06	5.289223e-09	4.758572e+01	3.466937e+02
1.350000e-06	6.785324e-06	5.325251e-09	4.817726e+01	3.489195e+02
1.360000e-06	6.866197e-06	5.360180e-09	4.875147e+01	3.510089e+02
1.370000e-06	6.944436e-06	5.391838e-09	4.930699e+01	3.529843e+02
1.380000e-06	7.020059e-06	5.419109e-09	4.984392e+01	3.548673e+02
1.390000e-06	7.093020e-06	5.446255e-09	5.036197e+01	3.566752e+02
1.400000e-06	7.163417e-06	5.473857e-09	5.086180e+01	3.584200e+02
1.410000e-06	7.231325e-06	5.500384e-09	5.134396e+01	3.601068e+02
1.420000e-06	7.296595e-06	5.525253e-09	5.180739e+01	3.617341e+02
1.430000e-06	7.359244e-06	5.547635e-09	5.225221e+01	3.632943e+02
1.440000e-06	7.419504e-06	5.568405e-09	5.268007e+01	3.647763e+02
1.450000e-06	7.477151e-06	5.588703e-09	5.308937e+01	3.661676e+02
1.460000e-06	7.532027e-06	5.607837e-09	5.347901e+01	3.674568e+02
1.470000e-06	7.583994e-06	5.624444e-09	5.384799e+01	3.686360e+02
1.480000e-06	7.632789e-06	5.639240e-09	5.419444e+01	3.697026e+02
1.490000e-06	7.678717e-06	5.653353e-09	5.452054e+01	3.706600e+02
1.500000e-06	7.722069e-06	5.666562e-09	5.482835e+01	3.715170e+02
1.510000e-06	7.762657e-06	5.681012e-09	5.511653e+01	3.722870e+02
1.520000e-06	7.800445e-06	5.696384e-09	5.538483e+01	3.729857e+02
1.530000e-06	7.835609e-06	5.710584e-09	5.563451e+01	3.736286e+02
1.540000e-06	7.867987e-06	5.721187e-09	5.586440e+01	3.742284e+02
1.550000e-06	7.897558e-06	5.727406e-09	5.607436e+01	3.747933e+02
1.560000e-06	7.924361e-06	5.733370e-09	5.626466e+01	3.753254e+02
1.570000e-06	7.948220e-06	5.740685e-09	5.643407e+01	3.758206e+02
1.580000e-06	7.969258e-06	5.748702e-09	5.658344e+01	3.762692e+02
1.590000e-06	7.987522e-06	5.755000e-09	5.671312e+01	3.766578e+02
1.600000e-06	8.002789e-06	5.759639e-09	5.682152e+01	3.769716e+02
1.610000e-06	8.014937e-06	5.763838e-09	5.690778e+01	3.771972e+02
1.620000e-06	8.023948e-06	5.767159e-09	5.697176e+01	3.773256e+02
1.630000e-06	8.030022e-06	5.769732e-09	5.701488e+01	3.773534e+02
1.640000e-06	8.033322e-06	5.771289e-09	5.703831e+01	3.772848e+02
1.650000e-06	8.033771e-06	5.768240e-09	5.704150e+01	3.771310e+02
1.660000e-06	8.031472e-06	5.768478e-09	5.702517e+01	3.769090e+02
1.670000e-06	8.026495e-06	5.762105e-09	5.698984e+01	3.766394e+02
1.680000e-06	8.018823e-06	5.754765e-09	5.693536e+01	3.763434e+02
1.690000e-06	8.008548e-06	5.750634e-09	5.686241e+01	3.760394e+02
1.700000e-06	7.995428e-06	5.747884e-09	5.676925e+01	3.757399e+02
1.710000e-06	7.979510e-06	5.743643e-09	5.665623e+01	3.754492e+02
1.720000e-06	7.961270e-06	5.726940e-09	5.652673e+01	3.751620e+02
1.730000e-06	7.940688e-06	5.702232e-09	5.638059e+01	3.748635e+02
1.740000e-06	7.917246e-06	5.709888e-09	5.621415e+01	3.745307e+02
1.750000e-06	7.890296e-06	5.681379e-09	5.602279e+01	3.741351e+02
1.760000e-06	7.859708e-06	5.672961e-09	5.580561e+01	3.736458e+02
1.770000e-06	7.826161e-06	5.700193e-09	5.556742e+01	3.730343e+02
1.780000e-06	7.790314e-06	5.732765e-09	5.531290e+01	3.722770e+02
1.790000e-06	7.752167e-06	5.708253e-09	5.504205e+01	3.713594e+02
1.800000e-06	7.711895e-06	5.727095e-09	5.475611e+01	3.702776e+02
1.810000e-06	7.669376e-06	5.630623e-09	5.445421e+01	3.690390e+02
1.820000e-06	7.624178e-06	5.523937e-09	5.413330e+01	3.676615e+02
1.830000e-06	7.576415e-06	5.602140e-09	5.379417e+01	3.661712e+02
1.840000e-06	7.525738e-06	5.513481e-09	5.343436e+01	3.645996e+02
1.850000e-06	7.471944e-06	5.567360e-09	5.305241e+01	3.629794e+02
1.860000e-06	7.415361e-06	5.522019e-09	5.265066e+01	3.613406e+02
1.870000e-06	7.356131e-06	5.395006e-09	5.223011e+01	3.597071e+02
1.880000e-06	7.294252e-06	5.422679e-09	5.179075e+01	3.580943e+02
1.890000e-06	7.229565e-06	5.358078e-09	5.133146e+01	3.565074e+02
1.900000e-06	7.162122e-06	5.395776e-09	5.085260e+01	3.549416e+02
1.910000e-06	7.091899e-06	5.381111e-09	5.035401e+01	3.533832e+02
1.920000e-06	7.018902e-06	5.334856e-09	4.983571e+01	3.518119e+02
1.930000e-06	6.943189e-06	5.259824e-09	4.929813e+01	3.502041e+02
1.940000e-06	6.864642e-06	5.209332e-09	4.874043e+01	3.485357e+02
1.950000e-06	6.783513e-06	5.284720e-09	4.816440e+01	3.467854e+02
1.960000e-06	6.699937e-06	5.224291e-09	4.757099e+01	3.449369e+02
1.970000e-06	6.613836e-06	5.196801e-09	4.695965e+01	3.429806e+02
1.980000e-06	6.525269e-06	5.152092e-09	4.633081e+01	3.409140e+02
1.990000e-06	6.434420e-06	5.111975e-09	4.568576e+01	3.387406e+02
2.000000e-06	6.341350e-06	5.086566e-09	4.502495e+01	3.364690e+02
2.010000e-06	6.245987e-06	5.059007e-09	4.434785e+01	3.341106e+02
2.020000e-06	6.148408e-06	5.057266e-09	4.365502e+01	3.316772e+02
2.030000e-06	6.048568e-06	4.963382e-09	4.294613e+01	3.291790e+02
2.040000e-06	5.946507e-06	4.904240e-09	4.222148e+01	3.266228e+02
2.050000e-06	5.842335e-06	4.894735e-09	4.148183e+01	3.240112e+02
2.060000e-06	5.736258e-06	4.913876e-09	4.072866e+01	3.213423e+02
2.070000e-06	5.628301e-06	4.849158e-09	3.996214e+01	3.186101e+02
2.080000e-06	5.518288e-06	4.772987e-09	3.918103e+01	3.158060e+02
2.090000e-06	5.406261e-06	4.720627e-09	3.838561e+01	3.129199e+02
2.100000e-06	5.292245e-06	4.661165e-09	3.757608e+01	3.099421e+02
2.110000e-06	5.176164e-06	4.637214e-09	3.675188e+01	3.068641e+02
2.120000e-06	5.057981e-06	4.635370e-09	3.591275e+01	3.036802e+02
2.130000e-06	4.937886e-06	4.600413e-09	3.506005e+01	3.003872e+02
2.140000e-06	4.816038e-06	4.496398e-09	3.419490e+01	2.969844e+02
2.150000e-06	4.692522e-06	4.424102e-09	3.331791e+01	2.934733e+02
2.160000e-06	4.567217e-06	4.390481e-09	3.242822e+01	2.898557e+02
2.170000e-06	4.440187e-06	4.355648e-09	3.152628e+01	2.861332e+02
2.180000e-06	4.311570e-06	4.285981e-09	3.061308e+01	2.823062e+02
2.190000e-06	4.181421e-06	4.223032e-09	2.968898e+01	2.783728e+02
2.200000e-06	4.049749e-06	4.153968e-09	2.875409e+01	2.743293e+02
2.210000e-06	3.916501e-06	4.083543e-09	2.780800e+01	2.701698e+02
2.220000e-06	3.781766e-06	4.037742e-09	2.685135e+01	2.658872e+02
2.230000e-06	3.645612e-06	3.997214e-09	2.588463e+01	2.614744e+02
2.240000e-06	3.508132e-06	3.920859e-09	2.490849e+01	2.569249e+02
2.250000e-06	3.369258e-06	3.820161e-09	2.392245e+01	2.522339e+02
2.260000e-06	3.228992e-06	3.751632e-09	2.292654e+01	2.473989e+02
2.270000e-06	3.087412e-06	3.697286e-09	2.192129e+01	2.424192e+02
2.280000e-06	2.944636e-06	3.624315e-09	2.090755e+01	2.372959e+02
2.290000e-06	2.800744e-06	3.530292e-09	1.988589e+01	2.320305e+02
2.300000e-06	2.655792e-06	3.435923e-09	1.885669e+01	2.266238e+02
2.310000e-06	2.509996e-06	3.341459e-09	1.782151e+01	2.210744e+02
2.320000e-06	2.363529e-06	3.264577e-09	1.678156e+01	2.153776e+02
2.330000e-06	2.216301e-06	3.203862e-09	1.573621e+01	2.095247e+02
2.340000e-06	2.068211e-06	3.127885e-09	1.468474e+01	2.035027e+02
2.350000e-06	1.919370e-06	3.018835e-09	1.362794e+01	1.972953e+02
2.360000e-06	1.769876e-06	2.902605e-09	1.256650e+01	1.908835e+02
2.370000e-06	1.619821e-06	2.803961e-09	1.150108e+01	1.842478e+02
2.380000e-06	1.469261e-06	2.712157e-09	1.043207e+01	1.773699e+02
2.390000e-06	1.318285e-06	2.609309e-09	9.360108e+00	1.702340e+02
2.400000e-06	1.166926e-06	2.491488e-09	8.285427e+00	1.628284e+02
2.410000e-06	1.015099e-06	2.366329e-09	7.207423e+00	1.551455e+02
2.420000e-06	8.628684e-07	2.242608e-09	6.126551e+00	1.471818e+02
2.430000e-06	7.103882e-07	2.127202e-09	5.043909e+00	1.389355e+02
2.440000e-06	5.576774e-07	2.012648e-09	3.959629e+00	1.304054e+02
2.450000e-06	4.047035e-07	1.882948e-09	2.873482e+00	1.215870e+02
2.460000e-06	2.515725e-07	1.737457e-09	1.786219e+00	1.124707e+02
2.470000e-06	9.828013e-08	1.587789e-09	6.978100e-01	1.030395e+02
2.480000e-06	-5.510393e-08	1.438811e-09	-3.912497e-01	9.326753e+01
2.490000e-06	-2.084074e-07	1.287029e-09	-1.479737e+00	8.312051e+01
2.500000e-06	-3.616138e-07	1.126920e-09	-2.567536e+00	7.255780e+01
2.510000e-06	-5.146802e-07	9.588901e-10	-3.654340e+00	6.153583e+01
2.520000e-06	-6.675897e-07	7.826955e-10	-4.740030e+00	5.001309e+01
2.530000e-06	-8.203256e-07	6.026937e-10	-5.824488e+00	3.795606e+01
2.540000e-06	-9.727647e-07	4.199105e-10	-6.906838e+00	2.534547e+01
2.550000e-06	-1.124788e-06	2.231201e-10	-7.986238e+00	1.218207e+01
2.560000e-06	-1.276416e-06	8.354262e-12	-9.062827e+00	-1.508755e+00
2.570000e-06	-1.427600e-06	-2.143326e-10	-1.013627e+01	-1.567425e+01
2.580000e-06	-1.578299e-06	-4.391081e-10	-1.120626e+01	-3.023392e+01
2.590000e-06	-1.728442e-06	-6.654656e-10	-1.227231e+01	-4.508167e+01
2.600000e-06	-1.877933e-06	-8.947007e-10	-1.333373e+01	-6.009054e+01
2.610000e-06	-2.026721e-06	-1.124295e-09	-1.439016e+01	-7.511948e+01
2.620000e-06	-2.174711e-06	-1.355232e-09	-1.544092e+01	-9.002165e+01
2.630000e-06	-2.321791e-06	-1.584283e-09	-1.648521e+01	-1.046534e+02
2.640000e-06	-2.468005e-06	-1.800664e-09	-1.752337e+01	-1.188831e+02
2.650000e-06	-2.613419e-06	-2.006303e-09	-1.855584e+01	-1.325984e+02
2.660000e-06	-2.757846e-06	-2.206333e-09	-1.958130e+01	-1.457125e+02
2.670000e-06	-2.901133e-06	-2.399843e-09	-2.059867e+01	-1.581671e+02
2.680000e-06	-3.043282e-06	-2.579425e-09	-2.160795e+01	-1.699332e+02
2.690000e-06	-3.184258e-06	-2.744896e-09	-2.260891e+01	-1.810091e+02
2.700000e-06	-3.323913e-06	-2.900912e-09	-2.360049e+01	-1.914168e+02
2.710000e-06	-3.462241e-06	-3.046326e-09	-2.458265e+01	-2.011957e+02
2.720000e-06	-3.599291e-06	-3.185144e-09	-2.555574e+01	-2.103967e+02
2.730000e-06	-3.735014e-06	-3.320561e-09	-2.651940e+01	-2.190752e+02
2.740000e-06	-3.869442e-06	-3.452250e-09	-2.747387e+01	-2.272856e+02
2.750000e-06	-4.002506e-06	-3.574533e-09	-2.841865e+01	-2.350769e+02
2.760000e-06	-4.134054e-06	-3.686955e-09	-2.935267e+01	-2.424893e+02
2.770000e-06	-4.264184e-06	-3.796307e-09	-3.027662e+01	-2.495539e+02
2.780000e-06	-4.392917e-06	-3.900014e-09	-3.119066e+01	-2.562928e+02
2.790000e-06	-4.520123e-06	-3.995221e-09	-3.209385e+01	-2.627209e+02
2.800000e-06	-4.645752e-06	-4.081763e-09	-3.298584e+01	-2.688492e+02
2.810000e-06	-4.769706e-06	-4.164441e-09	-3.386594e+01	-2.746869e+02
2.820000e-06	-4.892000e-06	-4.247052e-09	-3.473425e+01	-2.802446e+02
2.830000e-06	-5.012598e-06	-4.329528e-09	-3.559052e+01	-2.855354e+02
2.840000e-06	-5.131261e-06	-4.410433e-09	-3.643305e+01	-2.905763e+02
2.850000e-06	-5.247798e-06	-4.487383e-09	-3.726049e+01	-2.953873e+02
2.860000e-06	-5.362184e-06	-4.559048e-09	-3.807265e+01	-2.999902e+02
2.870000e-06	-5.474475e-06	-4.627893e-09	-3.886995e+01	-3.044067e+02
2.880000e-06	-5.584605e-06	-4.695815e-09	-3.965190e+01	-3.086560e+02
2.890000e-06	-5.692739e-06	-4.762502e-09	-4.041967e+01	-3.127529e+02
2.900000e-06	-5.799064e-06	-4.826277e-09	-4.117460e+01	-3.167059e+02
2.910000e-06	-5.903352e-06	-4.884824e-09	-4.191507e+01	-3.205172e+02
2.920000e-06	-6.005310e-06	-4.937167e-09	-4.263899e+01	-3.241825e+02
2.930000e-06	-6.104975e-06	-4.986456e-09	-4.334663e+01	-3.276932e+02
2.940000e-06	-6.202479e-06	-5.037550e-09	-4.403893e+01	-3.310376e+02
