# Temperatura_=_40.21
# Concentracion g/m^3_=_5000.0
# C_Vs_to_Am_M_A/Vsm_=_65563218390.804596
# pendiente_HvsI_1/m_=_3716.3
# ordenada_HvsI_A/m_=_1297.0
# frecuencia_Hz_=_302574.8376557852

Tiempo_(s)	Campo_(V.s)	Magnetizacion_(V.s)	Campo_(kA/m)	Magnetizacion_(A/m)
0.000000e+00	-7.942586e-06	-5.659290e-09	-5.685216e+01	-3.698471e+02
1.000000e-08	-7.939531e-06	-5.658540e-09	-5.683029e+01	-3.696553e+02
2.000000e-08	-7.933850e-06	-5.654649e-09	-5.678964e+01	-3.693813e+02
3.000000e-08	-7.925633e-06	-5.649327e-09	-5.673082e+01	-3.690420e+02
4.000000e-08	-7.914623e-06	-5.644972e-09	-5.665201e+01	-3.686578e+02
5.000000e-08	-7.900614e-06	-5.639804e-09	-5.655173e+01	-3.682493e+02
6.000000e-08	-7.883747e-06	-5.631001e-09	-5.643100e+01	-3.678353e+02
7.000000e-08	-7.864502e-06	-5.624273e-09	-5.629325e+01	-3.674296e+02
8.000000e-08	-7.843017e-06	-5.627750e-09	-5.613946e+01	-3.670398e+02
9.000000e-08	-7.818620e-06	-5.635531e-09	-5.596483e+01	-3.666655e+02
1.000000e-07	-7.790894e-06	-5.650984e-09	-5.576637e+01	-3.662985e+02
1.100000e-07	-7.760150e-06	-5.636032e-09	-5.554630e+01	-3.659232e+02
1.200000e-07	-7.726673e-06	-5.596527e-09	-5.530668e+01	-3.655192e+02
1.300000e-07	-7.690595e-06	-5.544428e-09	-5.504844e+01	-3.650627e+02
1.400000e-07	-7.652235e-06	-5.491263e-09	-5.477387e+01	-3.645296e+02
1.500000e-07	-7.611808e-06	-5.519064e-09	-5.448449e+01	-3.638986e+02
1.600000e-07	-7.569021e-06	-5.562236e-09	-5.417822e+01	-3.631528e+02
1.700000e-07	-7.523481e-06	-5.584081e-09	-5.385225e+01	-3.622818e+02
1.800000e-07	-7.475253e-06	-5.551463e-09	-5.350705e+01	-3.612825e+02
1.900000e-07	-7.423961e-06	-5.483351e-09	-5.313990e+01	-3.601590e+02
2.000000e-07	-7.369636e-06	-5.438610e-09	-5.275105e+01	-3.589215e+02
2.100000e-07	-7.312674e-06	-5.395949e-09	-5.234332e+01	-3.575848e+02
2.200000e-07	-7.253011e-06	-5.430321e-09	-5.191626e+01	-3.561662e+02
2.300000e-07	-7.190797e-06	-5.440337e-09	-5.147094e+01	-3.546832e+02
2.400000e-07	-7.125893e-06	-5.380249e-09	-5.100637e+01	-3.531514e+02
2.500000e-07	-7.058206e-06	-5.352184e-09	-5.052187e+01	-3.515825e+02
2.600000e-07	-6.987962e-06	-5.352007e-09	-5.001907e+01	-3.499837e+02
2.700000e-07	-6.914953e-06	-5.338132e-09	-4.949648e+01	-3.483570e+02
2.800000e-07	-6.839078e-06	-5.304743e-09	-4.895338e+01	-3.466994e+02
2.900000e-07	-6.760321e-06	-5.295995e-09	-4.838964e+01	-3.450036e+02
3.000000e-07	-6.678833e-06	-5.261727e-09	-4.780636e+01	-3.432599e+02
3.100000e-07	-6.595139e-06	-5.218200e-09	-4.720728e+01	-3.414568e+02
3.200000e-07	-6.509258e-06	-5.205573e-09	-4.659256e+01	-3.395833e+02
3.300000e-07	-6.421040e-06	-5.166157e-09	-4.596111e+01	-3.376298e+02
3.400000e-07	-6.330456e-06	-5.105136e-09	-4.531272e+01	-3.355887e+02
3.500000e-07	-6.237629e-06	-5.054953e-09	-4.464827e+01	-3.334558e+02
3.600000e-07	-6.142627e-06	-5.043126e-09	-4.396826e+01	-3.312293e+02
3.700000e-07	-6.045297e-06	-5.028695e-09	-4.327157e+01	-3.289102e+02
3.800000e-07	-5.945692e-06	-5.000499e-09	-4.255862e+01	-3.265012e+02
3.900000e-07	-5.844013e-06	-4.974798e-09	-4.183081e+01	-3.240063e+02
4.000000e-07	-5.740233e-06	-4.922921e-09	-4.108796e+01	-3.214294e+02
4.100000e-07	-5.634411e-06	-4.849778e-09	-4.033050e+01	-3.187739e+02
4.200000e-07	-5.526661e-06	-4.803732e-09	-3.955924e+01	-3.160422e+02
4.300000e-07	-5.417021e-06	-4.803836e-09	-3.877444e+01	-3.132353e+02
4.400000e-07	-5.305466e-06	-4.768392e-09	-3.797594e+01	-3.103522e+02
4.500000e-07	-5.191785e-06	-4.696684e-09	-3.716223e+01	-3.073911e+02
4.600000e-07	-5.075981e-06	-4.640809e-09	-3.633332e+01	-3.043483e+02
4.700000e-07	-4.958368e-06	-4.591622e-09	-3.549145e+01	-3.012195e+02
4.800000e-07	-4.839006e-06	-4.531034e-09	-3.463707e+01	-2.979999e+02
4.900000e-07	-4.717810e-06	-4.486602e-09	-3.376957e+01	-2.946842e+02
5.000000e-07	-4.594812e-06	-4.452194e-09	-3.288916e+01	-2.912669e+02
5.100000e-07	-4.470135e-06	-4.391459e-09	-3.199674e+01	-2.877429e+02
5.200000e-07	-4.343969e-06	-4.326132e-09	-3.109365e+01	-2.841069e+02
5.300000e-07	-4.216172e-06	-4.278926e-09	-3.017890e+01	-2.803542e+02
5.400000e-07	-4.086780e-06	-4.226890e-09	-2.925272e+01	-2.764801e+02
5.500000e-07	-3.955904e-06	-4.149940e-09	-2.831593e+01	-2.724808e+02
5.600000e-07	-3.823491e-06	-4.080248e-09	-2.736813e+01	-2.683529e+02
5.700000e-07	-3.689715e-06	-4.024127e-09	-2.641058e+01	-2.640939e+02
5.800000e-07	-3.554593e-06	-3.950784e-09	-2.544339e+01	-2.597021e+02
5.900000e-07	-3.418020e-06	-3.869675e-09	-2.446581e+01	-2.551769e+02
6.000000e-07	-3.280062e-06	-3.803095e-09	-2.347832e+01	-2.505182e+02
6.100000e-07	-3.140748e-06	-3.735445e-09	-2.248113e+01	-2.457263e+02
6.200000e-07	-3.000036e-06	-3.653298e-09	-2.147393e+01	-2.408015e+02
6.300000e-07	-2.858081e-06	-3.579841e-09	-2.045783e+01	-2.357433e+02
6.400000e-07	-2.715014e-06	-3.517705e-09	-1.943377e+01	-2.305497e+02
6.500000e-07	-2.570946e-06	-3.441030e-09	-1.840255e+01	-2.252165e+02
6.600000e-07	-2.425945e-06	-3.346899e-09	-1.736465e+01	-2.197372e+02
6.700000e-07	-2.280030e-06	-3.253389e-09	-1.632021e+01	-2.141021e+02
6.800000e-07	-2.133360e-06	-3.160753e-09	-1.527035e+01	-2.082991e+02
6.900000e-07	-1.986060e-06	-3.062472e-09	-1.421600e+01	-2.023134e+02
7.000000e-07	-1.838103e-06	-2.966181e-09	-1.315694e+01	-1.961294e+02
7.100000e-07	-1.689532e-06	-2.873172e-09	-1.209349e+01	-1.897308e+02
7.200000e-07	-1.540578e-06	-2.773520e-09	-1.102729e+01	-1.831023e+02
7.300000e-07	-1.391243e-06	-2.665597e-09	-9.958367e+00	-1.762304e+02
7.400000e-07	-1.241433e-06	-2.557106e-09	-8.886039e+00	-1.691045e+02
7.500000e-07	-1.091183e-06	-2.447906e-09	-7.810572e+00	-1.617168e+02
7.600000e-07	-9.405557e-07	-2.334692e-09	-6.732395e+00	-1.540623e+02
7.700000e-07	-7.895923e-07	-2.213815e-09	-5.651816e+00	-1.461378e+02
7.800000e-07	-6.382977e-07	-2.086790e-09	-4.568865e+00	-1.379402e+02
7.900000e-07	-4.867331e-07	-1.954971e-09	-3.483983e+00	-1.294645e+02
8.000000e-07	-3.349561e-07	-1.818420e-09	-2.397579e+00	-1.207025e+02
8.100000e-07	-1.831087e-07	-1.678938e-09	-1.310672e+00	-1.116400e+02
8.200000e-07	-3.123707e-08	-1.534373e-09	-2.235916e-01	-1.022564e+02
8.300000e-07	1.207553e-07	-1.383350e-09	8.643529e-01	-9.252390e+01
8.400000e-07	2.727722e-07	-1.225135e-09	1.952473e+00	-8.240879e+01
8.500000e-07	4.246968e-07	-1.063058e-09	3.039934e+00	-7.187329e+01
8.600000e-07	5.764977e-07	-8.974546e-10	4.126508e+00	-6.087907e+01
8.700000e-07	7.281987e-07	-7.246957e-10	5.212367e+00	-4.939159e+01
8.800000e-07	8.796584e-07	-5.447143e-10	6.296499e+00	-3.738518e+01
8.900000e-07	1.030790e-06	-3.549259e-10	7.378284e+00	-2.484808e+01
9.000000e-07	1.181594e-06	-1.562214e-10	8.457717e+00	-1.178718e+01
9.100000e-07	1.331920e-06	4.632844e-11	9.533735e+00	1.768411e+00
9.200000e-07	1.481761e-06	2.546629e-10	1.060629e+01	1.576529e+01
9.300000e-07	1.631136e-06	4.703366e-10	1.167549e+01	3.012565e+01
9.400000e-07	1.779964e-06	6.923151e-10	1.274079e+01	4.474929e+01
9.500000e-07	1.928140e-06	9.175578e-10	1.380141e+01	5.951764e+01
9.600000e-07	2.075562e-06	1.145785e-09	1.485665e+01	7.429960e+01
9.700000e-07	2.222279e-06	1.373681e-09	1.590683e+01	8.895865e+01
9.800000e-07	2.368260e-06	1.593951e-09	1.695175e+01	1.033606e+02
9.900000e-07	2.513320e-06	1.805326e-09	1.799007e+01	1.173812e+02
1.000000e-06	2.657365e-06	2.007468e-09	1.902113e+01	1.309131e+02
1.010000e-06	2.800333e-06	2.202414e-09	2.004448e+01	1.438709e+02
1.020000e-06	2.942224e-06	2.386098e-09	2.106012e+01	1.561948e+02
1.030000e-06	3.083045e-06	2.557177e-09	2.206810e+01	1.678518e+02
1.040000e-06	3.222541e-06	2.723009e-09	2.306660e+01	1.788346e+02
1.050000e-06	3.360687e-06	2.879863e-09	2.405543e+01	1.891582e+02
1.060000e-06	3.497579e-06	3.028203e-09	2.503529e+01	1.988561e+02
1.070000e-06	3.633082e-06	3.166756e-09	2.600521e+01	2.079740e+02
1.080000e-06	3.767295e-06	3.299783e-09	2.696588e+01	2.165642e+02
1.090000e-06	3.900234e-06	3.426962e-09	2.791745e+01	2.246802e+02
1.100000e-06	4.031693e-06	3.547160e-09	2.885842e+01	2.323719e+02
1.110000e-06	4.161697e-06	3.664121e-09	2.978897e+01	2.396824e+02
1.120000e-06	4.290277e-06	3.772121e-09	3.070934e+01	2.466463e+02
1.130000e-06	4.417341e-06	3.869740e-09	3.161885e+01	2.532894e+02
1.140000e-06	4.542971e-06	3.960442e-09	3.251809e+01	2.596297e+02
1.150000e-06	4.667052e-06	4.048802e-09	3.340625e+01	2.656794e+02
1.160000e-06	4.789495e-06	4.136002e-09	3.428268e+01	2.714475e+02
1.170000e-06	4.910262e-06	4.219217e-09	3.514712e+01	2.769425e+02
1.180000e-06	5.029172e-06	4.297631e-09	3.599826e+01	2.821741e+02
1.190000e-06	5.146184e-06	4.374425e-09	3.683582e+01	2.871548e+02
1.200000e-06	5.261256e-06	4.449900e-09	3.765950e+01	2.919003e+02
1.210000e-06	5.374257e-06	4.525316e-09	3.846835e+01	2.964290e+02
1.220000e-06	5.485222e-06	4.593509e-09	3.926262e+01	3.007607e+02
1.230000e-06	5.594286e-06	4.652680e-09	4.004329e+01	3.049149e+02
1.240000e-06	5.701364e-06	4.707152e-09	4.080974e+01	3.089087e+02
1.250000e-06	5.806353e-06	4.760711e-09	4.156124e+01	3.127553e+02
1.260000e-06	5.909256e-06	4.815362e-09	4.229781e+01	3.164626e+02
1.270000e-06	6.009980e-06	4.868831e-09	4.301878e+01	3.200327e+02
1.280000e-06	6.108439e-06	4.919007e-09	4.372354e+01	3.234627e+02
1.290000e-06	6.204623e-06	4.966796e-09	4.441201e+01	3.267456e+02
1.300000e-06	6.298532e-06	5.014576e-09	4.508420e+01	3.298721e+02
1.310000e-06	6.390195e-06	5.061754e-09	4.574032e+01	3.328329e+02
1.320000e-06	6.479542e-06	5.103382e-09	4.637986e+01	3.356212e+02
1.330000e-06	6.566568e-06	5.138514e-09	4.700278e+01	3.382338e+02
1.340000e-06	6.651338e-06	5.172135e-09	4.760955e+01	3.406729e+02
1.350000e-06	6.733845e-06	5.207857e-09	4.820013e+01	3.429465e+02
1.360000e-06	6.813895e-06	5.242656e-09	4.877312e+01	3.450673e+02
1.370000e-06	6.891335e-06	5.273577e-09	4.932743e+01	3.470521e+02
1.380000e-06	6.966168e-06	5.302705e-09	4.986307e+01	3.489197e+02
1.390000e-06	7.038392e-06	5.331598e-09	5.038004e+01	3.506884e+02
1.400000e-06	7.108107e-06	5.359917e-09	5.087905e+01	3.523744e+02
1.410000e-06	7.175374e-06	5.385024e-09	5.136054e+01	3.539896e+02
1.420000e-06	7.240019e-06	5.405581e-09	5.182327e+01	3.555407e+02
1.430000e-06	7.302111e-06	5.423674e-09	5.226771e+01	3.570289e+02
1.440000e-06	7.361800e-06	5.441660e-09	5.269496e+01	3.584504e+02
1.450000e-06	7.418882e-06	5.460722e-09	5.310354e+01	3.597976e+02
1.460000e-06	7.473260e-06	5.479292e-09	5.349278e+01	3.610614e+02
1.470000e-06	7.524695e-06	5.495814e-09	5.386094e+01	3.622324e+02
1.480000e-06	7.573041e-06	5.512003e-09	5.420700e+01	3.633041e+02
1.490000e-06	7.618643e-06	5.526589e-09	5.453342e+01	3.642734e+02
1.500000e-06	7.661572e-06	5.539055e-09	5.484070e+01	3.651421e+02
1.510000e-06	7.701703e-06	5.551810e-09	5.512795e+01	3.659170e+02
1.520000e-06	7.739155e-06	5.565018e-09	5.539602e+01	3.666088e+02
1.530000e-06	7.773940e-06	5.576989e-09	5.564502e+01	3.672310e+02
1.540000e-06	7.805876e-06	5.584529e-09	5.587361e+01	3.677979e+02
1.550000e-06	7.835062e-06	5.589626e-09	5.608251e+01	3.683222e+02
1.560000e-06	7.861518e-06	5.597254e-09	5.627189e+01	3.688133e+02
1.570000e-06	7.885039e-06	5.607564e-09	5.644025e+01	3.692758e+02
1.580000e-06	7.905763e-06	5.616181e-09	5.658859e+01	3.697086e+02
1.590000e-06	7.923746e-06	5.621687e-09	5.671731e+01	3.701052e+02
1.600000e-06	7.938785e-06	5.626221e-09	5.682496e+01	3.704543e+02
1.610000e-06	7.950784e-06	5.629735e-09	5.691084e+01	3.707421e+02
1.620000e-06	7.959679e-06	5.631420e-09	5.697451e+01	3.709541e+02
1.630000e-06	7.965610e-06	5.631398e-09	5.701697e+01	3.710776e+02
1.640000e-06	7.968751e-06	5.631485e-09	5.703945e+01	3.711041e+02
1.650000e-06	7.969037e-06	5.630076e-09	5.704150e+01	3.710307e+02
1.660000e-06	7.966630e-06	5.629095e-09	5.702427e+01	3.708612e+02
1.670000e-06	7.961672e-06	5.626835e-09	5.698878e+01	3.706059e+02
1.680000e-06	7.954019e-06	5.624383e-09	5.693400e+01	3.702808e+02
1.690000e-06	7.943658e-06	5.621338e-09	5.685984e+01	3.699055e+02
1.700000e-06	7.930397e-06	5.617313e-09	5.676492e+01	3.695008e+02
1.710000e-06	7.914438e-06	5.613892e-09	5.665068e+01	3.690862e+02
1.720000e-06	7.896173e-06	5.604537e-09	5.651994e+01	3.686771e+02
1.730000e-06	7.875618e-06	5.580430e-09	5.637282e+01	3.682827e+02
1.740000e-06	7.852314e-06	5.551079e-09	5.620601e+01	3.679047e+02
1.750000e-06	7.825495e-06	5.536007e-09	5.601404e+01	3.675366e+02
1.760000e-06	7.795022e-06	5.541581e-09	5.579592e+01	3.671648e+02
1.770000e-06	7.761587e-06	5.557453e-09	5.555659e+01	3.667698e+02
1.780000e-06	7.725932e-06	5.599651e-09	5.530138e+01	3.663282e+02
1.790000e-06	7.687909e-06	5.592254e-09	5.502921e+01	3.658161e+02
1.800000e-06	7.647787e-06	5.585923e-09	5.474203e+01	3.652110e+02
1.810000e-06	7.605552e-06	5.571959e-09	5.443971e+01	3.644948e+02
1.820000e-06	7.560647e-06	5.506476e-09	5.411829e+01	3.636553e+02
1.830000e-06	7.513192e-06	5.530196e-09	5.377861e+01	3.626876e+02
1.840000e-06	7.462863e-06	5.550056e-09	5.341836e+01	3.615940e+02
1.850000e-06	7.409474e-06	5.575445e-09	5.303620e+01	3.603834e+02
1.860000e-06	7.353259e-06	5.525435e-09	5.263383e+01	3.590696e+02
1.870000e-06	7.294393e-06	5.413338e-09	5.221247e+01	3.576694e+02
1.880000e-06	7.232939e-06	5.393183e-09	5.177259e+01	3.562006e+02
1.890000e-06	7.168636e-06	5.381037e-09	5.131231e+01	3.546793e+02
1.900000e-06	7.101634e-06	5.385060e-09	5.083272e+01	3.531184e+02
1.910000e-06	7.031873e-06	5.393385e-09	5.033338e+01	3.515264e+02
1.920000e-06	6.959285e-06	5.358619e-09	4.981380e+01	3.499064e+02
1.930000e-06	6.884085e-06	5.272063e-09	4.927553e+01	3.482566e+02
1.940000e-06	6.806037e-06	5.244396e-09	4.871687e+01	3.465709e+02
1.950000e-06	6.725356e-06	5.267691e-09	4.813936e+01	3.448398e+02
1.960000e-06	6.642325e-06	5.238963e-09	4.754504e+01	3.430523e+02
1.970000e-06	6.556840e-06	5.202759e-09	4.693315e+01	3.411970e+02
1.980000e-06	6.468866e-06	5.179195e-09	4.630343e+01	3.392639e+02
1.990000e-06	6.378621e-06	5.155315e-09	4.565748e+01	3.372449e+02
2.000000e-06	6.286243e-06	5.109420e-09	4.499624e+01	3.351348e+02
2.010000e-06	6.191477e-06	5.080827e-09	4.431792e+01	3.329313e+02
2.020000e-06	6.094431e-06	5.046679e-09	4.362327e+01	3.306348e+02
2.030000e-06	5.995308e-06	4.985102e-09	4.291376e+01	3.282476e+02
2.040000e-06	5.894125e-06	4.933519e-09	4.218950e+01	3.257734e+02
2.050000e-06	5.790781e-06	4.934570e-09	4.144978e+01	3.232162e+02
2.060000e-06	5.685340e-06	4.940345e-09	4.069504e+01	3.205797e+02
2.070000e-06	5.578054e-06	4.865411e-09	3.992710e+01	3.178666e+02
2.080000e-06	5.468927e-06	4.791807e-09	3.914598e+01	3.150781e+02
2.090000e-06	5.357765e-06	4.741532e-09	3.835030e+01	3.122139e+02
2.100000e-06	5.244549e-06	4.696568e-09	3.753991e+01	3.092721e+02
2.110000e-06	5.129395e-06	4.671294e-09	3.671565e+01	3.062497e+02
2.120000e-06	5.012187e-06	4.662054e-09	3.587668e+01	3.031425e+02
2.130000e-06	4.892972e-06	4.609766e-09	3.502336e+01	2.999458e+02
2.140000e-06	4.771952e-06	4.516772e-09	3.415711e+01	2.966542e+02
2.150000e-06	4.649270e-06	4.450441e-09	3.327897e+01	2.932625e+02
2.160000e-06	4.524914e-06	4.424108e-09	3.238884e+01	2.897652e+02
2.170000e-06	4.398898e-06	4.389530e-09	3.148683e+01	2.861574e+02
2.180000e-06	4.271235e-06	4.326115e-09	3.057303e+01	2.824339e+02
2.190000e-06	4.141990e-06	4.265972e-09	2.964791e+01	2.785901e+02
2.200000e-06	4.011305e-06	4.196502e-09	2.871248e+01	2.746221e+02
2.210000e-06	3.879107e-06	4.124000e-09	2.776623e+01	2.705262e+02
2.220000e-06	3.745421e-06	4.072187e-09	2.680931e+01	2.662998e+02
2.230000e-06	3.610239e-06	4.026167e-09	2.584170e+01	2.619410e+02
2.240000e-06	3.473674e-06	3.950062e-09	2.486418e+01	2.574488e+02
2.250000e-06	3.335848e-06	3.864088e-09	2.387763e+01	2.528230e+02
2.260000e-06	3.196806e-06	3.800468e-09	2.288239e+01	2.480640e+02
2.270000e-06	3.056478e-06	3.742262e-09	2.187794e+01	2.431721e+02
2.280000e-06	2.914896e-06	3.659726e-09	2.086451e+01	2.381470e+02
2.290000e-06	2.772179e-06	3.566970e-09	1.984296e+01	2.329871e+02
2.300000e-06	2.628369e-06	3.480363e-09	1.881358e+01	2.276890e+02
2.310000e-06	2.483662e-06	3.394983e-09	1.777778e+01	2.222467e+02
2.320000e-06	2.338208e-06	3.319999e-09	1.673664e+01	2.166512e+02
2.330000e-06	2.192041e-06	3.251532e-09	1.569039e+01	2.108910e+02
2.340000e-06	2.045070e-06	3.165346e-09	1.463839e+01	2.049521e+02
2.350000e-06	1.897343e-06	3.054736e-09	1.358098e+01	1.988189e+02
2.360000e-06	1.748986e-06	2.946549e-09	1.251905e+01	1.924751e+02
2.370000e-06	1.600123e-06	2.855886e-09	1.145351e+01	1.859050e+02
2.380000e-06	1.450829e-06	2.767868e-09	1.038487e+01	1.790947e+02
2.390000e-06	1.301064e-06	2.665518e-09	9.312877e+00	1.720327e+02
2.400000e-06	1.150907e-06	2.547484e-09	8.238066e+00	1.647107e+02
2.410000e-06	1.000399e-06	2.419729e-09	7.160750e+00	1.571229e+02
2.420000e-06	8.495430e-07	2.292991e-09	6.080936e+00	1.492658e+02
2.430000e-06	6.983822e-07	2.177129e-09	4.998944e+00	1.411364e+02
2.440000e-06	5.469404e-07	2.063354e-09	3.914939e+00	1.327305e+02
2.450000e-06	3.952204e-07	1.936159e-09	2.828944e+00	1.240408e+02
2.460000e-06	2.432390e-07	1.795184e-09	1.741078e+00	1.150547e+02
2.470000e-06	9.111958e-08	1.649618e-09	6.522240e-01	1.057533e+02
2.480000e-06	-6.108823e-08	1.502408e-09	-4.372629e-01	9.611060e+01
2.490000e-06	-2.132357e-07	1.350397e-09	-1.526318e+00	8.609421e+01
2.500000e-06	-3.652409e-07	1.191328e-09	-2.614355e+00	7.566707e+01
2.510000e-06	-5.171510e-07	1.023813e-09	-3.701710e+00	6.479063e+01
2.520000e-06	-6.688542e-07	8.473159e-10	-4.787586e+00	5.342893e+01
2.530000e-06	-8.202969e-07	6.680471e-10	-5.871596e+00	4.155361e+01
2.540000e-06	-9.713854e-07	4.866308e-10	-6.953070e+00	2.914897e+01
2.550000e-06	-1.122020e-06	2.922539e-10	-8.031294e+00	1.621683e+01
2.560000e-06	-1.272333e-06	8.179719e-11	-9.107219e+00	2.780504e+00
2.570000e-06	-1.422329e-06	-1.339241e-10	-1.018088e+01	-1.111278e+01
2.580000e-06	-1.571806e-06	-3.501332e-10	-1.125081e+01	-2.539122e+01
2.590000e-06	-1.720685e-06	-5.720494e-10	-1.231648e+01	-3.995990e+01
2.600000e-06	-1.868961e-06	-8.019791e-10	-1.337782e+01	-5.470436e+01
2.610000e-06	-2.016537e-06	-1.034539e-09	-1.443415e+01	-6.949600e+01
2.620000e-06	-2.163308e-06	-1.266467e-09	-1.548472e+01	-8.419896e+01
2.630000e-06	-2.309305e-06	-1.494592e-09	-1.652975e+01	-9.867772e+01
2.640000e-06	-2.454506e-06	-1.710907e-09	-1.756909e+01	-1.128049e+02
2.650000e-06	-2.598676e-06	-1.914706e-09	-1.860104e+01	-1.264682e+02
2.660000e-06	-2.741798e-06	-2.111086e-09	-1.962549e+01	-1.395766e+02
2.670000e-06	-2.883879e-06	-2.303200e-09	-2.064249e+01	-1.520635e+02
2.680000e-06	-3.024765e-06	-2.485287e-09	-2.165094e+01	-1.638892e+02
2.690000e-06	-3.164391e-06	-2.653817e-09	-2.265037e+01	-1.750403e+02
2.700000e-06	-3.302818e-06	-2.811119e-09	-2.364121e+01	-1.855266e+02
2.710000e-06	-3.440087e-06	-2.960393e-09	-2.462377e+01	-1.953774e+02
2.720000e-06	-3.575993e-06	-3.104468e-09	-2.559657e+01	-2.046359e+02
2.730000e-06	-3.710560e-06	-3.242705e-09	-2.655979e+01	-2.133534e+02
2.740000e-06	-3.843839e-06	-3.374151e-09	-2.751378e+01	-2.215834e+02
2.750000e-06	-3.975684e-06	-3.494142e-09	-2.845751e+01	-2.293772e+02
2.760000e-06	-4.106154e-06	-3.605493e-09	-2.939140e+01	-2.367798e+02
2.770000e-06	-4.235296e-06	-3.712904e-09	-3.031579e+01	-2.438280e+02
2.780000e-06	-4.362961e-06	-3.814945e-09	-3.122960e+01	-2.505497e+02
2.790000e-06	-4.489168e-06	-3.910708e-09	-3.213297e+01	-2.569647e+02
2.800000e-06	-4.613824e-06	-4.000002e-09	-3.302525e+01	-2.630865e+02
2.810000e-06	-4.736768e-06	-4.086293e-09	-3.390527e+01	-2.689246e+02
2.820000e-06	-4.858044e-06	-4.170506e-09	-3.477335e+01	-2.744874e+02
2.830000e-06	-4.977529e-06	-4.253206e-09	-3.562861e+01	-2.797842e+02
2.840000e-06	-5.095044e-06	-4.333225e-09	-3.646977e+01	-2.848266e+02
2.850000e-06	-5.210486e-06	-4.407763e-09	-3.729609e+01	-2.896297e+02
2.860000e-06	-5.323759e-06	-4.477024e-09	-3.810689e+01	-2.942111e+02
2.870000e-06	-5.434884e-06	-4.544263e-09	-3.890230e+01	-2.985905e+02
2.880000e-06	-5.544031e-06	-4.612889e-09	-3.968357e+01	-3.027877e+02
2.890000e-06	-5.651353e-06	-4.679658e-09	-4.045177e+01	-3.068206e+02
2.900000e-06	-5.756704e-06	-4.742408e-09	-4.120586e+01	-3.107035e+02
2.910000e-06	-5.859852e-06	-4.802299e-09	-4.194418e+01	-3.144455e+02
2.920000e-06	-5.960801e-06	-4.858330e-09	-4.266677e+01	-3.180504e+02
2.930000e-06	-6.059596e-06	-4.912212e-09	-4.337393e+01	-3.215163e+02
2.940000e-06	-6.156308e-06	-4.964158e-09	-4.406618e+01	-3.248372e+02
