# Temperatura_=_45.42
# Concentracion g/m^3_=_5000.0
# C_Vs_to_Am_M_A/Vsm_=_65563218390.804596
# pendiente_HvsI_1/m_=_3716.3
# ordenada_HvsI_A/m_=_1297.0
# frecuencia_Hz_=_302574.564438299

Tiempo_(s)	Campo_(V.s)	Magnetizacion_(V.s)	Campo_(kA/m)	Magnetizacion_(A/m)
0.000000e+00	-7.994881e-06	-5.852085e-09	-5.685267e+01	-3.831479e+02
1.000000e-08	-7.991969e-06	-5.844543e-09	-5.683197e+01	-3.829030e+02
2.000000e-08	-7.986445e-06	-5.844071e-09	-5.679268e+01	-3.825781e+02
3.000000e-08	-7.978336e-06	-5.841146e-09	-5.673502e+01	-3.821929e+02
4.000000e-08	-7.967405e-06	-5.834744e-09	-5.665729e+01	-3.817687e+02
5.000000e-08	-7.953469e-06	-5.828684e-09	-5.655819e+01	-3.813258e+02
6.000000e-08	-7.936661e-06	-5.824517e-09	-5.643867e+01	-3.808804e+02
7.000000e-08	-7.917458e-06	-5.821364e-09	-5.630211e+01	-3.804426e+02
8.000000e-08	-7.895966e-06	-5.830155e-09	-5.614928e+01	-3.800147e+02
9.000000e-08	-7.871617e-06	-5.792054e-09	-5.597613e+01	-3.795905e+02
1.000000e-07	-7.844006e-06	-5.812562e-09	-5.577978e+01	-3.791564e+02
1.100000e-07	-7.813354e-06	-5.832135e-09	-5.556181e+01	-3.786923e+02
1.200000e-07	-7.779890e-06	-5.787036e-09	-5.532384e+01	-3.781747e+02
1.300000e-07	-7.743780e-06	-5.737784e-09	-5.506706e+01	-3.775787e+02
1.400000e-07	-7.705331e-06	-5.708924e-09	-5.479365e+01	-3.768818e+02
1.500000e-07	-7.664626e-06	-5.735902e-09	-5.450419e+01	-3.760657e+02
1.600000e-07	-7.621498e-06	-5.674478e-09	-5.419750e+01	-3.751189e+02
1.700000e-07	-7.575741e-06	-5.754540e-09	-5.387212e+01	-3.740373e+02
1.800000e-07	-7.527253e-06	-5.744341e-09	-5.352731e+01	-3.728246e+02
1.900000e-07	-7.475719e-06	-5.606880e-09	-5.316084e+01	-3.714911e+02
2.000000e-07	-7.421203e-06	-5.654256e-09	-5.277317e+01	-3.700523e+02
2.100000e-07	-7.363990e-06	-5.600223e-09	-5.236633e+01	-3.685267e+02
2.200000e-07	-7.304104e-06	-5.612264e-09	-5.194046e+01	-3.669330e+02
2.300000e-07	-7.241606e-06	-5.623912e-09	-5.149603e+01	-3.652880e+02
2.400000e-07	-7.176367e-06	-5.533357e-09	-5.103211e+01	-3.636047e+02
2.500000e-07	-7.108343e-06	-5.522877e-09	-5.054838e+01	-3.618911e+02
2.600000e-07	-7.037661e-06	-5.498925e-09	-5.004575e+01	-3.601495e+02
2.700000e-07	-6.964203e-06	-5.501498e-09	-4.952339e+01	-3.583771e+02
2.800000e-07	-6.887942e-06	-5.461916e-09	-4.898108e+01	-3.565665e+02
2.900000e-07	-6.808913e-06	-5.452439e-09	-4.841909e+01	-3.547077e+02
3.000000e-07	-6.727167e-06	-5.407588e-09	-4.783779e+01	-3.527893e+02
3.100000e-07	-6.643107e-06	-5.341592e-09	-4.724003e+01	-3.508001e+02
3.200000e-07	-6.556863e-06	-5.367350e-09	-4.662673e+01	-3.487310e+02
3.300000e-07	-6.468230e-06	-5.312338e-09	-4.599645e+01	-3.465752e+02
3.400000e-07	-6.377203e-06	-5.252972e-09	-4.534915e+01	-3.443291e+02
3.500000e-07	-6.283939e-06	-5.203141e-09	-4.468594e+01	-3.419920e+02
3.600000e-07	-6.188427e-06	-5.190962e-09	-4.400674e+01	-3.395657e+02
3.700000e-07	-6.090599e-06	-5.160363e-09	-4.331107e+01	-3.370531e+02
3.800000e-07	-5.990528e-06	-5.114192e-09	-4.259945e+01	-3.344580e+02
3.900000e-07	-5.888345e-06	-5.101452e-09	-4.187282e+01	-3.317836e+02
4.000000e-07	-5.784086e-06	-5.041934e-09	-4.113141e+01	-3.290319e+02
4.100000e-07	-5.677729e-06	-4.969965e-09	-4.037510e+01	-3.262031e+02
4.200000e-07	-5.569353e-06	-4.912847e-09	-3.960442e+01	-3.232959e+02
4.300000e-07	-5.459076e-06	-4.917740e-09	-3.882023e+01	-3.203073e+02
4.400000e-07	-5.346810e-06	-4.873908e-09	-3.802188e+01	-3.172332e+02
4.500000e-07	-5.232390e-06	-4.791808e-09	-3.720823e+01	-3.140691e+02
4.600000e-07	-5.115893e-06	-4.737488e-09	-3.637980e+01	-3.108102e+02
4.700000e-07	-4.997526e-06	-4.697363e-09	-3.553808e+01	-3.074524e+02
4.800000e-07	-4.877402e-06	-4.637528e-09	-3.468386e+01	-3.039921e+02
4.900000e-07	-4.755483e-06	-4.581061e-09	-3.381688e+01	-3.004264e+02
5.000000e-07	-4.631787e-06	-4.544149e-09	-3.293726e+01	-2.967532e+02
5.100000e-07	-4.506469e-06	-4.475284e-09	-3.204611e+01	-2.929703e+02
5.200000e-07	-4.379556e-06	-4.404973e-09	-3.114361e+01	-2.890757e+02
5.300000e-07	-4.250968e-06	-4.350285e-09	-3.022921e+01	-2.850669e+02
5.400000e-07	-4.120725e-06	-4.298298e-09	-2.930303e+01	-2.809410e+02
5.500000e-07	-3.988958e-06	-4.216038e-09	-2.836602e+01	-2.766944e+02
5.600000e-07	-3.855723e-06	-4.140737e-09	-2.741857e+01	-2.723235e+02
5.700000e-07	-3.721075e-06	-4.082684e-09	-2.646107e+01	-2.678243e+02
5.800000e-07	-3.585094e-06	-4.011526e-09	-2.549409e+01	-2.631935e+02
5.900000e-07	-3.447639e-06	-3.931156e-09	-2.451663e+01	-2.584285e+02
6.000000e-07	-3.308702e-06	-3.858063e-09	-2.352863e+01	-2.535274e+02
6.100000e-07	-3.168318e-06	-3.786565e-09	-2.253033e+01	-2.484892e+02
6.200000e-07	-3.026595e-06	-3.697055e-09	-2.152253e+01	-2.433136e+02
6.300000e-07	-2.883667e-06	-3.616652e-09	-2.050614e+01	-2.379999e+02
6.400000e-07	-2.739565e-06	-3.546519e-09	-1.948142e+01	-2.325469e+02
6.500000e-07	-2.594489e-06	-3.465876e-09	-1.844976e+01	-2.269515e+02
6.600000e-07	-2.448543e-06	-3.366976e-09	-1.741192e+01	-2.212085e+02
6.700000e-07	-2.301792e-06	-3.269151e-09	-1.636835e+01	-2.153098e+02
6.800000e-07	-2.154359e-06	-3.174497e-09	-1.531994e+01	-2.092445e+02
6.900000e-07	-2.006264e-06	-3.074163e-09	-1.426681e+01	-2.029990e+02
7.000000e-07	-1.857532e-06	-2.976374e-09	-1.320916e+01	-1.965581e+02
7.100000e-07	-1.708218e-06	-2.878734e-09	-1.214736e+01	-1.899058e+02
7.200000e-07	-1.558354e-06	-2.775342e-09	-1.108167e+01	-1.830263e+02
7.300000e-07	-1.407976e-06	-2.662366e-09	-1.001231e+01	-1.759060e+02
7.400000e-07	-1.257061e-06	-2.549889e-09	-8.939127e+00	-1.685332e+02
7.500000e-07	-1.105671e-06	-2.433426e-09	-7.862577e+00	-1.608994e+02
7.600000e-07	-9.539339e-07	-2.313233e-09	-6.783552e+00	-1.529987e+02
7.700000e-07	-8.019087e-07	-2.189966e-09	-5.702481e+00	-1.448266e+02
7.800000e-07	-6.496598e-07	-2.063345e-09	-4.619819e+00	-1.363785e+02
7.900000e-07	-4.971957e-07	-1.931004e-09	-3.535626e+00	-1.276479e+02
8.000000e-07	-3.445312e-07	-1.789497e-09	-2.450008e+00	-1.186239e+02
8.100000e-07	-1.917486e-07	-1.645126e-09	-1.363550e+00	-1.092899e+02
8.200000e-07	-3.883717e-08	-1.493338e-09	-2.761764e-01	-9.962169e+01
8.300000e-07	1.141514e-07	-1.334840e-09	8.117457e-01	-8.958785e+01
8.400000e-07	2.670547e-07	-1.170899e-09	1.899062e+00	-7.915079e+01
8.500000e-07	4.199132e-07	-1.004115e-09	2.986059e+00	-6.826928e+01
8.600000e-07	5.726799e-07	-8.334455e-10	4.072404e+00	-5.690234e+01
8.700000e-07	7.252230e-07	-6.552197e-10	5.157158e+00	-4.501418e+01
8.800000e-07	8.775957e-07	-4.713671e-10	6.240701e+00	-3.257975e+01
8.900000e-07	1.029731e-06	-2.786164e-10	7.322557e+00	-1.959018e+01
9.000000e-07	1.181522e-06	-7.512795e-11	8.401959e+00	-6.057683e+00
9.100000e-07	1.332895e-06	1.378703e-10	9.478397e+00	7.980909e+00
9.200000e-07	1.483765e-06	3.583364e-10	1.055125e+01	2.246241e+01
9.300000e-07	1.634075e-06	5.880228e-10	1.162012e+01	3.729780e+01
9.400000e-07	1.783817e-06	8.231217e-10	1.268497e+01	5.237498e+01
9.500000e-07	1.932901e-06	1.057108e-09	1.374512e+01	6.756384e+01
9.600000e-07	2.081290e-06	1.289375e-09	1.480034e+01	8.272311e+01
9.700000e-07	2.229027e-06	1.517279e-09	1.585091e+01	9.770834e+01
9.800000e-07	2.375923e-06	1.735257e-09	1.689551e+01	1.123805e+02
9.900000e-07	2.521900e-06	1.944489e-09	1.793357e+01	1.266139e+02
1.000000e-06	2.666962e-06	2.147327e-09	1.896513e+01	1.403034e+02
1.010000e-06	2.811015e-06	2.347900e-09	1.998950e+01	1.533693e+02
1.020000e-06	2.953927e-06	2.538931e-09	2.100577e+01	1.657604e+02
1.030000e-06	3.095619e-06	2.713898e-09	2.201337e+01	1.774540e+02
1.040000e-06	3.236161e-06	2.879180e-09	2.301277e+01	1.884541e+02
1.050000e-06	3.375461e-06	3.034572e-09	2.400336e+01	1.987869e+02
1.060000e-06	3.513382e-06	3.181780e-09	2.498413e+01	2.084957e+02
1.070000e-06	3.649910e-06	3.319710e-09	2.595500e+01	2.176342e+02
1.080000e-06	3.785069e-06	3.451905e-09	2.691613e+01	2.262600e+02
1.090000e-06	3.918849e-06	3.579057e-09	2.786746e+01	2.344290e+02
1.100000e-06	4.051270e-06	3.700559e-09	2.880913e+01	2.421909e+02
1.110000e-06	4.182280e-06	3.819653e-09	2.974076e+01	2.495863e+02
1.120000e-06	4.311788e-06	3.931236e-09	3.066171e+01	2.566459e+02
1.130000e-06	4.439743e-06	4.033192e-09	3.157161e+01	2.633905e+02
1.140000e-06	4.566160e-06	4.126955e-09	3.247058e+01	2.698333e+02
1.150000e-06	4.691077e-06	4.216079e-09	3.335888e+01	2.759828e+02
1.160000e-06	4.814379e-06	4.304252e-09	3.423569e+01	2.818453e+02
1.170000e-06	4.935940e-06	4.387680e-09	3.510014e+01	2.874282e+02
1.180000e-06	5.055665e-06	4.466350e-09	3.595152e+01	2.927419e+02
1.190000e-06	5.173540e-06	4.542493e-09	3.678974e+01	2.978007e+02
1.200000e-06	5.289562e-06	4.619651e-09	3.761479e+01	3.026234e+02
1.210000e-06	5.403522e-06	4.696484e-09	3.842518e+01	3.072316e+02
1.220000e-06	5.515313e-06	4.767845e-09	3.922013e+01	3.116483e+02
1.230000e-06	5.625123e-06	4.831024e-09	4.000100e+01	3.158950e+02
1.240000e-06	5.733062e-06	4.888369e-09	4.076858e+01	3.199901e+02
1.250000e-06	5.838943e-06	4.945398e-09	4.152151e+01	3.239466e+02
1.260000e-06	5.942565e-06	5.002377e-09	4.225838e+01	3.277708e+02
1.270000e-06	6.044030e-06	5.056779e-09	4.297991e+01	3.314624e+02
1.280000e-06	6.143348e-06	5.106032e-09	4.368618e+01	3.350154e+02
1.290000e-06	6.240255e-06	5.152788e-09	4.437529e+01	3.384193e+02
1.300000e-06	6.334799e-06	5.201009e-09	4.504761e+01	3.416619e+02
1.310000e-06	6.427184e-06	5.249909e-09	4.570457e+01	3.447319e+02
1.320000e-06	6.517328e-06	5.294833e-09	4.634560e+01	3.476211e+02
1.330000e-06	6.605081e-06	5.334465e-09	4.696962e+01	3.503265e+02
1.340000e-06	6.690496e-06	5.370677e-09	4.757702e+01	3.528512e+02
1.350000e-06	6.773669e-06	5.406726e-09	4.816847e+01	3.552050e+02
1.360000e-06	6.854342e-06	5.441369e-09	4.874215e+01	3.574029e+02
1.370000e-06	6.932457e-06	5.473404e-09	4.929763e+01	3.594639e+02
1.380000e-06	7.008004e-06	5.503967e-09	4.983486e+01	3.614085e+02
1.390000e-06	7.080853e-06	5.533979e-09	5.035290e+01	3.632562e+02
1.400000e-06	7.151222e-06	5.561762e-09	5.085330e+01	3.650233e+02
1.410000e-06	7.219113e-06	5.586940e-09	5.133609e+01	3.667208e+02
1.420000e-06	7.284330e-06	5.612210e-09	5.179985e+01	3.683539e+02
1.430000e-06	7.346926e-06	5.636278e-09	5.224498e+01	3.699217e+02
1.440000e-06	7.407103e-06	5.657302e-09	5.267291e+01	3.714183e+02
1.450000e-06	7.464750e-06	5.676217e-09	5.308284e+01	3.728342e+02
1.460000e-06	7.519664e-06	5.693589e-09	5.347334e+01	3.741590e+02
1.470000e-06	7.571674e-06	5.709377e-09	5.384319e+01	3.753831e+02
1.480000e-06	7.620547e-06	5.725061e-09	5.419073e+01	3.765002e+02
1.490000e-06	7.666523e-06	5.739912e-09	5.451768e+01	3.775086e+02
1.500000e-06	7.709847e-06	5.754142e-09	5.482576e+01	3.784121e+02
1.510000e-06	7.750406e-06	5.770005e-09	5.511418e+01	3.792193e+02
1.520000e-06	7.788221e-06	5.786405e-09	5.538309e+01	3.799430e+02
1.530000e-06	7.823371e-06	5.800249e-09	5.563304e+01	3.805978e+02
1.540000e-06	7.855712e-06	5.809211e-09	5.586303e+01	3.811984e+02
1.550000e-06	7.885255e-06	5.814703e-09	5.607311e+01	3.817569e+02
1.560000e-06	7.912011e-06	5.820014e-09	5.626338e+01	3.822810e+02
1.570000e-06	7.935793e-06	5.827375e-09	5.643249e+01	3.827729e+02
1.580000e-06	7.956761e-06	5.836245e-09	5.658160e+01	3.832285e+02
1.590000e-06	7.974999e-06	5.843350e-09	5.671129e+01	3.836386e+02
1.600000e-06	7.990272e-06	5.849087e-09	5.681990e+01	3.839896e+02
1.610000e-06	8.002465e-06	5.852930e-09	5.690661e+01	3.842663e+02
1.620000e-06	8.011545e-06	5.854710e-09	5.697117e+01	3.844542e+02
1.630000e-06	8.017668e-06	5.857165e-09	5.701472e+01	3.845418e+02
1.640000e-06	8.020983e-06	5.860017e-09	5.703829e+01	3.845230e+02
1.650000e-06	8.021434e-06	5.857093e-09	5.704150e+01	3.843984e+02
1.660000e-06	8.019169e-06	5.857275e-09	5.702539e+01	3.841755e+02
1.670000e-06	8.014289e-06	5.851013e-09	5.699069e+01	3.838684e+02
1.680000e-06	8.006649e-06	5.844988e-09	5.693636e+01	3.834958e+02
1.690000e-06	7.996317e-06	5.840716e-09	5.686289e+01	3.830788e+02
1.700000e-06	7.983203e-06	5.834434e-09	5.676963e+01	3.826383e+02
1.710000e-06	7.967298e-06	5.826717e-09	5.665653e+01	3.821918e+02
1.720000e-06	7.949019e-06	5.809042e-09	5.652655e+01	3.817510e+02
1.730000e-06	7.928388e-06	5.782693e-09	5.637984e+01	3.813203e+02
1.740000e-06	7.904969e-06	5.806258e-09	5.621330e+01	3.808957e+02
1.750000e-06	7.878128e-06	5.761470e-09	5.602243e+01	3.804652e+02
1.760000e-06	7.847681e-06	5.746558e-09	5.580592e+01	3.800102e+02
1.770000e-06	7.814249e-06	5.777195e-09	5.556818e+01	3.795077e+02
1.780000e-06	7.778415e-06	5.797960e-09	5.531335e+01	3.789331e+02
1.790000e-06	7.740233e-06	5.746439e-09	5.504184e+01	3.782628e+02
1.800000e-06	7.699974e-06	5.800374e-09	5.475555e+01	3.774773e+02
1.810000e-06	7.657637e-06	5.753280e-09	5.445449e+01	3.765634e+02
1.820000e-06	7.612649e-06	5.641938e-09	5.413457e+01	3.755149e+02
1.830000e-06	7.564943e-06	5.781500e-09	5.379533e+01	3.743336e+02
1.840000e-06	7.514385e-06	5.674839e-09	5.343580e+01	3.730285e+02
1.850000e-06	7.460793e-06	5.719591e-09	5.305470e+01	3.716139e+02
1.860000e-06	7.404390e-06	5.661807e-09	5.265361e+01	3.701077e+02
1.870000e-06	7.345283e-06	5.516227e-09	5.223330e+01	3.685288e+02
1.880000e-06	7.283530e-06	5.587516e-09	5.179416e+01	3.668946e+02
1.890000e-06	7.219025e-06	5.491899e-09	5.133546e+01	3.652195e+02
1.900000e-06	7.151708e-06	5.549027e-09	5.085676e+01	3.635125e+02
1.910000e-06	7.081593e-06	5.530734e-09	5.035816e+01	3.617774e+02
1.920000e-06	7.008701e-06	5.472986e-09	4.983982e+01	3.600127e+02
1.930000e-06	6.933147e-06	5.416365e-09	4.930254e+01	3.582120e+02
1.940000e-06	6.854769e-06	5.348555e-09	4.874518e+01	3.563658e+02
1.950000e-06	6.773719e-06	5.439738e-09	4.816883e+01	3.544628e+02
1.960000e-06	6.690313e-06	5.351502e-09	4.757572e+01	3.524917e+02
1.970000e-06	6.604456e-06	5.328570e-09	4.696518e+01	3.504428e+02
1.980000e-06	6.516037e-06	5.293658e-09	4.633642e+01	3.483086e+02
1.990000e-06	6.425330e-06	5.244607e-09	4.569138e+01	3.460847e+02
2.000000e-06	6.332490e-06	5.218965e-09	4.503119e+01	3.437698e+02
2.010000e-06	6.237267e-06	5.177898e-09	4.435404e+01	3.413649e+02
2.020000e-06	6.139749e-06	5.181216e-09	4.366058e+01	3.388731e+02
2.030000e-06	6.040116e-06	5.087075e-09	4.295208e+01	3.362978e+02
2.040000e-06	5.938305e-06	5.042451e-09	4.222809e+01	3.336424e+02
2.050000e-06	5.834304e-06	5.023714e-09	4.148852e+01	3.309093e+02
2.060000e-06	5.728345e-06	5.036035e-09	4.073504e+01	3.280993e+02
2.070000e-06	5.620523e-06	4.960911e-09	3.996829e+01	3.252114e+02
2.080000e-06	5.510709e-06	4.883577e-09	3.918740e+01	3.222430e+02
2.090000e-06	5.398894e-06	4.844364e-09	3.839227e+01	3.191902e+02
2.100000e-06	5.285038e-06	4.787089e-09	3.758262e+01	3.160485e+02
2.110000e-06	5.169139e-06	4.760348e-09	3.675844e+01	3.128132e+02
2.120000e-06	5.051170e-06	4.736990e-09	3.591955e+01	3.094799e+02
2.130000e-06	4.931234e-06	4.691221e-09	3.506667e+01	3.060450e+02
2.140000e-06	4.809536e-06	4.585969e-09	3.420125e+01	3.025054e+02
2.150000e-06	4.686203e-06	4.519690e-09	3.332422e+01	2.988587e+02
2.160000e-06	4.561140e-06	4.487852e-09	3.243488e+01	2.951029e+02
2.170000e-06	4.434334e-06	4.456980e-09	3.153315e+01	2.912359e+02
2.180000e-06	4.305922e-06	4.385526e-09	3.061999e+01	2.872554e+02
2.190000e-06	4.175952e-06	4.318642e-09	2.969575e+01	2.831585e+02
2.200000e-06	4.044503e-06	4.246433e-09	2.876101e+01	2.789419e+02
2.210000e-06	3.911528e-06	4.171507e-09	2.781540e+01	2.746019e+02
2.220000e-06	3.777045e-06	4.119523e-09	2.685908e+01	2.701346e+02
2.230000e-06	3.641077e-06	4.068564e-09	2.589219e+01	2.655364e+02
2.240000e-06	3.503774e-06	3.990205e-09	2.491581e+01	2.608046e+02
2.250000e-06	3.365176e-06	3.892138e-09	2.393022e+01	2.559371e+02
2.260000e-06	3.225284e-06	3.821479e-09	2.293543e+01	2.509328e+02
2.270000e-06	3.084020e-06	3.761080e-09	2.193088e+01	2.457910e+02
2.280000e-06	2.941437e-06	3.685138e-09	2.091695e+01	2.405114e+02
2.290000e-06	2.797757e-06	3.590293e-09	1.989522e+01	2.350928e+02
2.300000e-06	2.653082e-06	3.499051e-09	1.886642e+01	2.295329e+02
2.310000e-06	2.507593e-06	3.406874e-09	1.783183e+01	2.238269e+02
2.320000e-06	2.361277e-06	3.327375e-09	1.679136e+01	2.179675e+02
2.330000e-06	2.214184e-06	3.256504e-09	1.574536e+01	2.119445e+02
2.340000e-06	2.066373e-06	3.168083e-09	1.469426e+01	2.057450e+02
2.350000e-06	1.917899e-06	3.053530e-09	1.363844e+01	1.993539e+02
2.360000e-06	1.768798e-06	2.937691e-09	1.257816e+01	1.927553e+02
2.370000e-06	1.619062e-06	2.839587e-09	1.151337e+01	1.859335e+02
2.380000e-06	1.468761e-06	2.746245e-09	1.044456e+01	1.788740e+02
2.390000e-06	1.317973e-06	2.639710e-09	9.372285e+00	1.715647e+02
2.400000e-06	1.166725e-06	2.517692e-09	8.296737e+00	1.639964e+02
2.410000e-06	1.015042e-06	2.388978e-09	7.218099e+00	1.561623e+02
2.420000e-06	8.630320e-07	2.263243e-09	6.137137e+00	1.480579e+02
2.430000e-06	7.108046e-07	2.149029e-09	5.054627e+00	1.396787e+02
2.440000e-06	5.583633e-07	2.033208e-09	3.970596e+00	1.310190e+02
2.450000e-06	4.056882e-07	1.898911e-09	2.884904e+00	1.220692e+02
2.460000e-06	2.528410e-07	1.748033e-09	1.797986e+00	1.128141e+02
2.470000e-06	9.986126e-08	1.595296e-09	7.101269e-01	1.032316e+02
2.480000e-06	-5.321427e-08	1.444181e-09	-3.784138e-01	9.329194e+01
2.490000e-06	-2.062926e-07	1.288455e-09	-1.466975e+00	8.295893e+01
2.500000e-06	-3.592952e-07	1.125382e-09	-2.554997e+00	7.219193e+01
2.510000e-06	-5.121694e-07	9.522708e-10	-3.642106e+00	6.094946e+01
2.520000e-06	-6.648854e-07	7.711697e-10	-4.728090e+00	4.919394e+01
2.530000e-06	-8.173595e-07	5.865969e-10	-5.812354e+00	3.689710e+01
2.540000e-06	-9.695413e-07	3.986959e-10	-6.894539e+00	2.404553e+01
2.550000e-06	-1.121381e-06	1.992049e-10	-7.974288e+00	1.064578e+01
2.560000e-06	-1.272867e-06	-1.727019e-11	-9.051530e+00	-3.271702e+00
2.570000e-06	-1.423935e-06	-2.413649e-10	-1.012580e+01	-1.765038e+01
2.580000e-06	-1.574498e-06	-4.665005e-10	-1.119646e+01	-3.240750e+01
2.590000e-06	-1.724397e-06	-6.939335e-10	-1.226242e+01	-4.743637e+01
2.600000e-06	-1.873560e-06	-9.284128e-10	-1.332313e+01	-6.261078e+01
2.610000e-06	-2.022077e-06	-1.165310e-09	-1.437926e+01	-7.779155e+01
2.620000e-06	-2.169836e-06	-1.400549e-09	-1.543000e+01	-9.283421e+01
2.630000e-06	-2.316725e-06	-1.630705e-09	-1.647454e+01	-1.075976e+02
2.640000e-06	-2.462729e-06	-1.849095e-09	-1.751280e+01	-1.219520e+02
2.650000e-06	-2.607843e-06	-2.057326e-09	-1.854472e+01	-1.357865e+02
2.660000e-06	-2.752076e-06	-2.259160e-09	-1.957038e+01	-1.490148e+02
2.670000e-06	-2.895319e-06	-2.454866e-09	-2.058900e+01	-1.615784e+02
2.680000e-06	-3.037337e-06	-2.636570e-09	-2.159891e+01	-1.734475e+02
2.690000e-06	-3.178047e-06	-2.804082e-09	-2.259952e+01	-1.846198e+02
2.700000e-06	-3.317444e-06	-2.960651e-09	-2.359079e+01	-1.951164e+02
2.710000e-06	-3.455565e-06	-3.107128e-09	-2.457299e+01	-2.049771e+02
2.720000e-06	-3.592429e-06	-3.249017e-09	-2.554625e+01	-2.142534e+02
2.730000e-06	-3.728004e-06	-3.387469e-09	-2.651034e+01	-2.230025e+02
2.740000e-06	-3.862155e-06	-3.521735e-09	-2.746430e+01	-2.312812e+02
2.750000e-06	-3.994881e-06	-3.645158e-09	-2.840814e+01	-2.391412e+02
2.760000e-06	-4.126237e-06	-3.758287e-09	-2.934223e+01	-2.466256e+02
2.770000e-06	-4.256157e-06	-3.867891e-09	-3.026610e+01	-2.537673e+02
2.780000e-06	-4.384644e-06	-3.972406e-09	-3.117979e+01	-2.605896e+02
2.790000e-06	-4.511663e-06	-4.069099e-09	-3.208304e+01	-2.671075e+02
2.800000e-06	-4.637100e-06	-4.157533e-09	-3.297505e+01	-2.733303e+02
2.810000e-06	-4.760863e-06	-4.242417e-09	-3.385513e+01	-2.792645e+02
2.820000e-06	-4.882997e-06	-4.325260e-09	-3.472365e+01	-2.849170e+02
2.830000e-06	-5.003438e-06	-4.408688e-09	-3.558012e+01	-2.902973e+02
2.840000e-06	-5.121959e-06	-4.492247e-09	-3.642294e+01	-2.954188e+02
2.850000e-06	-5.238351e-06	-4.569904e-09	-3.725062e+01	-3.002991e+02
2.860000e-06	-5.352533e-06	-4.641206e-09	-3.806258e+01	-3.049593e+02
2.870000e-06	-5.464572e-06	-4.710285e-09	-3.885931e+01	-3.094223e+02
2.880000e-06	-5.574505e-06	-4.780350e-09	-3.964106e+01	-3.137101e+02
2.890000e-06	-5.682513e-06	-4.848334e-09	-4.040912e+01	-3.178422e+02
2.900000e-06	-5.788656e-06	-4.911348e-09	-4.116391e+01	-3.218330e+02
2.910000e-06	-5.892716e-06	-4.968970e-09	-4.190390e+01	-3.256906e+02
2.920000e-06	-5.994534e-06	-5.023257e-09	-4.262794e+01	-3.294163e+02
2.930000e-06	-6.094104e-06	-5.078643e-09	-4.333599e+01	-3.330053e+02
2.940000e-06	-6.191562e-06	-5.135106e-09	-4.402903e+01	-3.364481e+02
