# Temperatura_=_41.54
# Concentracion g/m^3_=_5000.0
# C_Vs_to_Am_M_A/Vsm_=_65563218390.804596
# pendiente_HvsI_1/m_=_3716.3
# ordenada_HvsI_A/m_=_1297.0
# frecuencia_Hz_=_302576.9701000109

Tiempo_(s)	Campo_(V.s)	Magnetizacion_(V.s)	Campo_(kA/m)	Magnetizacion_(A/m)
0.000000e+00	-8.027041e-06	-5.694667e-09	-5.685341e+01	-3.721207e+02
1.000000e-08	-8.023665e-06	-5.693731e-09	-5.682951e+01	-3.719168e+02
2.000000e-08	-8.017688e-06	-5.688738e-09	-5.678717e+01	-3.716267e+02
3.000000e-08	-8.009088e-06	-5.688090e-09	-5.672626e+01	-3.712657e+02
4.000000e-08	-7.997679e-06	-5.685677e-09	-5.664545e+01	-3.708532e+02
5.000000e-08	-7.983187e-06	-5.678158e-09	-5.654281e+01	-3.704103e+02
6.000000e-08	-7.965820e-06	-5.668315e-09	-5.641980e+01	-3.699573e+02
7.000000e-08	-7.946171e-06	-5.651760e-09	-5.628063e+01	-3.695115e+02
8.000000e-08	-7.924178e-06	-5.687977e-09	-5.612486e+01	-3.690848e+02
9.000000e-08	-7.899119e-06	-5.731017e-09	-5.594738e+01	-3.686824e+02
1.000000e-07	-7.870721e-06	-5.680768e-09	-5.574624e+01	-3.683021e+02
1.100000e-07	-7.839334e-06	-5.651017e-09	-5.552394e+01	-3.679344e+02
1.200000e-07	-7.805170e-06	-5.636960e-09	-5.528196e+01	-3.675637e+02
1.300000e-07	-7.768363e-06	-5.591830e-09	-5.502127e+01	-3.671695e+02
1.400000e-07	-7.729241e-06	-5.525124e-09	-5.474417e+01	-3.667290e+02
1.500000e-07	-7.687935e-06	-5.547028e-09	-5.445162e+01	-3.662192e+02
1.600000e-07	-7.644161e-06	-5.673190e-09	-5.414158e+01	-3.656191e+02
1.700000e-07	-7.597707e-06	-5.549677e-09	-5.381256e+01	-3.649114e+02
1.800000e-07	-7.548462e-06	-5.580375e-09	-5.346377e+01	-3.640842e+02
1.900000e-07	-7.496149e-06	-5.568568e-09	-5.309325e+01	-3.631312e+02
2.000000e-07	-7.440972e-06	-5.447266e-09	-5.270244e+01	-3.620518e+02
2.100000e-07	-7.383084e-06	-5.488275e-09	-5.229244e+01	-3.608509e+02
2.200000e-07	-7.322536e-06	-5.451262e-09	-5.186360e+01	-3.595371e+02
2.300000e-07	-7.259405e-06	-5.472657e-09	-5.141645e+01	-3.581217e+02
2.400000e-07	-7.193434e-06	-5.382470e-09	-5.094920e+01	-3.566171e+02
2.500000e-07	-7.124737e-06	-5.372514e-09	-5.046264e+01	-3.550354e+02
2.600000e-07	-7.053350e-06	-5.402552e-09	-4.995702e+01	-3.533870e+02
2.700000e-07	-6.979122e-06	-5.374044e-09	-4.943128e+01	-3.516800e+02
2.800000e-07	-6.902072e-06	-5.342094e-09	-4.888556e+01	-3.499195e+02
2.900000e-07	-6.822173e-06	-5.297758e-09	-4.831965e+01	-3.481077e+02
3.000000e-07	-6.739725e-06	-5.310610e-09	-4.773570e+01	-3.462439e+02
3.100000e-07	-6.655049e-06	-5.255740e-09	-4.713596e+01	-3.443254e+02
3.200000e-07	-6.567997e-06	-5.213998e-09	-4.651939e+01	-3.423476e+02
3.300000e-07	-6.478513e-06	-5.204820e-09	-4.588560e+01	-3.403055e+02
3.400000e-07	-6.386742e-06	-5.145335e-09	-4.523561e+01	-3.381935e+02
3.500000e-07	-6.292738e-06	-5.091844e-09	-4.456981e+01	-3.360066e+02
3.600000e-07	-6.196398e-06	-5.063729e-09	-4.388745e+01	-3.337403e+02
3.700000e-07	-6.097732e-06	-5.063738e-09	-4.318863e+01	-3.313914e+02
3.800000e-07	-5.996901e-06	-5.030061e-09	-4.247447e+01	-3.289575e+02
3.900000e-07	-5.893873e-06	-4.985224e-09	-4.174475e+01	-3.264376e+02
4.000000e-07	-5.788673e-06	-4.938795e-09	-4.099965e+01	-3.238311e+02
4.100000e-07	-5.681490e-06	-4.883098e-09	-4.024050e+01	-3.211386e+02
4.200000e-07	-5.572415e-06	-4.845351e-09	-3.946795e+01	-3.183608e+02
4.300000e-07	-5.461375e-06	-4.810167e-09	-3.868148e+01	-3.154986e+02
4.400000e-07	-5.348177e-06	-4.767801e-09	-3.787973e+01	-3.125528e+02
4.500000e-07	-5.232808e-06	-4.714014e-09	-3.706260e+01	-3.095236e+02
4.600000e-07	-5.115579e-06	-4.667139e-09	-3.623230e+01	-3.064105e+02
4.700000e-07	-4.996551e-06	-4.618799e-09	-3.538926e+01	-3.032119e+02
4.800000e-07	-4.875627e-06	-4.567679e-09	-3.453278e+01	-2.999249e+02
4.900000e-07	-4.752908e-06	-4.522347e-09	-3.366359e+01	-2.965456e+02
5.000000e-07	-4.628484e-06	-4.467819e-09	-3.278233e+01	-2.930685e+02
5.100000e-07	-4.502417e-06	-4.400702e-09	-3.188944e+01	-2.894873e+02
5.200000e-07	-4.374682e-06	-4.344373e-09	-3.098472e+01	-2.857948e+02
5.300000e-07	-4.245274e-06	-4.301204e-09	-3.006815e+01	-2.819837e+02
5.400000e-07	-4.114253e-06	-4.240295e-09	-2.914017e+01	-2.780470e+02
5.500000e-07	-3.981704e-06	-4.160482e-09	-2.820136e+01	-2.739786e+02
5.600000e-07	-3.847676e-06	-4.098811e-09	-2.725208e+01	-2.697741e+02
5.700000e-07	-3.712122e-06	-4.040939e-09	-2.629198e+01	-2.654306e+02
5.800000e-07	-3.575130e-06	-3.966637e-09	-2.532171e+01	-2.609475e+02
5.900000e-07	-3.436809e-06	-3.888796e-09	-2.434202e+01	-2.563259e+02
6.000000e-07	-3.297069e-06	-3.824972e-09	-2.335227e+01	-2.515683e+02
6.100000e-07	-3.155791e-06	-3.751747e-09	-2.235164e+01	-2.466776e+02
6.200000e-07	-3.013194e-06	-3.664811e-09	-2.134166e+01	-2.416565e+02
6.300000e-07	-2.869519e-06	-3.590709e-09	-2.032404e+01	-2.365062e+02
6.400000e-07	-2.724816e-06	-3.523292e-09	-1.929915e+01	-2.312251e+02
6.500000e-07	-2.579204e-06	-3.443195e-09	-1.826782e+01	-2.258088e+02
6.600000e-07	-2.432676e-06	-3.349280e-09	-1.723001e+01	-2.202486e+02
6.700000e-07	-2.285287e-06	-3.261720e-09	-1.618608e+01	-2.145325e+02
6.800000e-07	-2.137163e-06	-3.170189e-09	-1.513696e+01	-2.086451e+02
6.900000e-07	-1.988375e-06	-3.071226e-09	-1.408314e+01	-2.025687e+02
7.000000e-07	-1.838996e-06	-2.970509e-09	-1.302512e+01	-1.962849e+02
7.100000e-07	-1.689068e-06	-2.871541e-09	-1.196322e+01	-1.897760e+02
7.200000e-07	-1.538575e-06	-2.769213e-09	-1.089732e+01	-1.830263e+02
7.300000e-07	-1.387452e-06	-2.659818e-09	-9.826960e+00	-1.760235e+02
7.400000e-07	-1.235701e-06	-2.550591e-09	-8.752142e+00	-1.687588e+02
7.500000e-07	-1.083471e-06	-2.439703e-09	-7.673939e+00	-1.612276e+02
7.600000e-07	-9.309119e-07	-2.326955e-09	-6.593404e+00	-1.534279e+02
7.700000e-07	-7.781029e-07	-2.204793e-09	-5.511098e+00	-1.453590e+02
7.800000e-07	-6.250767e-07	-2.077435e-09	-4.427254e+00	-1.370195e+02
7.900000e-07	-4.718186e-07	-1.945100e-09	-3.341767e+00	-1.284046e+02
8.000000e-07	-3.183763e-07	-1.807472e-09	-2.254976e+00	-1.195040e+02
8.100000e-07	-1.648404e-07	-1.663527e-09	-1.167521e+00	-1.103000e+02
8.200000e-07	-1.122953e-08	-1.512650e-09	-7.953582e-02	-1.007666e+02
8.300000e-07	1.424054e-07	-1.357475e-09	1.008620e+00	-9.087020e+01
8.400000e-07	2.959482e-07	-1.195498e-09	2.096123e+00	-8.057054e+01
8.500000e-07	4.494297e-07	-1.030997e-09	3.183192e+00	-6.982444e+01
8.600000e-07	6.028439e-07	-8.620290e-10	4.269785e+00	-5.858984e+01
8.700000e-07	7.561335e-07	-6.880706e-10	5.355495e+00	-4.683105e+01
8.800000e-07	9.092632e-07	-5.045212e-10	6.440072e+00	-3.452438e+01
8.900000e-07	1.062176e-06	-3.094697e-10	7.523116e+00	-2.166344e+01
9.000000e-07	1.214784e-06	-1.065773e-10	8.603994e+00	-8.263678e+00
9.100000e-07	1.366917e-06	1.000537e-10	9.681511e+00	5.634517e+00
9.200000e-07	1.518424e-06	3.156874e-10	1.075460e+01	1.996469e+01
9.300000e-07	1.669242e-06	5.397031e-10	1.182280e+01	3.463528e+01
9.400000e-07	1.819360e-06	7.658381e-10	1.288605e+01	4.953289e+01
9.500000e-07	1.968866e-06	9.957934e-10	1.394496e+01	6.452755e+01
9.600000e-07	2.117771e-06	1.226253e-09	1.499961e+01	7.947955e+01
9.700000e-07	2.265869e-06	1.452852e-09	1.604855e+01	9.424737e+01
9.800000e-07	2.413090e-06	1.669707e-09	1.709128e+01	1.086958e+02
9.900000e-07	2.559404e-06	1.881593e-09	1.812759e+01	1.227035e+02
1.000000e-06	2.704820e-06	2.085065e-09	1.915753e+01	1.361694e+02
1.010000e-06	2.849299e-06	2.278915e-09	2.018083e+01	1.490176e+02
1.020000e-06	2.992633e-06	2.461091e-09	2.119603e+01	1.611993e+02
1.030000e-06	3.134796e-06	2.631395e-09	2.220294e+01	1.726931e+02
1.040000e-06	3.275686e-06	2.792988e-09	2.320082e+01	1.835030e+02
1.050000e-06	3.415203e-06	2.946273e-09	2.418899e+01	1.936541e+02
1.060000e-06	3.553420e-06	3.091686e-09	2.516793e+01	2.031878e+02
1.070000e-06	3.690310e-06	3.229121e-09	2.613750e+01	2.121551e+02
1.080000e-06	3.825732e-06	3.361294e-09	2.709665e+01	2.206115e+02
1.090000e-06	3.959741e-06	3.486347e-09	2.804580e+01	2.286112e+02
1.100000e-06	4.092418e-06	3.606399e-09	2.898552e+01	2.362028e+02
1.110000e-06	4.223579e-06	3.720917e-09	2.991449e+01	2.434271e+02
1.120000e-06	4.353286e-06	3.825912e-09	3.083318e+01	2.503159e+02
1.130000e-06	4.481489e-06	3.922496e-09	3.174121e+01	2.568921e+02
1.140000e-06	4.608020e-06	4.012594e-09	3.263739e+01	2.631715e+02
1.150000e-06	4.733071e-06	4.100962e-09	3.352310e+01	2.691648e+02
1.160000e-06	4.856541e-06	4.187496e-09	3.439760e+01	2.748810e+02
1.170000e-06	4.978255e-06	4.269913e-09	3.525967e+01	2.803287e+02
1.180000e-06	5.098200e-06	4.347945e-09	3.610921e+01	2.855188e+02
1.190000e-06	5.216296e-06	4.422321e-09	3.694565e+01	2.904652e+02
1.200000e-06	5.332428e-06	4.496747e-09	3.776818e+01	2.951846e+02
1.210000e-06	5.446461e-06	4.569441e-09	3.857585e+01	2.996961e+02
1.220000e-06	5.558309e-06	4.638576e-09	3.936804e+01	3.040190e+02
1.230000e-06	5.668177e-06	4.699027e-09	4.014620e+01	3.081718e+02
1.240000e-06	5.776158e-06	4.754037e-09	4.091100e+01	3.121693e+02
1.250000e-06	5.882040e-06	4.807875e-09	4.166094e+01	3.160219e+02
1.260000e-06	5.985701e-06	4.864163e-09	4.239515e+01	3.197343e+02
1.270000e-06	6.087185e-06	4.918895e-09	4.311393e+01	3.233052e+02
1.280000e-06	6.186449e-06	4.968172e-09	4.381699e+01	3.267287e+02
1.290000e-06	6.283313e-06	5.015242e-09	4.450305e+01	3.299957e+02
1.300000e-06	6.377861e-06	5.061969e-09	4.517271e+01	3.330956e+02
1.310000e-06	6.470160e-06	5.106695e-09	4.582644e+01	3.360190e+02
1.320000e-06	6.560152e-06	5.146827e-09	4.646383e+01	3.387598e+02
1.330000e-06	6.647761e-06	5.184480e-09	4.708434e+01	3.413170e+02
1.340000e-06	6.733077e-06	5.220178e-09	4.768861e+01	3.436953e+02
1.350000e-06	6.816122e-06	5.254203e-09	4.827679e+01	3.459056e+02
1.360000e-06	6.896671e-06	5.285636e-09	4.884731e+01	3.479641e+02
1.370000e-06	6.974680e-06	5.315594e-09	4.939982e+01	3.498902e+02
1.380000e-06	7.050101e-06	5.344481e-09	4.993401e+01	3.517051e+02
1.390000e-06	7.122811e-06	5.371365e-09	5.044900e+01	3.534289e+02
1.400000e-06	7.192960e-06	5.397588e-09	5.094584e+01	3.550786e+02
1.410000e-06	7.260619e-06	5.423088e-09	5.142505e+01	3.566664e+02
1.420000e-06	7.325625e-06	5.447463e-09	5.188547e+01	3.581984e+02
1.430000e-06	7.388012e-06	5.469704e-09	5.232734e+01	3.596747e+02
1.440000e-06	7.447947e-06	5.490064e-09	5.275185e+01	3.610898e+02
1.450000e-06	7.505276e-06	5.508476e-09	5.315789e+01	3.624346e+02
1.460000e-06	7.559898e-06	5.524716e-09	5.354477e+01	3.636979e+02
1.470000e-06	7.611580e-06	5.540194e-09	5.391082e+01	3.648688e+02
1.480000e-06	7.660107e-06	5.555516e-09	5.425452e+01	3.659389e+02
1.490000e-06	7.705814e-06	5.569052e-09	5.457825e+01	3.669038e+02
1.500000e-06	7.748830e-06	5.581800e-09	5.488292e+01	3.677644e+02
1.510000e-06	7.789038e-06	5.596712e-09	5.516771e+01	3.685266e+02
1.520000e-06	7.826513e-06	5.611378e-09	5.543313e+01	3.692009e+02
1.530000e-06	7.861255e-06	5.623791e-09	5.567920e+01	3.698008e+02
1.540000e-06	7.893164e-06	5.632328e-09	5.590520e+01	3.703412e+02
1.550000e-06	7.922342e-06	5.636891e-09	5.611186e+01	3.708356e+02
1.560000e-06	7.948633e-06	5.641471e-09	5.629807e+01	3.712946e+02
1.570000e-06	7.971904e-06	5.648665e-09	5.646290e+01	3.717243e+02
1.580000e-06	7.992488e-06	5.657193e-09	5.660869e+01	3.721252e+02
1.590000e-06	8.010309e-06	5.663836e-09	5.673491e+01	3.724920e+02
1.600000e-06	8.025080e-06	5.668500e-09	5.683953e+01	3.728148e+02
1.610000e-06	8.036682e-06	5.671975e-09	5.692170e+01	3.730806e+02
1.620000e-06	8.045180e-06	5.674275e-09	5.698189e+01	3.732749e+02
1.630000e-06	8.050811e-06	5.676978e-09	5.702177e+01	3.733847e+02
1.640000e-06	8.053596e-06	5.679375e-09	5.704150e+01	3.734001e+02
1.650000e-06	8.053573e-06	5.678556e-09	5.704133e+01	3.733164e+02
1.660000e-06	8.050888e-06	5.667487e-09	5.702232e+01	3.731354e+02
1.670000e-06	8.045456e-06	5.665721e-09	5.698385e+01	3.728652e+02
1.680000e-06	8.037302e-06	5.661624e-09	5.692609e+01	3.725199e+02
1.690000e-06	8.026521e-06	5.654082e-09	5.684973e+01	3.721179e+02
1.700000e-06	8.012820e-06	5.651935e-09	5.675269e+01	3.716802e+02
1.710000e-06	7.996377e-06	5.653107e-09	5.663623e+01	3.712275e+02
1.720000e-06	7.977696e-06	5.660021e-09	5.650392e+01	3.707781e+02
1.730000e-06	7.956684e-06	5.555280e-09	5.635510e+01	3.703455e+02
1.740000e-06	7.932659e-06	5.549030e-09	5.618493e+01	3.699365e+02
1.750000e-06	7.905000e-06	5.599441e-09	5.598903e+01	3.695509e+02
1.760000e-06	7.873817e-06	5.574837e-09	5.576817e+01	3.691810e+02
1.770000e-06	7.839819e-06	5.570676e-09	5.552737e+01	3.688123e+02
1.780000e-06	7.803436e-06	5.659351e-09	5.526969e+01	3.684257e+02
1.790000e-06	7.764784e-06	5.675711e-09	5.499592e+01	3.679985e+02
1.800000e-06	7.724119e-06	5.495351e-09	5.470790e+01	3.675078e+02
1.810000e-06	7.681065e-06	5.620450e-09	5.440296e+01	3.669316e+02
1.820000e-06	7.635290e-06	5.540087e-09	5.407875e+01	3.662518e+02
1.830000e-06	7.586907e-06	5.546246e-09	5.373607e+01	3.654549e+02
1.840000e-06	7.535492e-06	5.656189e-09	5.337191e+01	3.645332e+02
1.850000e-06	7.481074e-06	5.527607e-09	5.298647e+01	3.634847e+02
1.860000e-06	7.423952e-06	5.634702e-09	5.258190e+01	3.623131e+02
1.870000e-06	7.364115e-06	5.459740e-09	5.215809e+01	3.610261e+02
1.880000e-06	7.301593e-06	5.479455e-09	5.171526e+01	3.596346e+02
1.890000e-06	7.236213e-06	5.532185e-09	5.125219e+01	3.581507e+02
1.900000e-06	7.167985e-06	5.404988e-09	5.076895e+01	3.565868e+02
1.910000e-06	7.097004e-06	5.466216e-09	5.026621e+01	3.549538e+02
1.920000e-06	7.023336e-06	5.346478e-09	4.974444e+01	3.532605e+02
1.930000e-06	6.946965e-06	5.374057e-09	4.920352e+01	3.515127e+02
1.940000e-06	6.867788e-06	5.315068e-09	4.864273e+01	3.497133e+02
1.950000e-06	6.786074e-06	5.313748e-09	4.806397e+01	3.478622e+02
1.960000e-06	6.701936e-06	5.340310e-09	4.746805e+01	3.459573e+02
1.970000e-06	6.615276e-06	5.208869e-09	4.685425e+01	3.439945e+02
1.980000e-06	6.526147e-06	5.226393e-09	4.622298e+01	3.419686e+02
1.990000e-06	6.434699e-06	5.168426e-09	4.557528e+01	3.398741e+02
2.000000e-06	6.340949e-06	5.196656e-09	4.491127e+01	3.377059e+02
2.010000e-06	6.244892e-06	5.125646e-09	4.423093e+01	3.354595e+02
2.020000e-06	6.146646e-06	5.087404e-09	4.353508e+01	3.331311e+02
2.030000e-06	6.046181e-06	5.036066e-09	4.282351e+01	3.307182e+02
2.040000e-06	5.943591e-06	4.982933e-09	4.209689e+01	3.282194e+02
2.050000e-06	5.838918e-06	4.994219e-09	4.135552e+01	3.256342e+02
2.060000e-06	5.732289e-06	4.951564e-09	4.060030e+01	3.229627e+02
2.070000e-06	5.623718e-06	4.919205e-09	3.983131e+01	3.202057e+02
2.080000e-06	5.513060e-06	4.826398e-09	3.904755e+01	3.173642e+02
2.090000e-06	5.400393e-06	4.788984e-09	3.824956e+01	3.144388e+02
2.100000e-06	5.285640e-06	4.737791e-09	3.743679e+01	3.114301e+02
2.110000e-06	5.168762e-06	4.727573e-09	3.660898e+01	3.083376e+02
2.120000e-06	5.049912e-06	4.686938e-09	3.576720e+01	3.051602e+02
2.130000e-06	4.929238e-06	4.620590e-09	3.491249e+01	3.018953e+02
2.140000e-06	4.806761e-06	4.543563e-09	3.404503e+01	2.985391e+02
2.150000e-06	4.682557e-06	4.498149e-09	3.316532e+01	2.950866e+02
2.160000e-06	4.556631e-06	4.472242e-09	3.227342e+01	2.915317e+02
2.170000e-06	4.429024e-06	4.413019e-09	3.136961e+01	2.878673e+02
2.180000e-06	4.299861e-06	4.350629e-09	3.045478e+01	2.840861e+02
2.190000e-06	4.169220e-06	4.278508e-09	2.952949e+01	2.801810e+02
2.200000e-06	4.036983e-06	4.215449e-09	2.859288e+01	2.761456e+02
2.210000e-06	3.903154e-06	4.146954e-09	2.764501e+01	2.719750e+02
2.220000e-06	3.767858e-06	4.105515e-09	2.668674e+01	2.676661e+02
2.230000e-06	3.631117e-06	4.046206e-09	2.571825e+01	2.632174e+02
2.240000e-06	3.492976e-06	3.960755e-09	2.473983e+01	2.586299e+02
2.250000e-06	3.353400e-06	3.873829e-09	2.375125e+01	2.539056e+02
2.260000e-06	3.212537e-06	3.816682e-09	2.275355e+01	2.490475e+02
2.270000e-06	3.070408e-06	3.755430e-09	2.174689e+01	2.440584e+02
2.280000e-06	2.927085e-06	3.669320e-09	2.073177e+01	2.389400e+02
2.290000e-06	2.782681e-06	3.576719e-09	1.970899e+01	2.336915e+02
2.300000e-06	2.637320e-06	3.487316e-09	1.867945e+01	2.283092e+02
2.310000e-06	2.491193e-06	3.402883e-09	1.764446e+01	2.227856e+02
2.320000e-06	2.344295e-06	3.325205e-09	1.660402e+01	2.171094e+02
2.330000e-06	2.196529e-06	3.251413e-09	1.555744e+01	2.112660e+02
2.340000e-06	2.047911e-06	3.160876e-09	1.450481e+01	2.052381e+02
2.350000e-06	1.898630e-06	3.051825e-09	1.344750e+01	1.990075e+02
2.360000e-06	1.748745e-06	2.947811e-09	1.238590e+01	1.925561e+02
2.370000e-06	1.598294e-06	2.856284e-09	1.132030e+01	1.858675e+02
2.380000e-06	1.447329e-06	2.760858e-09	1.025105e+01	1.789285e+02
2.390000e-06	1.295894e-06	2.648636e-09	9.178473e+00	1.717295e+02
2.400000e-06	1.144008e-06	2.523984e-09	8.102707e+00	1.642648e+02
2.410000e-06	9.917378e-07	2.400409e-09	7.024218e+00	1.565319e+02
2.420000e-06	8.391962e-07	2.282003e-09	5.943805e+00	1.485300e+02
2.430000e-06	6.863149e-07	2.167051e-09	4.860988e+00	1.402580e+02
2.440000e-06	5.331406e-07	2.045120e-09	3.776095e+00	1.317122e+02
2.450000e-06	3.797706e-07	1.910523e-09	2.689815e+00	1.228840e+02
2.460000e-06	2.262293e-07	1.766411e-09	1.602322e+00	1.137575e+02
2.470000e-06	7.258058e-08	1.619320e-09	5.140692e-01	1.043090e+02
2.480000e-06	-8.109175e-08	1.469826e-09	-5.743515e-01	9.450647e+01
2.490000e-06	-2.347457e-07	1.313807e-09	-1.662642e+00	8.431120e+01
2.500000e-06	-3.883514e-07	1.148483e-09	-2.750591e+00	7.368038e+01
2.510000e-06	-5.418573e-07	9.756363e-10	-3.837833e+00	6.257119e+01
2.520000e-06	-6.952102e-07	7.985217e-10	-4.923991e+00	5.094583e+01
2.530000e-06	-8.483498e-07	6.206424e-10	-6.008638e+00	3.877709e+01
2.540000e-06	-1.001206e-06	4.361983e-10	-7.091275e+00	2.605378e+01
2.550000e-06	-1.153652e-06	2.356882e-10	-8.171010e+00	1.278555e+01
2.560000e-06	-1.305560e-06	1.979956e-11	-9.246938e+00	-9.936561e-01
2.570000e-06	-1.456932e-06	-2.036214e-10	-1.031906e+01	-1.522388e+01
2.580000e-06	-1.607814e-06	-4.276018e-10	-1.138772e+01	-2.981962e+01
2.590000e-06	-1.758078e-06	-6.551472e-10	-1.245200e+01	-4.467253e+01
2.600000e-06	-1.907722e-06	-8.887310e-10	-1.351189e+01	-5.965617e+01
2.610000e-06	-2.056784e-06	-1.124275e-09	-1.456766e+01	-7.463257e+01
2.620000e-06	-2.205093e-06	-1.357978e-09	-1.561809e+01	-8.945991e+01
2.630000e-06	-2.352432e-06	-1.583720e-09	-1.666166e+01	-1.040006e+02
2.640000e-06	-2.498807e-06	-1.797709e-09	-1.769839e+01	-1.181292e+02
2.650000e-06	-2.644351e-06	-2.001419e-09	-1.872924e+01	-1.317392e+02
2.660000e-06	-2.788974e-06	-2.199060e-09	-1.975357e+01	-1.447479e+02
2.670000e-06	-2.932427e-06	-2.388935e-09	-2.076961e+01	-1.570997e+02
2.680000e-06	-3.074700e-06	-2.566411e-09	-2.177729e+01	-1.687664e+02
2.690000e-06	-3.215905e-06	-2.732464e-09	-2.277741e+01	-1.797461e+02
2.700000e-06	-3.355796e-06	-2.887640e-09	-2.376822e+01	-1.900589e+02
2.710000e-06	-3.494269e-06	-3.034800e-09	-2.474899e+01	-1.997428e+02
2.720000e-06	-3.631475e-06	-3.176613e-09	-2.572078e+01	-2.088470e+02
2.730000e-06	-3.767335e-06	-3.311626e-09	-2.668304e+01	-2.174264e+02
2.740000e-06	-3.901783e-06	-3.438837e-09	-2.763530e+01	-2.255358e+02
2.750000e-06	-4.034924e-06	-3.556575e-09	-2.857830e+01	-2.332256e+02
2.760000e-06	-4.166612e-06	-3.666448e-09	-2.951101e+01	-2.405389e+02
2.770000e-06	-4.296835e-06	-3.773005e-09	-3.043335e+01	-2.475095e+02
2.780000e-06	-4.425648e-06	-3.876923e-09	-3.134570e+01	-2.541625e+02
2.790000e-06	-4.552912e-06	-3.973683e-09	-3.224708e+01	-2.605153e+02
2.800000e-06	-4.678662e-06	-4.062612e-09	-3.313773e+01	-2.665797e+02
2.810000e-06	-4.802724e-06	-4.146845e-09	-3.401643e+01	-2.723648e+02
2.820000e-06	-4.925019e-06	-4.228433e-09	-3.488261e+01	-2.778791e+02
2.830000e-06	-5.045586e-06	-4.310578e-09	-3.573656e+01	-2.831329e+02
2.840000e-06	-5.164212e-06	-4.390208e-09	-3.657676e+01	-2.881391e+02
2.850000e-06	-5.280698e-06	-4.463854e-09	-3.740179e+01	-2.929140e+02
2.860000e-06	-5.394961e-06	-4.533341e-09	-3.821109e+01	-2.974759e+02
2.870000e-06	-5.507046e-06	-4.601730e-09	-3.900495e+01	-3.018446e+02
2.880000e-06	-5.617097e-06	-4.671550e-09	-3.978442e+01	-3.060388e+02
2.890000e-06	-5.725213e-06	-4.739495e-09	-4.055018e+01	-3.100744e+02
2.900000e-06	-5.831426e-06	-4.802130e-09	-4.130246e+01	-3.139630e+02
2.910000e-06	-5.935545e-06	-4.859626e-09	-4.203990e+01	-3.177106e+02
2.920000e-06	-6.037324e-06	-4.913755e-09	-4.276078e+01	-3.213177e+02
2.930000e-06	-6.136863e-06	-4.966920e-09	-4.346578e+01	-3.247793e+02
2.940000e-06	-6.234344e-06	-5.018221e-09	-4.415622e+01	-3.280868e+02
