# Temperatura_=_44.14
# Concentracion g/m^3_=_5000.0
# C_Vs_to_Am_M_A/Vsm_=_65563218390.804596
# pendiente_HvsI_1/m_=_3716.3
# ordenada_HvsI_A/m_=_1297.0
# frecuencia_Hz_=_302572.9837570622

Tiempo_(s)	Campo_(V.s)	Magnetizacion_(V.s)	Campo_(kA/m)	Magnetizacion_(A/m)
0.000000e+00	-7.989871e-06	-5.833276e-09	-5.685038e+01	-3.808512e+02
1.000000e-08	-7.986547e-06	-5.829295e-09	-5.682673e+01	-3.806187e+02
2.000000e-08	-7.980594e-06	-5.822970e-09	-5.678437e+01	-3.803019e+02
3.000000e-08	-7.972059e-06	-5.817963e-09	-5.672364e+01	-3.799173e+02
4.000000e-08	-7.960699e-06	-5.812429e-09	-5.664281e+01	-3.794841e+02
5.000000e-08	-7.946304e-06	-5.804136e-09	-5.654039e+01	-3.790224e+02
6.000000e-08	-7.929067e-06	-5.795507e-09	-5.641774e+01	-3.785506e+02
7.000000e-08	-7.909499e-06	-5.781688e-09	-5.627851e+01	-3.780832e+02
8.000000e-08	-7.887608e-06	-5.805933e-09	-5.612274e+01	-3.776293e+02
9.000000e-08	-7.862730e-06	-5.831342e-09	-5.594573e+01	-3.771915e+02
1.000000e-07	-7.834512e-06	-5.814211e-09	-5.574495e+01	-3.767655e+02
1.100000e-07	-7.803348e-06	-5.798088e-09	-5.552321e+01	-3.763405e+02
1.200000e-07	-7.769435e-06	-5.769189e-09	-5.528191e+01	-3.759007e+02
1.300000e-07	-7.732844e-06	-5.714369e-09	-5.502155e+01	-3.754267e+02
1.400000e-07	-7.693991e-06	-5.647050e-09	-5.474510e+01	-3.748976e+02
1.500000e-07	-7.653012e-06	-5.667418e-09	-5.445352e+01	-3.742930e+02
1.600000e-07	-7.609553e-06	-5.756854e-09	-5.414430e+01	-3.735947e+02
1.700000e-07	-7.563399e-06	-5.711470e-09	-5.381590e+01	-3.727885e+02
1.800000e-07	-7.514472e-06	-5.704937e-09	-5.346777e+01	-3.718647e+02
1.900000e-07	-7.462520e-06	-5.661636e-09	-5.309811e+01	-3.708188e+02
2.000000e-07	-7.407676e-06	-5.587565e-09	-5.270788e+01	-3.696510e+02
2.100000e-07	-7.350097e-06	-5.590074e-09	-5.229819e+01	-3.683656e+02
2.200000e-07	-7.289784e-06	-5.601192e-09	-5.186905e+01	-3.669702e+02
2.300000e-07	-7.226899e-06	-5.620465e-09	-5.142160e+01	-3.654739e+02
2.400000e-07	-7.161297e-06	-5.511593e-09	-5.095482e+01	-3.638868e+02
2.500000e-07	-7.092973e-06	-5.477983e-09	-5.046867e+01	-3.622183e+02
2.600000e-07	-7.021971e-06	-5.494239e-09	-4.996347e+01	-3.604767e+02
2.700000e-07	-6.948081e-06	-5.483145e-09	-4.943773e+01	-3.586684e+02
2.800000e-07	-6.871363e-06	-5.457609e-09	-4.889185e+01	-3.567974e+02
2.900000e-07	-6.791889e-06	-5.429273e-09	-4.832637e+01	-3.548657e+02
3.000000e-07	-6.709863e-06	-5.407366e-09	-4.774273e+01	-3.528735e+02
3.100000e-07	-6.625593e-06	-5.346322e-09	-4.714313e+01	-3.508190e+02
3.200000e-07	-6.539069e-06	-5.324202e-09	-4.652748e+01	-3.486995e+02
3.300000e-07	-6.450146e-06	-5.298096e-09	-4.589476e+01	-3.465113e+02
3.400000e-07	-6.358805e-06	-5.240900e-09	-4.524484e+01	-3.442505e+02
3.500000e-07	-6.265227e-06	-5.189306e-09	-4.457901e+01	-3.419129e+02
3.600000e-07	-6.169354e-06	-5.162264e-09	-4.389684e+01	-3.394949e+02
3.700000e-07	-6.071135e-06	-5.149860e-09	-4.319798e+01	-3.369931e+02
3.800000e-07	-5.970749e-06	-5.116318e-09	-4.248371e+01	-3.344046e+02
3.900000e-07	-5.868229e-06	-5.080807e-09	-4.175425e+01	-3.317274e+02
4.000000e-07	-5.763591e-06	-5.021101e-09	-4.100972e+01	-3.289605e+02
4.100000e-07	-5.656973e-06	-4.949481e-09	-4.025109e+01	-3.261033e+02
4.200000e-07	-5.548433e-06	-4.909589e-09	-3.947880e+01	-3.231563e+02
4.300000e-07	-5.437959e-06	-4.898014e-09	-3.869274e+01	-3.201207e+02
4.400000e-07	-5.325423e-06	-4.851764e-09	-3.789202e+01	-3.169979e+02
4.500000e-07	-5.210700e-06	-4.778012e-09	-3.707572e+01	-3.137895e+02
4.600000e-07	-5.093968e-06	-4.718767e-09	-3.624514e+01	-3.104967e+02
4.700000e-07	-4.975451e-06	-4.664212e-09	-3.540186e+01	-3.071199e+02
4.800000e-07	-4.855116e-06	-4.607616e-09	-3.454564e+01	-3.036582e+02
4.900000e-07	-4.732981e-06	-4.566981e-09	-3.367661e+01	-3.001092e+02
5.000000e-07	-4.609152e-06	-4.524486e-09	-3.279553e+01	-2.964688e+02
5.100000e-07	-4.483645e-06	-4.449127e-09	-3.190250e+01	-2.927309e+02
5.200000e-07	-4.356518e-06	-4.378345e-09	-3.099796e+01	-2.888883e+02
5.300000e-07	-4.227788e-06	-4.331064e-09	-3.008201e+01	-2.849327e+02
5.400000e-07	-4.097465e-06	-4.276467e-09	-2.915472e+01	-2.808557e+02
5.500000e-07	-3.965586e-06	-4.195836e-09	-2.821636e+01	-2.766496e+02
5.600000e-07	-3.832167e-06	-4.127698e-09	-2.726704e+01	-2.723078e+02
5.700000e-07	-3.697291e-06	-4.068484e-09	-2.630736e+01	-2.678261e+02
5.800000e-07	-3.561038e-06	-3.990674e-09	-2.533787e+01	-2.632026e+02
5.900000e-07	-3.423425e-06	-3.907254e-09	-2.435872e+01	-2.584375e+02
6.000000e-07	-3.284438e-06	-3.839843e-09	-2.336978e+01	-2.535332e+02
6.100000e-07	-3.143974e-06	-3.768340e-09	-2.237034e+01	-2.484932e+02
6.200000e-07	-3.002137e-06	-3.677386e-09	-2.136112e+01	-2.433208e+02
6.300000e-07	-2.859124e-06	-3.597474e-09	-2.034354e+01	-2.380182e+02
6.400000e-07	-2.715026e-06	-3.531533e-09	-1.931824e+01	-2.325853e+02
6.500000e-07	-2.569970e-06	-3.453673e-09	-1.828613e+01	-2.270182e+02
6.600000e-07	-2.423964e-06	-3.355752e-09	-1.724724e+01	-2.213090e+02
6.700000e-07	-2.277153e-06	-3.260345e-09	-1.620264e+01	-2.154457e+02
6.800000e-07	-2.129663e-06	-3.165626e-09	-1.515321e+01	-2.094126e+02
6.900000e-07	-1.981513e-06	-3.063731e-09	-1.409907e+01	-2.031912e+02
7.000000e-07	-1.832750e-06	-2.961904e-09	-1.304057e+01	-1.967622e+02
7.100000e-07	-1.683402e-06	-2.864804e-09	-1.197792e+01	-1.901065e+02
7.200000e-07	-1.533499e-06	-2.763158e-09	-1.091131e+01	-1.832075e+02
7.300000e-07	-1.383089e-06	-2.651829e-09	-9.841105e+00	-1.760518e+02
7.400000e-07	-1.232259e-06	-2.539939e-09	-8.767898e+00	-1.686306e+02
7.500000e-07	-1.080957e-06	-2.426940e-09	-7.691343e+00	-1.609388e+02
7.600000e-07	-9.292666e-07	-2.310368e-09	-6.612016e+00	-1.529749e+02
7.700000e-07	-7.773306e-07	-2.183312e-09	-5.530945e+00	-1.447390e+02
7.800000e-07	-6.251397e-07	-2.051518e-09	-4.448060e+00	-1.362303e+02
7.900000e-07	-4.726608e-07	-1.915019e-09	-3.363126e+00	-1.274451e+02
8.000000e-07	-3.200107e-07	-1.774228e-09	-2.276974e+00	-1.183736e+02
8.100000e-07	-1.672570e-07	-1.630248e-09	-1.190085e+00	-1.089988e+02
8.200000e-07	-1.438545e-08	-1.480416e-09	-1.023569e-01	-9.929474e+01
8.300000e-07	1.385342e-07	-1.325277e-09	9.857136e-01	-8.922750e+01
8.400000e-07	2.914284e-07	-1.161357e-09	2.073602e+00	-7.875659e+01
8.500000e-07	4.442168e-07	-9.931726e-10	3.160739e+00	-6.783830e+01
8.600000e-07	5.968746e-07	-8.204795e-10	4.246946e+00	-5.643021e+01
8.700000e-07	7.493799e-07	-6.438037e-10	5.332067e+00	-4.449656e+01
8.800000e-07	9.017277e-07	-4.584178e-10	6.416069e+00	-3.201399e+01
8.900000e-07	1.053831e-06	-2.616959e-10	7.498332e+00	-1.897698e+01
9.000000e-07	1.205528e-06	-5.748565e-11	8.577704e+00	-5.402391e+00
9.100000e-07	1.356770e-06	1.521582e-10	9.653832e+00	8.667621e+00
9.200000e-07	1.507491e-06	3.687486e-10	1.072626e+01	2.316456e+01
9.300000e-07	1.657612e-06	5.960971e-10	1.179442e+01	3.799485e+01
9.400000e-07	1.807148e-06	8.279069e-10	1.285841e+01	5.304337e+01
9.500000e-07	1.956043e-06	1.060398e-09	1.391785e+01	6.817894e+01
9.600000e-07	2.104285e-06	1.293467e-09	1.497263e+01	8.326143e+01
9.700000e-07	2.251847e-06	1.521721e-09	1.602258e+01	9.814972e+01
9.800000e-07	2.398511e-06	1.739913e-09	1.706614e+01	1.127098e+02
9.900000e-07	2.544230e-06	1.949916e-09	1.810298e+01	1.268225e+02
1.000000e-06	2.689051e-06	2.152412e-09	1.913342e+01	1.403891e+02
1.010000e-06	2.832853e-06	2.349716e-09	2.015661e+01	1.533363e+02
1.020000e-06	2.975533e-06	2.535203e-09	2.117183e+01	1.656179e+02
1.030000e-06	3.117079e-06	2.706696e-09	2.217897e+01	1.772144e+02
1.040000e-06	3.257399e-06	2.869643e-09	2.317739e+01	1.881309e+02
1.050000e-06	3.396297e-06	3.023961e-09	2.416569e+01	1.983929e+02
1.060000e-06	3.533762e-06	3.171591e-09	2.514380e+01	2.080408e+02
1.070000e-06	3.669998e-06	3.311133e-09	2.611316e+01	2.171240e+02
1.080000e-06	3.804902e-06	3.445120e-09	2.707304e+01	2.256955e+02
1.090000e-06	3.938364e-06	3.571437e-09	2.802267e+01	2.338066e+02
1.100000e-06	4.070517e-06	3.690323e-09	2.896297e+01	2.415034e+02
1.110000e-06	4.201204e-06	3.805290e-09	2.989285e+01	2.488242e+02
1.120000e-06	4.330349e-06	3.912360e-09	3.081176e+01	2.557993e+02
1.130000e-06	4.457998e-06	4.010277e-09	3.172002e+01	2.624509e+02
1.140000e-06	4.584182e-06	4.100572e-09	3.261786e+01	2.687953e+02
1.150000e-06	4.708869e-06	4.188710e-09	3.350505e+01	2.748451e+02
1.160000e-06	4.831857e-06	4.275597e-09	3.438014e+01	2.806112e+02
1.170000e-06	4.953107e-06	4.358897e-09	3.524287e+01	2.861056e+02
1.180000e-06	5.072558e-06	4.438441e-09	3.609281e+01	2.913424e+02
1.190000e-06	5.190122e-06	4.515624e-09	3.692931e+01	2.963383e+02
1.200000e-06	5.305703e-06	4.592585e-09	3.775170e+01	3.011127e+02
1.210000e-06	5.419157e-06	4.666039e-09	3.855896e+01	3.056863e+02
1.220000e-06	5.530541e-06	4.732550e-09	3.935150e+01	3.100794e+02
1.230000e-06	5.639972e-06	4.792467e-09	4.013013e+01	3.143101e+02
1.240000e-06	5.747507e-06	4.849121e-09	4.089527e+01	3.183926e+02
1.250000e-06	5.852949e-06	4.906290e-09	4.164553e+01	3.223354e+02
1.260000e-06	5.956188e-06	4.965416e-09	4.238010e+01	3.261413e+02
1.270000e-06	6.057329e-06	5.019885e-09	4.309975e+01	3.298076e+02
1.280000e-06	6.156257e-06	5.069448e-09	4.380365e+01	3.333266e+02
1.290000e-06	6.252792e-06	5.116913e-09	4.449053e+01	3.366882e+02
1.300000e-06	6.346998e-06	5.164794e-09	4.516084e+01	3.398814e+02
1.310000e-06	6.439032e-06	5.213113e-09	4.581568e+01	3.428971e+02
1.320000e-06	6.528738e-06	5.255883e-09	4.645397e+01	3.457298e+02
1.330000e-06	6.616049e-06	5.294075e-09	4.707522e+01	3.483793e+02
1.340000e-06	6.701079e-06	5.328703e-09	4.768023e+01	3.508515e+02
1.350000e-06	6.783769e-06	5.362691e-09	4.826859e+01	3.531578e+02
1.360000e-06	6.864002e-06	5.395561e-09	4.883948e+01	3.553145e+02
1.370000e-06	6.941687e-06	5.425378e-09	4.939222e+01	3.573406e+02
1.380000e-06	7.016691e-06	5.454708e-09	4.992590e+01	3.592564e+02
1.390000e-06	7.089001e-06	5.483470e-09	5.044041e+01	3.610802e+02
1.400000e-06	7.158854e-06	5.511104e-09	5.093744e+01	3.628273e+02
1.410000e-06	7.226279e-06	5.537174e-09	5.141719e+01	3.645077e+02
1.420000e-06	7.291052e-06	5.562285e-09	5.187807e+01	3.661259e+02
1.430000e-06	7.353298e-06	5.585204e-09	5.232097e+01	3.676806e+02
1.440000e-06	7.413074e-06	5.605771e-09	5.274629e+01	3.691661e+02
1.450000e-06	7.470168e-06	5.625123e-09	5.315253e+01	3.705733e+02
1.460000e-06	7.524575e-06	5.642061e-09	5.353966e+01	3.718923e+02
1.470000e-06	7.575987e-06	5.657194e-09	5.390547e+01	3.731139e+02
1.480000e-06	7.624279e-06	5.672534e-09	5.424908e+01	3.742319e+02
1.490000e-06	7.669847e-06	5.687866e-09	5.457331e+01	3.752442e+02
1.500000e-06	7.712717e-06	5.702494e-09	5.487834e+01	3.761536e+02
1.510000e-06	7.752746e-06	5.717390e-09	5.516316e+01	3.769672e+02
1.520000e-06	7.790076e-06	5.732303e-09	5.542877e+01	3.776962e+02
1.530000e-06	7.824728e-06	5.745298e-09	5.567534e+01	3.783536e+02
1.540000e-06	7.856564e-06	5.754375e-09	5.590186e+01	3.789526e+02
1.550000e-06	7.885673e-06	5.760028e-09	5.610898e+01	3.795046e+02
1.560000e-06	7.911922e-06	5.765347e-09	5.629575e+01	3.800176e+02
1.570000e-06	7.935140e-06	5.772128e-09	5.646095e+01	3.804945e+02
1.580000e-06	7.955623e-06	5.778536e-09	5.660669e+01	3.809332e+02
1.590000e-06	7.973354e-06	5.783350e-09	5.673285e+01	3.813267e+02
1.600000e-06	7.988099e-06	5.788044e-09	5.683777e+01	3.816640e+02
1.610000e-06	7.999702e-06	5.792912e-09	5.692033e+01	3.819319e+02
1.620000e-06	8.008195e-06	5.797001e-09	5.698076e+01	3.821172e+02
1.630000e-06	8.013884e-06	5.800041e-09	5.702124e+01	3.822088e+02
1.640000e-06	8.016732e-06	5.801211e-09	5.704150e+01	3.821996e+02
1.650000e-06	8.016706e-06	5.797884e-09	5.704132e+01	3.820879e+02
1.660000e-06	8.014040e-06	5.789723e-09	5.702235e+01	3.818780e+02
1.670000e-06	8.008733e-06	5.786152e-09	5.698458e+01	3.815804e+02
1.680000e-06	8.000779e-06	5.780780e-09	5.692799e+01	3.812105e+02
1.690000e-06	7.990153e-06	5.774141e-09	5.685238e+01	3.807871e+02
1.700000e-06	7.976594e-06	5.771930e-09	5.675591e+01	3.803302e+02
1.710000e-06	7.960340e-06	5.772748e-09	5.664026e+01	3.798589e+02
1.720000e-06	7.941767e-06	5.774927e-09	5.650811e+01	3.793888e+02
1.730000e-06	7.920816e-06	5.697883e-09	5.635903e+01	3.789305e+02
1.740000e-06	7.897009e-06	5.690669e-09	5.618964e+01	3.784884e+02
1.750000e-06	7.869645e-06	5.707379e-09	5.599493e+01	3.780597e+02
1.760000e-06	7.838642e-06	5.687235e-09	5.577434e+01	3.776352e+02
1.770000e-06	7.804788e-06	5.690358e-09	5.553346e+01	3.772004e+02
1.780000e-06	7.768617e-06	5.765287e-09	5.527609e+01	3.767364e+02
1.790000e-06	7.730123e-06	5.773131e-09	5.500219e+01	3.762225e+02
1.800000e-06	7.689586e-06	5.661479e-09	5.471376e+01	3.756381e+02
1.810000e-06	7.646781e-06	5.728914e-09	5.440919e+01	3.749642e+02
1.820000e-06	7.601220e-06	5.649233e-09	5.408501e+01	3.741856e+02
1.830000e-06	7.553064e-06	5.679649e-09	5.374236e+01	3.732914e+02
1.840000e-06	7.501981e-06	5.733801e-09	5.337889e+01	3.722757e+02
1.850000e-06	7.447871e-06	5.676177e-09	5.299388e+01	3.711376e+02
1.860000e-06	7.391040e-06	5.707280e-09	5.258951e+01	3.698805e+02
1.870000e-06	7.331522e-06	5.530322e-09	5.216602e+01	3.685113e+02
1.880000e-06	7.269339e-06	5.560815e-09	5.172357e+01	3.670388e+02
1.890000e-06	7.204323e-06	5.587325e-09	5.126096e+01	3.654729e+02
1.900000e-06	7.136603e-06	5.536504e-09	5.077911e+01	3.638235e+02
1.910000e-06	7.066051e-06	5.578058e-09	5.027711e+01	3.620990e+02
1.920000e-06	6.992725e-06	5.462886e-09	4.975538e+01	3.603064e+02
1.930000e-06	6.916750e-06	5.431676e-09	4.921479e+01	3.584503e+02
1.940000e-06	6.837960e-06	5.381622e-09	4.865418e+01	3.565333e+02
1.950000e-06	6.756653e-06	5.419494e-09	4.807565e+01	3.545558e+02
1.960000e-06	6.672854e-06	5.424596e-09	4.747940e+01	3.525166e+02
1.970000e-06	6.586520e-06	5.329902e-09	4.686511e+01	3.504131e+02
1.980000e-06	6.497800e-06	5.311351e-09	4.623384e+01	3.482420e+02
1.990000e-06	6.406807e-06	5.244105e-09	4.558639e+01	3.459992e+02
2.000000e-06	6.313610e-06	5.246360e-09	4.492326e+01	3.436807e+02
2.010000e-06	6.218087e-06	5.201199e-09	4.424359e+01	3.412827e+02
2.020000e-06	6.120304e-06	5.180157e-09	4.354784e+01	3.388016e+02
2.030000e-06	6.020367e-06	5.108214e-09	4.283675e+01	3.362345e+02
2.040000e-06	5.918300e-06	5.046221e-09	4.211052e+01	3.335792e+02
2.050000e-06	5.814106e-06	5.050679e-09	4.136915e+01	3.308342e+02
2.060000e-06	5.707960e-06	5.030760e-09	4.061388e+01	3.279991e+02
2.070000e-06	5.599895e-06	4.982368e-09	3.984497e+01	3.250740e+02
2.080000e-06	5.489798e-06	4.894412e-09	3.906160e+01	3.220599e+02
2.090000e-06	5.377700e-06	4.846081e-09	3.826398e+01	3.189583e+02
2.100000e-06	5.263512e-06	4.789083e-09	3.745150e+01	3.157706e+02
2.110000e-06	5.147285e-06	4.778793e-09	3.662451e+01	3.124983e+02
2.120000e-06	5.029124e-06	4.758354e-09	3.578375e+01	3.091421e+02
2.130000e-06	4.909030e-06	4.694131e-09	3.492925e+01	3.057013e+02
2.140000e-06	4.787073e-06	4.590258e-09	3.406149e+01	3.021740e+02
2.150000e-06	4.663471e-06	4.527841e-09	3.318202e+01	2.985564e+02
2.160000e-06	4.538161e-06	4.506292e-09	3.229040e+01	2.948431e+02
2.170000e-06	4.411124e-06	4.466715e-09	3.138650e+01	2.910269e+02
2.180000e-06	4.282477e-06	4.404613e-09	3.047114e+01	2.870998e+02
2.190000e-06	4.152297e-06	4.330604e-09	2.954487e+01	2.830535e+02
2.200000e-06	4.020594e-06	4.252683e-09	2.860776e+01	2.788798e+02
2.210000e-06	3.887377e-06	4.175287e-09	2.765988e+01	2.745719e+02
2.220000e-06	3.752735e-06	4.136542e-09	2.670186e+01	2.701250e+02
2.230000e-06	3.616692e-06	4.090891e-09	2.573387e+01	2.655365e+02
2.240000e-06	3.479250e-06	4.004828e-09	2.475593e+01	2.608062e+02
2.250000e-06	3.340452e-06	3.902086e-09	2.376834e+01	2.559359e+02
2.260000e-06	3.200375e-06	3.834330e-09	2.277165e+01	2.509289e+02
2.270000e-06	3.058963e-06	3.776757e-09	2.176546e+01	2.457889e+02
2.280000e-06	2.916327e-06	3.697836e-09	2.075056e+01	2.405183e+02
2.290000e-06	2.772612e-06	3.605021e-09	1.972798e+01	2.351177e+02
2.300000e-06	2.627883e-06	3.512242e-09	1.869819e+01	2.295842e+02
2.310000e-06	2.482298e-06	3.420924e-09	1.766231e+01	2.239110e+02
2.320000e-06	2.335960e-06	3.341823e-09	1.662107e+01	2.180871e+02
2.330000e-06	2.188815e-06	3.271845e-09	1.557409e+01	2.120975e+02
2.340000e-06	2.040917e-06	3.182758e-09	1.452175e+01	2.059246e+02
2.350000e-06	1.892372e-06	3.064215e-09	1.346480e+01	1.995488e+02
2.360000e-06	1.743203e-06	2.945272e-09	1.240342e+01	1.929510e+02
2.370000e-06	1.593493e-06	2.849044e-09	1.133819e+01	1.861137e+02
2.380000e-06	1.443243e-06	2.760636e-09	1.026912e+01	1.790227e+02
2.390000e-06	1.292426e-06	2.657121e-09	9.196008e+00	1.716680e+02
2.400000e-06	1.141177e-06	2.532052e-09	8.119822e+00	1.640436e+02
2.410000e-06	9.896269e-07	2.399125e-09	7.041498e+00	1.561472e+02
2.420000e-06	8.377560e-07	2.272231e-09	5.960890e+00	1.479788e+02
2.430000e-06	6.855833e-07	2.156748e-09	4.878135e+00	1.395381e+02
2.440000e-06	5.331334e-07	2.038173e-09	3.793407e+00	1.308221e+02
2.450000e-06	3.804462e-07	1.902191e-09	2.706991e+00	1.218230e+02
2.460000e-06	2.276194e-07	1.750486e-09	1.619582e+00	1.125256e+02
2.470000e-06	7.470981e-08	1.596316e-09	5.315832e-01	1.029063e+02
2.480000e-06	-7.826077e-08	1.445778e-09	-5.568493e-01	9.293292e+01
2.490000e-06	-2.312355e-07	1.293070e-09	-1.645311e+00	8.256647e+01
2.500000e-06	-3.841461e-07	1.130373e-09	-2.733317e+00	7.176365e+01
2.510000e-06	-5.369395e-07	9.545584e-10	-3.820489e+00	6.048123e+01
2.520000e-06	-6.895826e-07	7.717562e-10	-4.906591e+00	4.868125e+01
2.530000e-06	-8.420072e-07	5.878192e-10	-5.991139e+00	3.633671e+01
2.540000e-06	-9.941597e-07	3.985762e-10	-7.073751e+00	2.343719e+01
2.550000e-06	-1.145955e-06	1.952189e-10	-8.153821e+00	9.993569e+00
2.560000e-06	-1.297261e-06	-2.289261e-11	-9.230406e+00	-3.958476e+00
2.570000e-06	-1.448084e-06	-2.473780e-10	-1.030356e+01	-1.835701e+01
2.580000e-06	-1.598352e-06	-4.731105e-10	-1.137276e+01	-3.311448e+01
2.590000e-06	-1.747926e-06	-7.002312e-10	-1.243703e+01	-4.812072e+01
2.600000e-06	-1.896865e-06	-9.323419e-10	-1.349678e+01	-6.324794e+01
2.610000e-06	-2.045168e-06	-1.168952e-09	-1.455200e+01	-7.835753e+01
2.620000e-06	-2.192709e-06	-1.404202e-09	-1.560179e+01	-9.330783e+01
2.630000e-06	-2.339356e-06	-1.632487e-09	-1.664524e+01	-1.079624e+02
2.640000e-06	-2.485107e-06	-1.849930e-09	-1.768230e+01	-1.221975e+02
2.650000e-06	-2.630017e-06	-2.057428e-09	-1.871338e+01	-1.359090e+02
2.660000e-06	-2.774030e-06	-2.257648e-09	-1.973807e+01	-1.490170e+02
2.670000e-06	-2.916935e-06	-2.450118e-09	-2.075489e+01	-1.614683e+02
2.680000e-06	-3.058547e-06	-2.628059e-09	-2.176250e+01	-1.732370e+02
2.690000e-06	-3.198941e-06	-2.792673e-09	-2.276145e+01	-1.843223e+02
2.700000e-06	-3.338079e-06	-2.948736e-09	-2.375145e+01	-1.947452e+02
2.710000e-06	-3.475908e-06	-3.097340e-09	-2.473215e+01	-2.045427e+02
2.720000e-06	-3.612456e-06	-3.240027e-09	-2.570373e+01	-2.137626e+02
2.730000e-06	-3.747704e-06	-3.377331e-09	-2.666606e+01	-2.224576e+02
2.740000e-06	-3.881558e-06	-3.510031e-09	-2.761848e+01	-2.306797e+02
2.750000e-06	-4.013996e-06	-3.634126e-09	-2.856081e+01	-2.384766e+02
2.760000e-06	-4.145038e-06	-3.748330e-09	-2.949321e+01	-2.458888e+02
2.770000e-06	-4.274687e-06	-3.855728e-09	-3.041571e+01	-2.529484e+02
2.780000e-06	-4.402999e-06	-3.956744e-09	-3.132868e+01	-2.596797e+02
2.790000e-06	-4.529741e-06	-4.050107e-09	-3.223050e+01	-2.661001e+02
2.800000e-06	-4.654870e-06	-4.138332e-09	-3.312083e+01	-2.722229e+02
2.810000e-06	-4.778379e-06	-4.224819e-09	-3.399963e+01	-2.780594e+02
2.820000e-06	-4.900146e-06	-4.310015e-09	-3.486604e+01	-2.836211e+02
2.830000e-06	-5.020166e-06	-4.394386e-09	-3.572002e+01	-2.889212e+02
2.840000e-06	-5.138223e-06	-4.474922e-09	-3.656003e+01	-2.939761e+02
2.850000e-06	-5.254185e-06	-4.550504e-09	-3.738513e+01	-2.988045e+02
2.860000e-06	-5.368014e-06	-4.622642e-09	-3.819506e+01	-3.034268e+02
2.870000e-06	-5.479658e-06	-4.692711e-09	-3.898944e+01	-3.078637e+02
2.880000e-06	-5.589253e-06	-4.761705e-09	-3.976925e+01	-3.121341e+02
2.890000e-06	-5.696931e-06	-4.827667e-09	-4.053541e+01	-3.162530e+02
2.900000e-06	-5.802743e-06	-4.890555e-09	-4.128830e+01	-3.202307e+02
2.910000e-06	-5.906481e-06	-4.950358e-09	-4.202642e+01	-3.240714e+02
2.920000e-06	-6.007873e-06	-5.007346e-09	-4.274786e+01	-3.277737e+02
2.930000e-06	-6.107020e-06	-5.063234e-09	-4.345332e+01	-3.313309e+02
2.940000e-06	-6.204054e-06	-5.116726e-09	-4.414374e+01	-3.347334e+02
