# Temperatura_=_50.04
# Concentracion g/m^3_=_5000.0
# C_Vs_to_Am_M_A/Vsm_=_65563218390.804596
# pendiente_HvsI_1/m_=_3716.3
# ordenada_HvsI_A/m_=_1297.0
# frecuencia_Hz_=_302566.57352567767

Tiempo_(s)	Campo_(V.s)	Magnetizacion_(V.s)	Campo_(kA/m)	Magnetizacion_(A/m)
0.000000e+00	-7.967453e-06	-6.057992e-09	-5.684666e+01	-3.962283e+02
1.000000e-08	-7.963953e-06	-6.053598e-09	-5.682169e+01	-3.960028e+02
2.000000e-08	-7.957870e-06	-6.045889e-09	-5.677829e+01	-3.957074e+02
3.000000e-08	-7.949092e-06	-6.040325e-09	-5.671565e+01	-3.953531e+02
4.000000e-08	-7.937479e-06	-6.034082e-09	-5.663280e+01	-3.949506e+02
5.000000e-08	-7.922932e-06	-6.026367e-09	-5.652901e+01	-3.945091e+02
6.000000e-08	-7.905569e-06	-6.018885e-09	-5.640512e+01	-3.940353e+02
7.000000e-08	-7.885878e-06	-6.002334e-09	-5.626463e+01	-3.935321e+02
8.000000e-08	-7.863780e-06	-6.017177e-09	-5.610697e+01	-3.929992e+02
9.000000e-08	-7.838693e-06	-6.045977e-09	-5.592797e+01	-3.924325e+02
1.000000e-07	-7.810346e-06	-6.030955e-09	-5.572572e+01	-3.918256e+02
1.100000e-07	-7.778961e-06	-5.999066e-09	-5.550179e+01	-3.911701e+02
1.200000e-07	-7.744803e-06	-5.965563e-09	-5.525808e+01	-3.904576e+02
1.300000e-07	-7.708100e-06	-5.942277e-09	-5.499621e+01	-3.896800e+02
1.400000e-07	-7.669108e-06	-5.905434e-09	-5.471801e+01	-3.888308e+02
1.500000e-07	-7.627964e-06	-5.890593e-09	-5.442445e+01	-3.879055e+02
1.600000e-07	-7.584434e-06	-5.939421e-09	-5.411387e+01	-3.869018e+02
1.700000e-07	-7.538186e-06	-5.881554e-09	-5.378390e+01	-3.858193e+02
1.800000e-07	-7.489135e-06	-5.874964e-09	-5.343393e+01	-3.846587e+02
1.900000e-07	-7.437090e-06	-5.873438e-09	-5.306259e+01	-3.834215e+02
2.000000e-07	-7.382127e-06	-5.806692e-09	-5.267044e+01	-3.821091e+02
2.100000e-07	-7.324446e-06	-5.791981e-09	-5.225890e+01	-3.807218e+02
2.200000e-07	-7.264089e-06	-5.774990e-09	-5.182826e+01	-3.792590e+02
2.300000e-07	-7.201118e-06	-5.782142e-09	-5.137897e+01	-3.777187e+02
2.400000e-07	-7.135396e-06	-5.728123e-09	-5.091005e+01	-3.760980e+02
2.500000e-07	-7.066934e-06	-5.705503e-09	-5.042158e+01	-3.743935e+02
2.600000e-07	-6.995800e-06	-5.690391e-09	-4.991405e+01	-3.726018e+02
2.700000e-07	-6.921935e-06	-5.658952e-09	-4.938703e+01	-3.707207e+02
2.800000e-07	-6.845262e-06	-5.632398e-09	-4.883999e+01	-3.687491e+02
2.900000e-07	-6.765800e-06	-5.611353e-09	-4.827304e+01	-3.666878e+02
3.000000e-07	-6.683766e-06	-5.596907e-09	-4.768773e+01	-3.645391e+02
3.100000e-07	-6.599447e-06	-5.539759e-09	-4.708612e+01	-3.623070e+02
3.200000e-07	-6.512902e-06	-5.489093e-09	-4.646864e+01	-3.599959e+02
3.300000e-07	-6.423972e-06	-5.455792e-09	-4.583414e+01	-3.576103e+02
3.400000e-07	-6.332682e-06	-5.416376e-09	-4.518280e+01	-3.551536e+02
3.500000e-07	-6.239187e-06	-5.373112e-09	-4.451573e+01	-3.526275e+02
3.600000e-07	-6.143439e-06	-5.343040e-09	-4.383257e+01	-3.500317e+02
3.700000e-07	-6.045352e-06	-5.317407e-09	-4.313274e+01	-3.473631e+02
3.800000e-07	-5.945031e-06	-5.268858e-09	-4.241696e+01	-3.446168e+02
3.900000e-07	-5.842613e-06	-5.217747e-09	-4.168623e+01	-3.417861e+02
4.000000e-07	-5.738154e-06	-5.174430e-09	-4.094092e+01	-3.388637e+02
4.100000e-07	-5.631691e-06	-5.125031e-09	-4.018132e+01	-3.358427e+02
4.200000e-07	-5.523257e-06	-5.073647e-09	-3.940766e+01	-3.327173e+02
4.300000e-07	-5.412841e-06	-5.032314e-09	-3.861986e+01	-3.294837e+02
4.400000e-07	-5.300404e-06	-4.992209e-09	-3.781764e+01	-3.261407e+02
4.500000e-07	-5.185918e-06	-4.937129e-09	-3.700080e+01	-3.226895e+02
4.600000e-07	-5.069441e-06	-4.872012e-09	-3.616975e+01	-3.191331e+02
4.700000e-07	-4.951056e-06	-4.812099e-09	-3.532509e+01	-3.154761e+02
4.800000e-07	-4.830860e-06	-4.753108e-09	-3.446751e+01	-3.117229e+02
4.900000e-07	-4.708979e-06	-4.695720e-09	-3.359791e+01	-3.078771e+02
5.000000e-07	-4.585389e-06	-4.638601e-09	-3.271611e+01	-3.039401e+02
5.100000e-07	-4.460089e-06	-4.576192e-09	-3.182211e+01	-2.999108e+02
5.200000e-07	-4.333189e-06	-4.509109e-09	-3.091669e+01	-2.957850e+02
5.300000e-07	-4.204610e-06	-4.440668e-09	-2.999930e+01	-2.915559e+02
5.400000e-07	-4.074473e-06	-4.373431e-09	-2.907080e+01	-2.872145e+02
5.500000e-07	-3.942934e-06	-4.304621e-09	-2.813228e+01	-2.827507e+02
5.600000e-07	-3.809773e-06	-4.237284e-09	-2.718220e+01	-2.781549e+02
5.700000e-07	-3.675091e-06	-4.164020e-09	-2.622126e+01	-2.734186e+02
5.800000e-07	-3.539165e-06	-4.085022e-09	-2.525145e+01	-2.685359e+02
5.900000e-07	-3.401870e-06	-4.001706e-09	-2.427187e+01	-2.635037e+02
6.000000e-07	-3.263131e-06	-3.924637e-09	-2.328198e+01	-2.583218e+02
6.100000e-07	-3.122989e-06	-3.850730e-09	-2.228209e+01	-2.529923e+02
6.200000e-07	-2.981549e-06	-3.771962e-09	-2.127293e+01	-2.475187e+02
6.300000e-07	-2.838886e-06	-3.689683e-09	-2.025505e+01	-2.419040e+02
6.400000e-07	-2.695111e-06	-3.601438e-09	-1.922924e+01	-2.361499e+02
6.500000e-07	-2.550462e-06	-3.509551e-09	-1.819719e+01	-2.302547e+02
6.600000e-07	-2.404919e-06	-3.412116e-09	-1.715876e+01	-2.242129e+02
6.700000e-07	-2.258426e-06	-3.314450e-09	-1.611355e+01	-2.180145e+02
6.800000e-07	-2.111159e-06	-3.214611e-09	-1.506282e+01	-2.116454e+02
6.900000e-07	-1.963342e-06	-3.113224e-09	-1.400817e+01	-2.050885e+02
7.000000e-07	-1.814963e-06	-3.009491e-09	-1.294951e+01	-1.983250e+02
7.100000e-07	-1.665955e-06	-2.903907e-09	-1.188635e+01	-1.913366e+02
7.200000e-07	-1.516329e-06	-2.793449e-09	-1.081880e+01	-1.841070e+02
7.300000e-07	-1.366192e-06	-2.676400e-09	-9.747590e+00	-1.766233e+02
7.400000e-07	-1.215679e-06	-2.557191e-09	-8.673699e+00	-1.688773e+02
7.500000e-07	-1.064823e-06	-2.434614e-09	-7.597363e+00	-1.608648e+02
7.600000e-07	-9.136071e-07	-2.312399e-09	-6.518459e+00	-1.525852e+02
7.700000e-07	-7.621007e-07	-2.184573e-09	-5.437481e+00	-1.440391e+02
7.800000e-07	-6.103345e-07	-2.050490e-09	-4.354651e+00	-1.352261e+02
7.900000e-07	-4.583057e-07	-1.909682e-09	-3.269947e+00	-1.261417e+02
8.000000e-07	-3.061044e-07	-1.764052e-09	-2.184012e+00	-1.167749e+02
8.100000e-07	-1.537674e-07	-1.615489e-09	-1.097109e+00	-1.071059e+02
8.200000e-07	-1.340098e-09	-1.461335e-09	-9.561408e-03	-9.710549e+01
8.300000e-07	1.511118e-07	-1.301439e-09	1.078161e+00	-8.673564e+01
8.400000e-07	3.035391e-07	-1.133009e-09	2.165709e+00	-7.595162e+01
8.500000e-07	4.558851e-07	-9.573306e-10	3.252676e+00	-6.470587e+01
8.600000e-07	6.080693e-07	-7.755986e-10	4.338489e+00	-5.295318e+01
8.700000e-07	7.600340e-07	-5.901800e-10	5.422736e+00	-4.065665e+01
8.800000e-07	9.118240e-07	-3.990958e-10	6.505736e+00	-2.779385e+01
8.900000e-07	1.063394e-06	-2.001678e-10	7.587169e+00	-1.436252e+01
9.000000e-07	1.214605e-06	8.359945e-12	8.666034e+00	-3.850228e-01
9.100000e-07	1.365392e-06	2.265800e-10	9.741877e+00	1.408904e+01
9.200000e-07	1.515658e-06	4.530498e-10	1.081401e+01	2.898246e+01
9.300000e-07	1.665361e-06	6.865589e-10	1.188212e+01	4.419251e+01
9.400000e-07	1.814508e-06	9.228480e-10	1.294626e+01	5.959541e+01
9.500000e-07	1.962995e-06	1.160777e-09	1.400570e+01	7.505280e+01
9.600000e-07	2.110754e-06	1.398029e-09	1.505994e+01	9.041964e+01
9.700000e-07	2.257744e-06	1.630429e-09	1.610869e+01	1.055528e+02
9.800000e-07	2.403920e-06	1.853573e-09	1.715163e+01	1.203193e+02
9.900000e-07	2.549214e-06	2.068497e-09	1.818829e+01	1.346040e+02
1.000000e-06	2.693567e-06	2.274268e-09	1.921822e+01	1.483150e+02
1.010000e-06	2.836888e-06	2.472700e-09	2.024080e+01	1.613874e+02
1.020000e-06	2.979044e-06	2.658624e-09	2.125506e+01	1.737842e+02
1.030000e-06	3.120007e-06	2.830850e-09	2.226081e+01	1.854952e+02
1.040000e-06	3.259724e-06	2.996230e-09	2.325767e+01	1.965334e+02
1.050000e-06	3.398152e-06	3.154010e-09	2.424534e+01	2.069305e+02
1.060000e-06	3.535243e-06	3.305313e-09	2.522346e+01	2.167303e+02
1.070000e-06	3.670912e-06	3.447508e-09	2.619144e+01	2.259835e+02
1.080000e-06	3.805226e-06	3.583068e-09	2.714976e+01	2.347413e+02
1.090000e-06	3.938249e-06	3.711927e-09	2.809885e+01	2.430519e+02
1.100000e-06	4.069885e-06	3.834645e-09	2.903806e+01	2.509564e+02
1.110000e-06	4.200043e-06	3.954306e-09	2.996671e+01	2.584882e+02
1.120000e-06	4.328711e-06	4.066318e-09	3.088475e+01	2.656724e+02
1.130000e-06	4.455837e-06	4.168238e-09	3.179177e+01	2.725275e+02
1.140000e-06	4.581430e-06	4.261417e-09	3.268786e+01	2.790675e+02
1.150000e-06	4.705528e-06	4.352316e-09	3.357328e+01	2.853040e+02
1.160000e-06	4.828024e-06	4.442797e-09	3.444727e+01	2.912492e+02
1.170000e-06	4.948763e-06	4.528188e-09	3.530873e+01	2.969170e+02
1.180000e-06	5.067696e-06	4.608846e-09	3.615730e+01	3.023245e+02
1.190000e-06	5.184796e-06	4.687437e-09	3.699279e+01	3.074918e+02
1.200000e-06	5.299914e-06	4.767048e-09	3.781414e+01	3.124408e+02
1.210000e-06	5.412923e-06	4.845635e-09	3.862044e+01	3.171941e+02
1.220000e-06	5.523901e-06	4.918233e-09	3.941225e+01	3.217728e+02
1.230000e-06	5.632955e-06	4.982534e-09	4.019034e+01	3.261944e+02
1.240000e-06	5.740055e-06	5.041251e-09	4.095449e+01	3.304715e+02
1.250000e-06	5.844983e-06	5.098479e-09	4.170313e+01	3.346102e+02
1.260000e-06	5.947713e-06	5.158357e-09	4.243610e+01	3.386108e+02
1.270000e-06	6.048379e-06	5.217721e-09	4.315434e+01	3.424679e+02
1.280000e-06	6.146834e-06	5.272942e-09	4.385680e+01	3.461721e+02
1.290000e-06	6.242856e-06	5.326568e-09	4.454190e+01	3.497123e+02
1.300000e-06	6.336602e-06	5.380227e-09	4.521076e+01	3.530776e+02
1.310000e-06	6.428217e-06	5.430557e-09	4.586442e+01	3.562599e+02
1.320000e-06	6.517483e-06	5.474523e-09	4.650133e+01	3.592555e+02
1.330000e-06	6.604397e-06	5.515235e-09	4.712145e+01	3.620661e+02
1.340000e-06	6.689041e-06	5.552020e-09	4.772537e+01	3.646992e+02
1.350000e-06	6.771331e-06	5.588347e-09	4.831250e+01	3.671672e+02
1.360000e-06	6.851145e-06	5.626408e-09	4.888196e+01	3.694863e+02
1.370000e-06	6.928439e-06	5.661876e-09	4.943344e+01	3.716746e+02
1.380000e-06	7.003076e-06	5.693717e-09	4.996596e+01	3.737497e+02
1.390000e-06	7.075056e-06	5.724828e-09	5.047953e+01	3.757270e+02
1.400000e-06	7.144578e-06	5.755700e-09	5.097556e+01	3.776181e+02
1.410000e-06	7.211522e-06	5.784348e-09	5.145320e+01	3.794296e+02
1.420000e-06	7.275794e-06	5.809709e-09	5.191177e+01	3.811633e+02
1.430000e-06	7.337632e-06	5.831993e-09	5.235297e+01	3.828161e+02
1.440000e-06	7.397038e-06	5.853101e-09	5.277683e+01	3.843821e+02
1.450000e-06	7.453773e-06	5.873091e-09	5.318162e+01	3.858537e+02
1.460000e-06	7.507805e-06	5.892090e-09	5.356714e+01	3.872235e+02
1.470000e-06	7.558884e-06	5.910095e-09	5.393158e+01	3.884858e+02
1.480000e-06	7.606891e-06	5.927707e-09	5.427410e+01	3.896385e+02
1.490000e-06	7.652137e-06	5.944115e-09	5.459692e+01	3.906832e+02
1.500000e-06	7.694643e-06	5.958210e-09	5.490020e+01	3.916254e+02
1.510000e-06	7.734334e-06	5.972720e-09	5.518339e+01	3.924739e+02
1.520000e-06	7.771384e-06	5.987653e-09	5.544774e+01	3.932395e+02
1.530000e-06	7.805722e-06	6.001135e-09	5.569273e+01	3.939337e+02
1.540000e-06	7.837177e-06	6.012139e-09	5.591716e+01	3.945667e+02
1.550000e-06	7.865936e-06	6.018635e-09	5.612235e+01	3.951463e+02
1.560000e-06	7.891877e-06	6.024957e-09	5.630744e+01	3.956767e+02
1.570000e-06	7.914830e-06	6.033116e-09	5.647120e+01	3.961581e+02
1.580000e-06	7.935099e-06	6.040779e-09	5.661582e+01	3.965869e+02
1.590000e-06	7.952605e-06	6.045417e-09	5.674072e+01	3.969564e+02
1.600000e-06	7.967115e-06	6.047179e-09	5.684425e+01	3.972581e+02
1.610000e-06	7.978522e-06	6.049759e-09	5.692563e+01	3.974834e+02
1.620000e-06	7.986791e-06	6.052375e-09	5.698463e+01	3.976246e+02
1.630000e-06	7.992183e-06	6.055232e-09	5.702311e+01	3.976770e+02
1.640000e-06	7.994761e-06	6.059188e-09	5.704150e+01	3.976392e+02
1.650000e-06	7.994518e-06	6.060024e-09	5.703976e+01	3.975137e+02
1.660000e-06	7.991666e-06	6.054065e-09	5.701941e+01	3.973068e+02
1.670000e-06	7.986149e-06	6.049292e-09	5.698005e+01	3.970273e+02
1.680000e-06	7.977916e-06	6.043287e-09	5.692131e+01	3.966862e+02
1.690000e-06	7.967023e-06	6.036432e-09	5.684359e+01	3.962943e+02
1.700000e-06	7.953305e-06	6.030378e-09	5.674572e+01	3.958613e+02
1.710000e-06	7.936839e-06	6.026876e-09	5.662823e+01	3.953946e+02
1.720000e-06	7.918032e-06	6.028174e-09	5.649404e+01	3.948982e+02
1.730000e-06	7.896911e-06	5.958560e-09	5.634335e+01	3.943725e+02
1.740000e-06	7.872848e-06	5.946410e-09	5.617167e+01	3.938142e+02
1.750000e-06	7.845222e-06	5.963747e-09	5.597456e+01	3.932176e+02
1.760000e-06	7.814023e-06	5.957847e-09	5.575196e+01	3.925746e+02
1.770000e-06	7.780015e-06	5.960420e-09	5.550932e+01	3.918766e+02
1.780000e-06	7.743738e-06	6.004834e-09	5.525048e+01	3.911154e+02
1.790000e-06	7.705113e-06	5.986833e-09	5.497490e+01	3.902841e+02
1.800000e-06	7.664400e-06	5.865680e-09	5.468442e+01	3.893777e+02
1.810000e-06	7.621459e-06	5.943609e-09	5.437804e+01	3.883932e+02
1.820000e-06	7.575852e-06	5.877301e-09	5.405264e+01	3.873298e+02
1.830000e-06	7.527635e-06	5.878790e-09	5.370862e+01	3.861881e+02
1.840000e-06	7.476500e-06	5.927730e-09	5.334378e+01	3.849694e+02
1.850000e-06	7.422355e-06	5.845946e-09	5.295746e+01	3.836752e+02
1.860000e-06	7.365417e-06	5.879735e-09	5.255122e+01	3.823061e+02
1.870000e-06	7.305828e-06	5.763118e-09	5.212606e+01	3.808618e+02
1.880000e-06	7.243646e-06	5.779908e-09	5.168240e+01	3.793407e+02
1.890000e-06	7.178663e-06	5.786140e-09	5.121875e+01	3.777399e+02
1.900000e-06	7.110860e-06	5.701140e-09	5.073499e+01	3.760561e+02
1.910000e-06	7.040195e-06	5.726489e-09	5.023080e+01	3.742860e+02
1.920000e-06	6.966802e-06	5.673467e-09	4.970716e+01	3.724268e+02
1.930000e-06	6.890790e-06	5.658273e-09	4.916482e+01	3.704774e+02
1.940000e-06	6.812021e-06	5.577541e-09	4.860281e+01	3.684378e+02
1.950000e-06	6.730642e-06	5.563968e-09	4.802218e+01	3.663102e+02
1.960000e-06	6.646786e-06	5.564138e-09	4.742389e+01	3.640980e+02
1.970000e-06	6.560507e-06	5.493484e-09	4.680829e+01	3.618057e+02
1.980000e-06	6.471823e-06	5.493562e-09	4.617555e+01	3.594379e+02
1.990000e-06	6.380850e-06	5.451445e-09	4.552647e+01	3.569982e+02
2.000000e-06	6.287700e-06	5.414768e-09	4.486186e+01	3.544889e+02
2.010000e-06	6.192275e-06	5.331285e-09	4.418101e+01	3.519101e+02
2.020000e-06	6.094553e-06	5.315067e-09	4.348378e+01	3.492596e+02
2.030000e-06	5.994658e-06	5.295863e-09	4.277104e+01	3.465328e+02
2.040000e-06	5.892693e-06	5.251074e-09	4.204354e+01	3.437234e+02
2.050000e-06	5.788611e-06	5.204701e-09	4.130093e+01	3.408241e+02
2.060000e-06	5.682465e-06	5.151836e-09	4.054359e+01	3.378279e+02
2.070000e-06	5.574418e-06	5.104652e-09	3.977269e+01	3.347285e+02
2.080000e-06	5.464454e-06	5.029400e-09	3.898812e+01	3.315216e+02
2.090000e-06	5.352469e-06	4.995560e-09	3.818911e+01	3.282055e+02
2.100000e-06	5.238473e-06	4.951323e-09	3.737577e+01	3.247805e+02
2.110000e-06	5.122534e-06	4.905284e-09	3.654856e+01	3.212496e+02
2.120000e-06	5.004620e-06	4.845330e-09	3.570726e+01	3.176168e+02
2.130000e-06	4.884797e-06	4.794710e-09	3.485234e+01	3.138868e+02
2.140000e-06	4.763137e-06	4.732685e-09	3.398432e+01	3.100633e+02
2.150000e-06	4.639755e-06	4.667947e-09	3.310400e+01	3.061486e+02
2.160000e-06	4.514677e-06	4.610244e-09	3.221158e+01	3.021422e+02
2.170000e-06	4.387923e-06	4.555358e-09	3.130722e+01	2.980406e+02
2.180000e-06	4.259552e-06	4.498283e-09	3.039130e+01	2.938375e+02
2.190000e-06	4.129532e-06	4.429729e-09	2.946363e+01	2.895246e+02
2.200000e-06	3.998063e-06	4.358726e-09	2.852562e+01	2.850918e+02
2.210000e-06	3.865122e-06	4.278282e-09	2.757711e+01	2.805294e+02
2.220000e-06	3.730666e-06	4.206655e-09	2.661778e+01	2.758284e+02
2.230000e-06	3.594879e-06	4.140058e-09	2.564896e+01	2.709822e+02
2.240000e-06	3.457695e-06	4.072935e-09	2.467017e+01	2.659870e+02
2.250000e-06	3.319121e-06	3.996176e-09	2.368146e+01	2.608419e+02
2.260000e-06	3.179330e-06	3.914477e-09	2.268407e+01	2.555485e+02
2.270000e-06	3.038269e-06	3.825008e-09	2.167762e+01	2.501100e+02
2.280000e-06	2.895959e-06	3.734518e-09	2.066226e+01	2.445299e+02
2.290000e-06	2.752577e-06	3.648610e-09	1.963925e+01	2.388101e+02
2.300000e-06	2.608267e-06	3.564303e-09	1.860962e+01	2.329500e+02
2.310000e-06	2.463048e-06	3.474542e-09	1.757350e+01	2.269451e+02
2.320000e-06	2.316963e-06	3.379958e-09	1.653120e+01	2.207865e+02
2.330000e-06	2.170104e-06	3.284122e-09	1.548339e+01	2.144611e+02
2.340000e-06	2.022528e-06	3.185309e-09	1.443045e+01	2.079524e+02
2.350000e-06	1.874326e-06	3.080378e-09	1.337305e+01	2.012418e+02
2.360000e-06	1.725525e-06	2.973300e-09	1.231138e+01	1.943108e+02
2.370000e-06	1.576102e-06	2.866416e-09	1.124527e+01	1.871423e+02
2.380000e-06	1.426094e-06	2.756890e-09	1.017498e+01	1.797226e+02
2.390000e-06	1.275612e-06	2.641162e-09	9.101312e+00	1.720422e+02
2.400000e-06	1.124761e-06	2.517256e-09	8.025013e+00	1.640960e+02
2.410000e-06	9.735903e-07	2.388384e-09	6.946430e+00	1.558826e+02
2.420000e-06	8.221361e-07	2.258401e-09	5.865826e+00	1.474026e+02
2.430000e-06	6.704376e-07	2.130014e-09	4.783478e+00	1.386560e+02
2.440000e-06	5.185334e-07	2.000207e-09	3.699663e+00	1.296397e+02
2.450000e-06	3.663983e-07	1.864225e-09	2.614200e+00	1.203445e+02
2.460000e-06	2.140641e-07	1.718494e-09	1.527317e+00	1.107529e+02
2.470000e-06	6.163568e-08	1.562346e-09	4.397619e-01	1.008381e+02
2.480000e-06	-9.089173e-08	1.398146e-09	-6.484997e-01	9.056406e+01
2.490000e-06	-2.434302e-07	1.231943e-09	-1.736840e+00	7.988749e+01
2.500000e-06	-3.958886e-07	1.063380e-09	-2.824609e+00	6.876109e+01
2.510000e-06	-5.481696e-07	8.893673e-10	-3.911113e+00	5.713852e+01
2.520000e-06	-7.003148e-07	7.073202e-10	-4.996648e+00	4.498022e+01
2.530000e-06	-8.522643e-07	5.142396e-10	-6.080786e+00	3.225956e+01
2.540000e-06	-1.003833e-06	3.126299e-10	-7.162211e+00	1.896879e+01
2.550000e-06	-1.155046e-06	1.022350e-10	-8.241094e+00	5.123762e+00
2.560000e-06	-1.305832e-06	-1.172282e-10	-9.316926e+00	-9.232845e+00
2.570000e-06	-1.456158e-06	-3.433451e-10	-1.038948e+01	-2.403063e+01
2.580000e-06	-1.606001e-06	-5.743451e-10	-1.145859e+01	-3.917291e+01
2.590000e-06	-1.755296e-06	-8.099727e-10	-1.252379e+01	-5.454063e+01
2.600000e-06	-1.903897e-06	-1.050536e-09	-1.358404e+01	-6.999839e+01
2.610000e-06	-2.051710e-06	-1.291151e-09	-1.463866e+01	-8.540201e+01
2.620000e-06	-2.198821e-06	-1.527799e-09	-1.568828e+01	-1.006071e+02
2.630000e-06	-2.345136e-06	-1.757483e-09	-1.673222e+01	-1.154774e+02
2.640000e-06	-2.490558e-06	-1.978281e-09	-1.776978e+01	-1.298926e+02
2.650000e-06	-2.635010e-06	-2.189979e-09	-1.880043e+01	-1.437547e+02
2.660000e-06	-2.778397e-06	-2.390099e-09	-1.982347e+01	-1.569918e+02
2.670000e-06	-2.920714e-06	-2.580466e-09	-2.083888e+01	-1.695600e+02
2.680000e-06	-3.061891e-06	-2.761041e-09	-2.184616e+01	-1.814426e+02
2.690000e-06	-3.201765e-06	-2.931506e-09	-2.284415e+01	-1.926472e+02
2.700000e-06	-3.340371e-06	-3.092576e-09	-2.383308e+01	-2.032013e+02
2.710000e-06	-3.477792e-06	-3.242286e-09	-2.481356e+01	-2.131464e+02
2.720000e-06	-3.613899e-06	-3.385363e-09	-2.578466e+01	-2.225318e+02
2.730000e-06	-3.748634e-06	-3.523458e-09	-2.674598e+01	-2.314093e+02
2.740000e-06	-3.882042e-06	-3.655618e-09	-2.769782e+01	-2.398281e+02
2.750000e-06	-4.014101e-06	-3.780034e-09	-2.864005e+01	-2.478312e+02
2.760000e-06	-4.144720e-06	-3.896515e-09	-2.957199e+01	-2.554540e+02
2.770000e-06	-4.273954e-06	-4.007035e-09	-3.049407e+01	-2.627236e+02
2.780000e-06	-4.401761e-06	-4.112287e-09	-3.140595e+01	-2.696601e+02
2.790000e-06	-4.527978e-06	-4.212350e-09	-3.230649e+01	-2.762782e+02
2.800000e-06	-4.652614e-06	-4.305668e-09	-3.319575e+01	-2.825900e+02
2.810000e-06	-4.775611e-06	-4.394408e-09	-3.407331e+01	-2.886073e+02
2.820000e-06	-4.896902e-06	-4.480714e-09	-3.493871e+01	-2.943435e+02
2.830000e-06	-5.016433e-06	-4.564300e-09	-3.579155e+01	-2.998148e+02
2.840000e-06	-5.133998e-06	-4.645088e-09	-3.663036e+01	-3.050406e+02
2.850000e-06	-5.249434e-06	-4.722346e-09	-3.745398e+01	-3.100426e+02
2.860000e-06	-5.362693e-06	-4.796061e-09	-3.826207e+01	-3.148433e+02
2.870000e-06	-5.473777e-06	-4.869367e-09	-3.905463e+01	-3.194643e+02
2.880000e-06	-5.582825e-06	-4.943773e-09	-3.983267e+01	-3.239243e+02
2.890000e-06	-5.690051e-06	-5.014907e-09	-4.059771e+01	-3.282372e+02
2.900000e-06	-5.795331e-06	-5.078607e-09	-4.134887e+01	-3.324108e+02
2.910000e-06	-5.898458e-06	-5.137917e-09	-4.208467e+01	-3.364467e+02
2.920000e-06	-5.999316e-06	-5.195993e-09	-4.280427e+01	-3.403409e+02
2.930000e-06	-6.098002e-06	-5.253797e-09	-4.350838e+01	-3.440849e+02
2.940000e-06	-6.194649e-06	-5.310013e-09	-4.419795e+01	-3.476677e+02
