# Temperatura_=_49.89
# Concentracion g/m^3_=_5000.0
# C_Vs_to_Am_M_A/Vsm_=_65563218390.804596
# pendiente_HvsI_1/m_=_3716.3
# ordenada_HvsI_A/m_=_1297.0
# frecuencia_Hz_=_302569.1323971777

Tiempo_(s)	Campo_(V.s)	Magnetizacion_(V.s)	Campo_(kA/m)	Magnetizacion_(A/m)
0.000000e+00	-7.980146e-06	-5.986500e-09	-5.685242e+01	-3.916635e+02
1.000000e-08	-7.977299e-06	-5.982704e-09	-5.683214e+01	-3.914401e+02
2.000000e-08	-7.971766e-06	-5.978862e-09	-5.679272e+01	-3.911338e+02
3.000000e-08	-7.963648e-06	-5.972596e-09	-5.673489e+01	-3.907564e+02
4.000000e-08	-7.952756e-06	-5.965684e-09	-5.665729e+01	-3.903223e+02
5.000000e-08	-7.938844e-06	-5.959470e-09	-5.655818e+01	-3.898461e+02
6.000000e-08	-7.922030e-06	-5.955511e-09	-5.643839e+01	-3.893414e+02
7.000000e-08	-7.902789e-06	-5.951319e-09	-5.630132e+01	-3.888193e+02
8.000000e-08	-7.881250e-06	-5.943195e-09	-5.614786e+01	-3.882865e+02
9.000000e-08	-7.856808e-06	-5.939060e-09	-5.597373e+01	-3.877455e+02
1.000000e-07	-7.829131e-06	-5.976214e-09	-5.577656e+01	-3.871936e+02
1.100000e-07	-7.798458e-06	-5.957185e-09	-5.555804e+01	-3.866241e+02
1.200000e-07	-7.765014e-06	-5.904331e-09	-5.531977e+01	-3.860261e+02
1.300000e-07	-7.728882e-06	-5.876748e-09	-5.506236e+01	-3.853868e+02
1.400000e-07	-7.690372e-06	-5.866942e-09	-5.478801e+01	-3.846920e+02
1.500000e-07	-7.649760e-06	-5.850052e-09	-5.449868e+01	-3.839281e+02
1.600000e-07	-7.606787e-06	-5.793137e-09	-5.419252e+01	-3.830828e+02
1.700000e-07	-7.561089e-06	-5.892223e-09	-5.386696e+01	-3.821463e+02
1.800000e-07	-7.512626e-06	-5.817141e-09	-5.352170e+01	-3.811115e+02
1.900000e-07	-7.461203e-06	-5.770127e-09	-5.315535e+01	-3.799747e+02
2.000000e-07	-7.406862e-06	-5.805634e-09	-5.276821e+01	-3.787350e+02
2.100000e-07	-7.349799e-06	-5.689733e-09	-5.236168e+01	-3.773938e+02
2.200000e-07	-7.290026e-06	-5.721895e-09	-5.193585e+01	-3.759544e+02
2.300000e-07	-7.227695e-06	-5.695626e-09	-5.149179e+01	-3.744212e+02
2.400000e-07	-7.162620e-06	-5.670183e-09	-5.102817e+01	-3.727989e+02
2.500000e-07	-7.094729e-06	-5.659329e-09	-5.054450e+01	-3.710923e+02
2.600000e-07	-7.024190e-06	-5.625658e-09	-5.004197e+01	-3.693057e+02
2.700000e-07	-6.950884e-06	-5.604883e-09	-4.951972e+01	-3.674424e+02
2.800000e-07	-6.874795e-06	-5.567647e-09	-4.897765e+01	-3.655050e+02
2.900000e-07	-6.795913e-06	-5.570313e-09	-4.841567e+01	-3.634953e+02
3.000000e-07	-6.714304e-06	-5.515209e-09	-4.783427e+01	-3.614141e+02
3.100000e-07	-6.630361e-06	-5.480067e-09	-4.723624e+01	-3.592615e+02
3.200000e-07	-6.544198e-06	-5.465109e-09	-4.662239e+01	-3.570370e+02
3.300000e-07	-6.455656e-06	-5.396154e-09	-4.599160e+01	-3.547392e+02
3.400000e-07	-6.364756e-06	-5.362586e-09	-4.534401e+01	-3.523663e+02
3.500000e-07	-6.271641e-06	-5.323592e-09	-4.468064e+01	-3.499159e+02
3.600000e-07	-6.176269e-06	-5.293473e-09	-4.400119e+01	-3.473848e+02
3.700000e-07	-6.078580e-06	-5.251048e-09	-4.330523e+01	-3.447698e+02
3.800000e-07	-5.978653e-06	-5.211121e-09	-4.259332e+01	-3.420673e+02
3.900000e-07	-5.876571e-06	-5.185402e-09	-4.186606e+01	-3.392739e+02
4.000000e-07	-5.772447e-06	-5.137528e-09	-4.112426e+01	-3.363868e+02
4.100000e-07	-5.666282e-06	-5.083234e-09	-4.036792e+01	-3.334036e+02
4.200000e-07	-5.558080e-06	-5.023528e-09	-3.959706e+01	-3.303232e+02
4.300000e-07	-5.447987e-06	-4.994268e-09	-3.881273e+01	-3.271452e+02
4.400000e-07	-5.335952e-06	-4.944862e-09	-3.801457e+01	-3.238705e+02
4.500000e-07	-5.221773e-06	-4.888175e-09	-3.720113e+01	-3.205004e+02
4.600000e-07	-5.105504e-06	-4.839272e-09	-3.637280e+01	-3.170367e+02
4.700000e-07	-4.987384e-06	-4.785018e-09	-3.553129e+01	-3.134807e+02
4.800000e-07	-4.867414e-06	-4.718487e-09	-3.467659e+01	-3.098332e+02
4.900000e-07	-4.745654e-06	-4.656220e-09	-3.380915e+01	-3.060933e+02
5.000000e-07	-4.622182e-06	-4.609389e-09	-3.292950e+01	-3.022586e+02
5.100000e-07	-4.497051e-06	-4.547994e-09	-3.203804e+01	-2.983248e+02
5.200000e-07	-4.370328e-06	-4.482359e-09	-3.113524e+01	-2.942861e+02
5.300000e-07	-4.241990e-06	-4.417121e-09	-3.022092e+01	-2.901352e+02
5.400000e-07	-4.112123e-06	-4.353296e-09	-2.929572e+01	-2.858646e+02
5.500000e-07	-3.980707e-06	-4.282683e-09	-2.835949e+01	-2.814668e+02
5.600000e-07	-3.847768e-06	-4.213789e-09	-2.741240e+01	-2.769355e+02
5.700000e-07	-3.713380e-06	-4.146241e-09	-2.645498e+01	-2.722664e+02
5.800000e-07	-3.577587e-06	-4.067139e-09	-2.548756e+01	-2.674571e+02
5.900000e-07	-3.440449e-06	-3.984041e-09	-2.451056e+01	-2.625078e+02
6.000000e-07	-3.301885e-06	-3.904796e-09	-2.352340e+01	-2.574204e+02
6.100000e-07	-3.161835e-06	-3.830441e-09	-2.252565e+01	-2.521983e+02
6.200000e-07	-3.020434e-06	-3.749935e-09	-2.151828e+01	-2.468446e+02
6.300000e-07	-2.877883e-06	-3.670765e-09	-2.050271e+01	-2.413614e+02
6.400000e-07	-2.734218e-06	-3.589282e-09	-1.947921e+01	-2.357485e+02
6.500000e-07	-2.589462e-06	-3.502416e-09	-1.844793e+01	-2.300019e+02
6.600000e-07	-2.443793e-06	-3.413443e-09	-1.741015e+01	-2.241139e+02
6.700000e-07	-2.297326e-06	-3.320620e-09	-1.636668e+01	-2.180724e+02
6.800000e-07	-2.150134e-06	-3.222011e-09	-1.531806e+01	-2.118619e+02
6.900000e-07	-2.002258e-06	-3.115653e-09	-1.426455e+01	-2.054643e+02
7.000000e-07	-1.853721e-06	-3.011693e-09	-1.320634e+01	-1.988606e+02
7.100000e-07	-1.704660e-06	-2.906350e-09	-1.214440e+01	-1.920324e+02
7.200000e-07	-1.555149e-06	-2.797008e-09	-1.107925e+01	-1.849638e+02
7.300000e-07	-1.405191e-06	-2.683142e-09	-1.001091e+01	-1.776424e+02
7.400000e-07	-1.254728e-06	-2.568986e-09	-8.938973e+00	-1.700603e+02
7.500000e-07	-1.103669e-06	-2.453483e-09	-7.862797e+00	-1.622136e+02
7.600000e-07	-9.521568e-07	-2.334440e-09	-6.783387e+00	-1.541017e+02
7.700000e-07	-8.003138e-07	-2.213459e-09	-5.701622e+00	-1.457252e+02
7.800000e-07	-6.482191e-07	-2.082022e-09	-4.618064e+00	-1.370837e+02
7.900000e-07	-4.959446e-07	-1.940081e-09	-3.533225e+00	-1.281730e+02
8.000000e-07	-3.434901e-07	-1.791609e-09	-2.447104e+00	-1.189825e+02
8.100000e-07	-1.909065e-07	-1.643863e-09	-1.360062e+00	-1.094934e+02
8.200000e-07	-3.820472e-08	-1.493382e-09	-2.721793e-01	-9.967758e+01
8.300000e-07	1.145923e-07	-1.334702e-09	8.163820e-01	-8.949831e+01
8.400000e-07	2.673912e-07	-1.169581e-09	1.904958e+00	-7.891193e+01
8.500000e-07	4.200756e-07	-9.999848e-10	2.992717e+00	-6.787144e+01
8.600000e-07	5.726637e-07	-8.273582e-10	4.079790e+00	-5.633123e+01
8.700000e-07	7.251524e-07	-6.469330e-10	5.166155e+00	-4.425273e+01
8.800000e-07	8.774335e-07	-4.581868e-10	6.251041e+00	-3.161040e+01
8.900000e-07	1.029443e-06	-2.600908e-10	7.333991e+00	-1.839734e+01
9.000000e-07	1.181069e-06	-5.364000e-11	8.414210e+00	-4.629964e+00
9.100000e-07	1.332197e-06	1.610559e-10	9.490885e+00	9.648986e+00
9.200000e-07	1.482698e-06	3.845864e-10	1.056308e+01	2.436950e+01
9.300000e-07	1.632579e-06	6.147531e-10	1.163087e+01	3.943564e+01
9.400000e-07	1.781969e-06	8.488322e-10	1.269516e+01	5.472928e+01
9.500000e-07	1.930885e-06	1.083690e-09	1.375608e+01	7.011585e+01
9.600000e-07	2.079224e-06	1.319872e-09	1.481288e+01	8.545169e+01
9.700000e-07	2.226779e-06	1.551826e-09	1.586409e+01	1.005923e+02
9.800000e-07	2.373329e-06	1.775187e-09	1.690815e+01	1.154009e+02
9.900000e-07	2.518961e-06	1.989429e-09	1.794567e+01	1.297556e+02
1.000000e-06	2.663782e-06	2.194646e-09	1.897741e+01	1.435566e+02
1.010000e-06	2.807553e-06	2.394872e-09	2.000166e+01	1.567295e+02
1.020000e-06	2.950177e-06	2.584050e-09	2.101775e+01	1.692284e+02
1.030000e-06	3.091688e-06	2.758462e-09	2.202590e+01	1.810345e+02
1.040000e-06	3.232001e-06	2.923504e-09	2.302553e+01	1.921543e+02
1.050000e-06	3.370905e-06	3.080326e-09	2.401512e+01	2.026152e+02
1.060000e-06	3.508455e-06	3.231069e-09	2.499505e+01	2.124594e+02
1.070000e-06	3.644746e-06	3.374192e-09	2.596602e+01	2.217383e+02
1.080000e-06	3.779603e-06	3.511161e-09	2.692677e+01	2.305065e+02
1.090000e-06	3.913067e-06	3.640632e-09	2.787760e+01	2.388165e+02
1.100000e-06	4.045232e-06	3.762731e-09	2.881918e+01	2.467150e+02
1.110000e-06	4.175891e-06	3.880091e-09	2.975002e+01	2.542404e+02
1.120000e-06	4.305075e-06	3.990388e-09	3.067036e+01	2.614221e+02
1.130000e-06	4.432791e-06	4.091776e-09	3.158024e+01	2.682814e+02
1.140000e-06	4.558948e-06	4.185906e-09	3.247901e+01	2.748329e+02
1.150000e-06	4.683659e-06	4.277206e-09	3.336748e+01	2.810873e+02
1.160000e-06	4.806743e-06	4.367624e-09	3.424436e+01	2.870536e+02
1.170000e-06	4.928082e-06	4.454599e-09	3.510881e+01	2.927420e+02
1.180000e-06	5.047617e-06	4.537518e-09	3.596040e+01	2.981651e+02
1.190000e-06	5.165282e-06	4.616494e-09	3.679868e+01	3.033388e+02
1.200000e-06	5.281033e-06	4.693699e-09	3.762331e+01	3.082822e+02
1.210000e-06	5.394732e-06	4.770542e-09	3.843333e+01	3.130165e+02
1.220000e-06	5.506360e-06	4.843604e-09	3.922860e+01	3.175630e+02
1.230000e-06	5.616043e-06	4.909121e-09	4.001000e+01	3.219417e+02
1.240000e-06	5.723772e-06	4.966690e-09	4.077749e+01	3.261688e+02
1.250000e-06	5.829388e-06	5.023628e-09	4.152992e+01	3.302554e+02
1.260000e-06	5.932806e-06	5.081588e-09	4.226670e+01	3.342065e+02
1.270000e-06	6.034087e-06	5.139552e-09	4.298825e+01	3.380214e+02
1.280000e-06	6.133164e-06	5.194938e-09	4.369410e+01	3.416938e+02
1.290000e-06	6.229841e-06	5.247849e-09	4.438284e+01	3.452143e+02
1.300000e-06	6.324225e-06	5.299319e-09	4.505526e+01	3.485716e+02
1.310000e-06	6.416470e-06	5.346946e-09	4.571243e+01	3.517554e+02
1.320000e-06	6.506448e-06	5.389652e-09	4.635346e+01	3.547581e+02
1.330000e-06	6.594016e-06	5.430520e-09	4.697731e+01	3.575767e+02
1.340000e-06	6.679267e-06	5.469746e-09	4.758466e+01	3.602136e+02
1.350000e-06	6.762220e-06	5.505958e-09	4.817564e+01	3.626769e+02
1.360000e-06	6.842697e-06	5.540817e-09	4.874897e+01	3.649797e+02
1.370000e-06	6.920685e-06	5.574786e-09	4.930458e+01	3.671384e+02
1.380000e-06	6.996073e-06	5.607505e-09	4.984166e+01	3.691714e+02
1.390000e-06	7.068724e-06	5.639518e-09	5.035924e+01	3.710963e+02
1.400000e-06	7.138810e-06	5.670063e-09	5.085855e+01	3.729289e+02
1.410000e-06	7.206445e-06	5.697832e-09	5.134039e+01	3.746807e+02
1.420000e-06	7.271492e-06	5.721312e-09	5.180380e+01	3.763586e+02
1.430000e-06	7.333987e-06	5.742128e-09	5.224903e+01	3.779647e+02
1.440000e-06	7.394059e-06	5.763250e-09	5.267700e+01	3.794965e+02
1.450000e-06	7.451493e-06	5.785060e-09	5.308618e+01	3.809485e+02
1.460000e-06	7.506237e-06	5.805389e-09	5.347619e+01	3.823134e+02
1.470000e-06	7.558090e-06	5.821342e-09	5.384560e+01	3.835841e+02
1.480000e-06	7.606802e-06	5.836784e-09	5.419263e+01	3.847553e+02
1.490000e-06	7.652693e-06	5.854419e-09	5.451957e+01	3.858247e+02
1.500000e-06	7.695992e-06	5.871229e-09	5.482805e+01	3.867935e+02
1.510000e-06	7.736474e-06	5.885964e-09	5.511645e+01	3.876667e+02
1.520000e-06	7.774162e-06	5.899537e-09	5.538495e+01	3.884525e+02
1.530000e-06	7.809226e-06	5.911711e-09	5.563475e+01	3.891609e+02
1.540000e-06	7.841458e-06	5.920990e-09	5.586438e+01	3.898023e+02
1.550000e-06	7.870894e-06	5.927733e-09	5.607408e+01	3.903861e+02
1.560000e-06	7.897602e-06	5.934851e-09	5.626436e+01	3.909189e+02
1.570000e-06	7.921320e-06	5.943673e-09	5.643333e+01	3.914041e+02
1.580000e-06	7.942218e-06	5.952838e-09	5.658222e+01	3.918407e+02
1.590000e-06	7.960428e-06	5.959976e-09	5.671195e+01	3.922240e+02
1.600000e-06	7.975665e-06	5.964703e-09	5.682050e+01	3.925462e+02
1.610000e-06	7.987838e-06	5.967829e-09	5.690722e+01	3.927978e+02
1.620000e-06	7.996881e-06	5.969345e-09	5.697165e+01	3.929687e+02
1.630000e-06	8.002952e-06	5.970153e-09	5.701490e+01	3.930507e+02
1.640000e-06	8.006246e-06	5.971211e-09	5.703836e+01	3.930382e+02
1.650000e-06	8.006686e-06	5.969814e-09	5.704150e+01	3.929296e+02
1.660000e-06	8.004425e-06	5.968436e-09	5.702539e+01	3.927280e+02
1.670000e-06	7.999524e-06	5.960909e-09	5.699048e+01	3.924409e+02
1.680000e-06	7.991912e-06	5.956513e-09	5.693625e+01	3.920796e+02
1.690000e-06	7.981628e-06	5.952688e-09	5.686298e+01	3.916578e+02
1.700000e-06	7.968480e-06	5.946533e-09	5.676931e+01	3.911903e+02
1.710000e-06	7.952596e-06	5.939331e-09	5.665615e+01	3.906911e+02
1.720000e-06	7.934428e-06	5.926374e-09	5.652671e+01	3.901720e+02
1.730000e-06	7.913988e-06	5.912634e-09	5.638110e+01	3.896410e+02
1.740000e-06	7.890670e-06	5.876902e-09	5.621497e+01	3.891017e+02
1.750000e-06	7.863823e-06	5.848382e-09	5.602371e+01	3.885525e+02
1.760000e-06	7.833357e-06	5.867167e-09	5.580667e+01	3.879878e+02
1.770000e-06	7.799892e-06	5.882089e-09	5.556825e+01	3.873976e+02
1.780000e-06	7.764132e-06	5.883012e-09	5.531349e+01	3.867694e+02
1.790000e-06	7.726029e-06	5.872224e-09	5.504204e+01	3.860894e+02
1.800000e-06	7.685799e-06	5.883790e-09	5.475543e+01	3.853436e+02
1.810000e-06	7.643523e-06	5.799111e-09	5.445424e+01	3.845192e+02
1.820000e-06	7.598598e-06	5.827760e-09	5.413419e+01	3.836057e+02
1.830000e-06	7.550974e-06	5.870470e-09	5.379490e+01	3.825955e+02
1.840000e-06	7.500414e-06	5.820068e-09	5.343470e+01	3.814840e+02
1.850000e-06	7.446791e-06	5.884579e-09	5.305268e+01	3.802695e+02
1.860000e-06	7.390432e-06	5.786904e-09	5.265116e+01	3.789529e+02
1.870000e-06	7.331348e-06	5.761290e-09	5.223024e+01	3.775372e+02
1.880000e-06	7.269652e-06	5.750954e-09	5.179070e+01	3.760265e+02
1.890000e-06	7.205215e-06	5.690688e-09	5.133163e+01	3.744256e+02
1.900000e-06	7.137966e-06	5.697367e-09	5.085254e+01	3.727392e+02
1.910000e-06	7.067950e-06	5.637533e-09	5.035372e+01	3.709717e+02
1.920000e-06	6.995140e-06	5.653715e-09	4.983501e+01	3.691269e+02
1.930000e-06	6.919675e-06	5.584667e-09	4.929738e+01	3.672073e+02
1.940000e-06	6.841392e-06	5.554198e-09	4.873967e+01	3.652151e+02
1.950000e-06	6.760470e-06	5.553001e-09	4.816316e+01	3.631512e+02
1.960000e-06	6.677159e-06	5.483128e-09	4.756964e+01	3.610161e+02
1.970000e-06	6.591374e-06	5.483791e-09	4.695849e+01	3.588091e+02
1.980000e-06	6.503103e-06	5.428863e-09	4.632962e+01	3.565294e+02
1.990000e-06	6.412640e-06	5.424562e-09	4.568515e+01	3.541750e+02
2.000000e-06	6.320056e-06	5.370386e-09	4.502555e+01	3.517437e+02
2.010000e-06	6.225022e-06	5.321076e-09	4.434851e+01	3.492326e+02
2.020000e-06	6.127755e-06	5.295921e-09	4.365556e+01	3.466385e+02
2.030000e-06	6.028310e-06	5.247822e-09	4.294709e+01	3.439577e+02
2.040000e-06	5.926721e-06	5.211387e-09	4.222335e+01	3.411869e+02
2.050000e-06	5.822992e-06	5.158931e-09	4.148435e+01	3.383229e+02
2.060000e-06	5.717240e-06	5.136766e-09	4.073095e+01	3.353635e+02
2.070000e-06	5.609663e-06	5.068657e-09	3.996455e+01	3.323069e+02
2.080000e-06	5.500095e-06	5.016653e-09	3.918396e+01	3.291529e+02
2.090000e-06	5.388456e-06	4.968109e-09	3.838862e+01	3.259017e+02
2.100000e-06	5.274773e-06	4.922452e-09	3.757871e+01	3.225549e+02
2.110000e-06	5.159106e-06	4.866660e-09	3.675468e+01	3.191139e+02
2.120000e-06	5.041386e-06	4.821632e-09	3.591601e+01	3.155805e+02
2.130000e-06	4.921690e-06	4.778373e-09	3.506327e+01	3.119553e+02
2.140000e-06	4.800230e-06	4.714678e-09	3.419796e+01	3.082382e+02
2.150000e-06	4.677048e-06	4.654064e-09	3.332038e+01	3.044271e+02
2.160000e-06	4.552143e-06	4.590378e-09	3.243053e+01	3.005181e+02
2.170000e-06	4.425632e-06	4.533540e-09	3.152924e+01	2.965058e+02
2.180000e-06	4.297446e-06	4.465323e-09	3.061601e+01	2.923832e+02
2.190000e-06	4.167706e-06	4.407343e-09	2.969171e+01	2.881427e+02
2.200000e-06	4.036461e-06	4.340936e-09	2.875669e+01	2.837769e+02
2.210000e-06	3.903706e-06	4.270435e-09	2.781092e+01	2.792790e+02
2.220000e-06	3.769518e-06	4.198737e-09	2.685492e+01	2.746442e+02
2.230000e-06	3.633774e-06	4.136316e-09	2.588786e+01	2.698695e+02
2.240000e-06	3.496681e-06	4.065648e-09	2.491117e+01	2.649546e+02
2.250000e-06	3.358292e-06	3.985006e-09	2.392525e+01	2.599010e+02
2.260000e-06	3.218585e-06	3.906585e-09	2.292995e+01	2.547118e+02
2.270000e-06	3.077622e-06	3.823901e-09	2.192570e+01	2.493902e+02
2.280000e-06	2.935422e-06	3.737719e-09	2.091263e+01	2.439389e+02
2.290000e-06	2.792052e-06	3.650921e-09	1.989123e+01	2.383581e+02
2.300000e-06	2.647619e-06	3.567356e-09	1.886226e+01	2.326451e+02
2.310000e-06	2.502373e-06	3.474586e-09	1.782749e+01	2.267929e+02
2.320000e-06	2.356407e-06	3.380861e-09	1.678760e+01	2.207906e+02
2.330000e-06	2.209608e-06	3.291167e-09	1.574176e+01	2.146236e+02
2.340000e-06	2.061905e-06	3.200832e-09	1.468949e+01	2.082741e+02
2.350000e-06	1.913501e-06	3.101490e-09	1.363223e+01	2.017232e+02
2.360000e-06	1.764606e-06	2.996595e-09	1.257147e+01	1.949523e+02
2.370000e-06	1.615235e-06	2.890023e-09	1.150731e+01	1.879446e+02
2.380000e-06	1.465341e-06	2.778867e-09	1.043943e+01	1.806868e+02
2.390000e-06	1.314964e-06	2.664992e-09	9.368112e+00	1.731699e+02
2.400000e-06	1.164172e-06	2.547336e-09	8.293831e+00	1.653891e+02
2.410000e-06	1.012949e-06	2.423015e-09	7.216487e+00	1.573429e+02
2.420000e-06	8.612474e-07	2.294448e-09	6.135728e+00	1.490321e+02
2.430000e-06	7.091435e-07	2.167245e-09	5.052104e+00	1.404566e+02
2.440000e-06	5.567568e-07	2.040116e-09	3.966465e+00	1.316134e+02
2.450000e-06	4.041261e-07	1.905677e-09	2.879089e+00	1.224938e+02
2.460000e-06	2.513270e-07	1.762626e-09	1.790512e+00	1.130811e+02
2.470000e-06	9.844771e-08	1.611466e-09	7.013645e-01	1.033496e+02
2.480000e-06	-5.446254e-08	1.452000e-09	-3.880038e-01	9.326464e+01
2.490000e-06	-2.073650e-07	1.288886e-09	-1.477317e+00	8.278391e+01
2.500000e-06	-3.602292e-07	1.123233e-09	-2.566357e+00	7.186090e+01
2.510000e-06	-5.129755e-07	9.527404e-10	-3.654557e+00	6.044914e+01
2.520000e-06	-6.655527e-07	7.726973e-10	-4.741553e+00	4.850774e+01
2.530000e-06	-8.179159e-07	5.816570e-10	-5.827024e+00	3.600736e+01
2.540000e-06	-9.700375e-07	3.837701e-10	-6.910774e+00	2.293595e+01
2.550000e-06	-1.121855e-06	1.775151e-10	-7.992358e+00	9.303737e+00
2.560000e-06	-1.273155e-06	-3.940136e-11	-9.070257e+00	-4.853295e+00
2.570000e-06	-1.423793e-06	-2.639330e-10	-1.014344e+01	-1.947191e+01
2.580000e-06	-1.573809e-06	-4.935744e-10	-1.121219e+01	-3.446241e+01
2.590000e-06	-1.723269e-06	-7.284530e-10	-1.227697e+01	-4.971174e+01
2.600000e-06	-1.872220e-06	-9.679512e-10	-1.333813e+01	-6.508880e+01
2.610000e-06	-2.020548e-06	-1.205854e-09	-1.439486e+01	-8.045145e+01
2.620000e-06	-2.168017e-06	-1.440008e-09	-1.544546e+01	-9.565463e+01
2.630000e-06	-2.314589e-06	-1.670428e-09	-1.648967e+01	-1.105588e+02
2.640000e-06	-2.460298e-06	-1.894491e-09	-1.752774e+01	-1.250378e+02
2.650000e-06	-2.605220e-06	-2.109297e-09	-1.856019e+01	-1.389857e+02
2.660000e-06	-2.749262e-06	-2.312035e-09	-1.958638e+01	-1.523215e+02
2.670000e-06	-2.892095e-06	-2.505766e-09	-2.060396e+01	-1.649922e+02
2.680000e-06	-3.033694e-06	-2.688047e-09	-2.161274e+01	-1.769722e+02
2.690000e-06	-3.174104e-06	-2.858654e-09	-2.261306e+01	-1.882623e+02
2.700000e-06	-3.313165e-06	-3.020277e-09	-2.360376e+01	-1.988849e+02
2.710000e-06	-3.450927e-06	-3.171406e-09	-2.458521e+01	-2.088792e+02
2.720000e-06	-3.587503e-06	-3.315262e-09	-2.555821e+01	-2.182948e+02
2.730000e-06	-3.722726e-06	-3.453224e-09	-2.652157e+01	-2.271861e+02
2.740000e-06	-3.856547e-06	-3.586504e-09	-2.747494e+01	-2.356065e+02
2.750000e-06	-3.989090e-06	-3.712194e-09	-2.841921e+01	-2.436043e+02
2.760000e-06	-4.120178e-06	-3.828798e-09	-2.935311e+01	-2.512203e+02
2.770000e-06	-4.249780e-06	-3.940009e-09	-3.027643e+01	-2.584862e+02
2.780000e-06	-4.378102e-06	-4.045800e-09	-3.119062e+01	-2.654250e+02
2.790000e-06	-4.504882e-06	-4.145863e-09	-3.209383e+01	-2.720528e+02
2.800000e-06	-4.630044e-06	-4.238886e-09	-3.298552e+01	-2.783810e+02
2.810000e-06	-4.753645e-06	-4.327055e-09	-3.386608e+01	-2.844190e+02
2.820000e-06	-4.875469e-06	-4.412474e-09	-3.473398e+01	-2.901762e+02
2.830000e-06	-4.995447e-06	-4.497036e-09	-3.558873e+01	-2.956648e+02
2.840000e-06	-5.113570e-06	-4.579842e-09	-3.643026e+01	-3.008996e+02
2.850000e-06	-5.229682e-06	-4.656769e-09	-3.725748e+01	-3.058991e+02
2.860000e-06	-5.343624e-06	-4.730065e-09	-3.806922e+01	-3.106841e+02
2.870000e-06	-5.455437e-06	-4.801899e-09	-3.886581e+01	-3.152761e+02
2.880000e-06	-5.565177e-06	-4.873192e-09	-3.964762e+01	-3.196956e+02
2.890000e-06	-5.672987e-06	-4.942722e-09	-4.041568e+01	-3.239598e+02
2.900000e-06	-5.778901e-06	-5.008726e-09	-4.117024e+01	-3.280813e+02
2.910000e-06	-5.882742e-06	-5.071237e-09	-4.191003e+01	-3.320666e+02
2.920000e-06	-5.984353e-06	-5.129311e-09	-4.263393e+01	-3.359163e+02
2.930000e-06	-6.083709e-06	-5.184960e-09	-4.334176e+01	-3.396257e+02
2.940000e-06	-6.180973e-06	-5.240761e-09	-4.403470e+01	-3.431856e+02
