# Temperatura_=_37.49
# Concentracion g/m^3_=_5000.0
# C_Vs_to_Am_M_A/Vsm_=_65563218390.804596
# pendiente_HvsI_1/m_=_3716.3
# ordenada_HvsI_A/m_=_1297.0
# frecuencia_Hz_=_302576.0579763809

Tiempo_(s)	Campo_(V.s)	Magnetizacion_(V.s)	Campo_(kA/m)	Magnetizacion_(A/m)
0.000000e+00	-7.984590e-06	-5.743171e-09	-5.684931e+01	-3.753161e+02
1.000000e-08	-7.981685e-06	-5.741732e-09	-5.682863e+01	-3.751442e+02
2.000000e-08	-7.976150e-06	-5.737751e-09	-5.678922e+01	-3.748908e+02
3.000000e-08	-7.968026e-06	-5.732393e-09	-5.673138e+01	-3.745706e+02
4.000000e-08	-7.957083e-06	-5.729119e-09	-5.665347e+01	-3.742019e+02
5.000000e-08	-7.943118e-06	-5.726547e-09	-5.655404e+01	-3.738046e+02
6.000000e-08	-7.926252e-06	-5.722384e-09	-5.643396e+01	-3.733972e+02
7.000000e-08	-7.907000e-06	-5.718293e-09	-5.629688e+01	-3.729948e+02
8.000000e-08	-7.885471e-06	-5.727429e-09	-5.614360e+01	-3.726070e+02
9.000000e-08	-7.861088e-06	-5.727983e-09	-5.597000e+01	-3.722368e+02
1.000000e-07	-7.833453e-06	-5.732840e-09	-5.577323e+01	-3.718795e+02
1.100000e-07	-7.802750e-06	-5.720832e-09	-5.555463e+01	-3.715239e+02
1.200000e-07	-7.769234e-06	-5.684803e-09	-5.531601e+01	-3.711530e+02
1.300000e-07	-7.733027e-06	-5.636905e-09	-5.505821e+01	-3.707461e+02
1.400000e-07	-7.694508e-06	-5.585803e-09	-5.478396e+01	-3.702812e+02
1.500000e-07	-7.653854e-06	-5.608675e-09	-5.449452e+01	-3.697372e+02
1.600000e-07	-7.610753e-06	-5.657995e-09	-5.418764e+01	-3.690960e+02
1.700000e-07	-7.564957e-06	-5.680267e-09	-5.386158e+01	-3.683447e+02
1.800000e-07	-7.516505e-06	-5.636662e-09	-5.351661e+01	-3.674756e+02
1.900000e-07	-7.465032e-06	-5.560654e-09	-5.315012e+01	-3.664876e+02
2.000000e-07	-7.410512e-06	-5.533468e-09	-5.276195e+01	-3.653849e+02
2.100000e-07	-7.353271e-06	-5.513006e-09	-5.235440e+01	-3.641762e+02
2.200000e-07	-7.293378e-06	-5.543473e-09	-5.192797e+01	-3.628730e+02
2.300000e-07	-7.230943e-06	-5.560512e-09	-5.148344e+01	-3.614884e+02
2.400000e-07	-7.165737e-06	-5.482454e-09	-5.101918e+01	-3.600345e+02
2.500000e-07	-7.097752e-06	-5.423444e-09	-5.053513e+01	-3.585218e+02
2.600000e-07	-7.027136e-06	-5.429688e-09	-5.003236e+01	-3.569577e+02
2.700000e-07	-6.953724e-06	-5.441242e-09	-4.950967e+01	-3.553463e+02
2.800000e-07	-6.877528e-06	-5.405217e-09	-4.896717e+01	-3.536881e+02
2.900000e-07	-6.798496e-06	-5.388556e-09	-4.840447e+01	-3.519806e+02
3.000000e-07	-6.716755e-06	-5.363162e-09	-4.782249e+01	-3.502193e+02
3.100000e-07	-6.632763e-06	-5.305953e-09	-4.722447e+01	-3.483980e+02
3.200000e-07	-6.546541e-06	-5.292532e-09	-4.661058e+01	-3.465106e+02
3.300000e-07	-6.457928e-06	-5.272136e-09	-4.597966e+01	-3.445512e+02
3.400000e-07	-6.366962e-06	-5.217574e-09	-4.533200e+01	-3.425151e+02
3.500000e-07	-6.273756e-06	-5.163902e-09	-4.466838e+01	-3.403989e+02
3.600000e-07	-6.178336e-06	-5.151972e-09	-4.398900e+01	-3.382009e+02
3.700000e-07	-6.080540e-06	-5.140120e-09	-4.329271e+01	-3.359201e+02
3.800000e-07	-5.980501e-06	-5.106023e-09	-4.258045e+01	-3.335570e+02
3.900000e-07	-5.878468e-06	-5.077076e-09	-4.185398e+01	-3.311119e+02
4.000000e-07	-5.774322e-06	-5.020748e-09	-4.111247e+01	-3.285856e+02
4.100000e-07	-5.668055e-06	-4.946790e-09	-4.035587e+01	-3.259782e+02
4.200000e-07	-5.559835e-06	-4.901938e-09	-3.958535e+01	-3.232897e+02
4.300000e-07	-5.449696e-06	-4.907260e-09	-3.880117e+01	-3.205192e+02
4.400000e-07	-5.337594e-06	-4.877915e-09	-3.800302e+01	-3.176655e+02
4.500000e-07	-5.223295e-06	-4.802216e-09	-3.718923e+01	-3.147267e+02
4.600000e-07	-5.106867e-06	-4.740906e-09	-3.636028e+01	-3.117008e+02
4.700000e-07	-4.988679e-06	-4.696560e-09	-3.551879e+01	-3.085856e+02
4.800000e-07	-4.868702e-06	-4.646439e-09	-3.466457e+01	-3.053784e+02
4.900000e-07	-4.746824e-06	-4.604370e-09	-3.379681e+01	-3.020764e+02
5.000000e-07	-4.623156e-06	-4.570232e-09	-3.291631e+01	-2.986762e+02
5.100000e-07	-4.497893e-06	-4.502324e-09	-3.202446e+01	-2.951741e+02
5.200000e-07	-4.371087e-06	-4.426704e-09	-3.112161e+01	-2.915654e+02
5.300000e-07	-4.242657e-06	-4.376973e-09	-3.020721e+01	-2.878452e+02
5.400000e-07	-4.112625e-06	-4.328676e-09	-2.928139e+01	-2.840079e+02
5.500000e-07	-3.981061e-06	-4.252984e-09	-2.834468e+01	-2.800478e+02
5.600000e-07	-3.847990e-06	-4.183261e-09	-2.739722e+01	-2.759595e+02
5.700000e-07	-3.713531e-06	-4.129815e-09	-2.643989e+01	-2.717379e+02
5.800000e-07	-3.577690e-06	-4.060045e-09	-2.547272e+01	-2.673793e+02
5.900000e-07	-3.440449e-06	-3.981882e-09	-2.449558e+01	-2.628809e+02
6.000000e-07	-3.301750e-06	-3.917065e-09	-2.350806e+01	-2.582412e+02
6.100000e-07	-3.161552e-06	-3.851584e-09	-2.250987e+01	-2.534597e+02
6.200000e-07	-3.020087e-06	-3.767198e-09	-2.150265e+01	-2.485363e+02
6.300000e-07	-2.877405e-06	-3.689734e-09	-2.048677e+01	-2.434707e+02
6.400000e-07	-2.733494e-06	-3.627322e-09	-1.946214e+01	-2.382615e+02
6.500000e-07	-2.588505e-06	-3.551999e-09	-1.842984e+01	-2.329053e+02
6.600000e-07	-2.442606e-06	-3.455047e-09	-1.739106e+01	-2.273959e+02
6.700000e-07	-2.295983e-06	-3.356172e-09	-1.634712e+01	-2.217242e+02
6.800000e-07	-2.148712e-06	-3.262896e-09	-1.529857e+01	-2.158776e+02
6.900000e-07	-2.000802e-06	-3.167947e-09	-1.424547e+01	-2.098412e+02
7.000000e-07	-1.852256e-06	-3.075048e-09	-1.318784e+01	-2.035980e+02
7.100000e-07	-1.703123e-06	-2.985051e-09	-1.212603e+01	-1.971304e+02
7.200000e-07	-1.553454e-06	-2.886969e-09	-1.106040e+01	-1.904216e+02
7.300000e-07	-1.403312e-06	-2.777236e-09	-9.991410e+00	-1.834568e+02
7.400000e-07	-1.252733e-06	-2.665903e-09	-8.919308e+00	-1.762243e+02
7.500000e-07	-1.101724e-06	-2.555885e-09	-7.844144e+00	-1.687159e+02
7.600000e-07	-9.503161e-07	-2.442904e-09	-6.766136e+00	-1.609268e+02
7.700000e-07	-7.985242e-07	-2.320669e-09	-5.685396e+00	-1.528548e+02
7.800000e-07	-6.464340e-07	-2.188949e-09	-4.602532e+00	-1.444985e+02
7.900000e-07	-4.940804e-07	-2.051039e-09	-3.517792e+00	-1.358556e+02
8.000000e-07	-3.415437e-07	-1.910557e-09	-2.431750e+00	-1.269204e+02
8.100000e-07	-1.889263e-07	-1.769230e-09	-1.345132e+00	-1.176817e+02
8.200000e-07	-3.619692e-08	-1.623226e-09	-2.577177e-01	-1.081212e+02
8.300000e-07	1.166301e-07	-1.471368e-09	8.303919e-01	-9.821309e+01
8.400000e-07	2.694485e-07	-1.312949e-09	1.918441e+00	-8.792443e+01
8.500000e-07	4.222272e-07	-1.148608e-09	3.006207e+00	-7.721715e+01
8.600000e-07	5.749021e-07	-9.784608e-10	4.093233e+00	-6.605133e+01
8.700000e-07	7.273453e-07	-8.040249e-10	5.178610e+00	-5.438965e+01
8.800000e-07	8.795712e-07	-6.231694e-10	6.262440e+00	-4.220258e+01
8.900000e-07	1.031552e-06	-4.304881e-10	7.344526e+00	-2.947380e+01
9.000000e-07	1.183191e-06	-2.281653e-10	8.424179e+00	-1.620531e+01
9.100000e-07	1.334340e-06	-2.145069e-11	9.500337e+00	-2.421437e+00
9.200000e-07	1.484895e-06	1.911480e-10	1.057227e+01	1.182859e+01
9.300000e-07	1.634941e-06	4.140485e-10	1.164058e+01	2.647013e+01
9.400000e-07	1.784442e-06	6.439823e-10	1.270501e+01	4.140478e+01
9.500000e-07	1.933295e-06	8.755944e-10	1.376482e+01	5.651421e+01
9.600000e-07	2.081473e-06	1.108161e-09	1.481984e+01	7.166589e+01
9.700000e-07	2.229008e-06	1.338487e-09	1.587027e+01	8.672028e+01
9.800000e-07	2.375788e-06	1.561410e-09	1.691532e+01	1.015388e+02
9.900000e-07	2.521671e-06	1.777451e-09	1.795399e+01	1.159916e+02
1.000000e-06	2.666616e-06	1.987678e-09	1.898598e+01	1.299652e+02
1.010000e-06	2.810446e-06	2.192768e-09	2.001004e+01	1.433679e+02
1.020000e-06	2.953144e-06	2.385832e-09	2.102603e+01	1.561335e+02
1.030000e-06	3.094709e-06	2.564814e-09	2.203395e+01	1.682233e+02
1.040000e-06	3.235094e-06	2.734900e-09	2.303348e+01	1.796250e+02
1.050000e-06	3.374209e-06	2.897574e-09	2.402396e+01	1.903502e+02
1.060000e-06	3.511894e-06	3.052176e-09	2.500426e+01	2.004293e+02
1.070000e-06	3.648175e-06	3.194122e-09	2.597457e+01	2.099065e+02
1.080000e-06	3.783052e-06	3.328751e-09	2.693487e+01	2.188337e+02
1.090000e-06	3.916597e-06	3.457193e-09	2.788570e+01	2.272646e+02
1.100000e-06	4.048844e-06	3.581103e-09	2.882728e+01	2.352497e+02
1.110000e-06	4.179683e-06	3.702270e-09	2.975884e+01	2.428335e+02
1.120000e-06	4.308989e-06	3.816412e-09	3.067948e+01	2.500519e+02
1.130000e-06	4.436709e-06	3.920975e-09	3.158883e+01	2.569317e+02
1.140000e-06	4.562970e-06	4.015086e-09	3.248779e+01	2.634921e+02
1.150000e-06	4.687738e-06	4.106568e-09	3.337613e+01	2.697463e+02
1.160000e-06	4.810879e-06	4.197076e-09	3.425288e+01	2.757041e+02
1.170000e-06	4.932296e-06	4.282977e-09	3.511735e+01	2.813744e+02
1.180000e-06	5.051883e-06	4.362533e-09	3.596880e+01	2.867674e+02
1.190000e-06	5.169690e-06	4.438380e-09	3.680756e+01	2.918962e+02
1.200000e-06	5.285526e-06	4.516081e-09	3.763230e+01	2.967772e+02
1.210000e-06	5.399231e-06	4.594248e-09	3.844187e+01	3.014294e+02
1.220000e-06	5.510826e-06	4.666362e-09	3.923641e+01	3.058737e+02
1.230000e-06	5.620426e-06	4.728427e-09	4.001675e+01	3.101305e+02
1.240000e-06	5.728193e-06	4.783467e-09	4.078404e+01	3.142180e+02
1.250000e-06	5.833963e-06	4.838678e-09	4.153711e+01	3.181502e+02
1.260000e-06	5.937503e-06	4.895972e-09	4.227430e+01	3.219357e+02
1.270000e-06	6.038827e-06	4.953499e-09	4.299571e+01	3.255774e+02
1.280000e-06	6.137961e-06	5.006023e-09	4.370154e+01	3.290724e+02
1.290000e-06	6.234737e-06	5.054350e-09	4.439057e+01	3.324134e+02
1.300000e-06	6.329151e-06	5.102308e-09	4.506279e+01	3.355907e+02
1.310000e-06	6.421370e-06	5.148442e-09	4.571938e+01	3.385944e+02
1.320000e-06	6.511309e-06	5.191543e-09	4.635973e+01	3.414167e+02
1.330000e-06	6.598892e-06	5.230357e-09	4.698331e+01	3.440539e+02
1.340000e-06	6.684222e-06	5.265745e-09	4.759085e+01	3.465076e+02
1.350000e-06	6.767220e-06	5.299862e-09	4.818179e+01	3.487857e+02
1.360000e-06	6.847694e-06	5.332326e-09	4.875475e+01	3.509015e+02
1.370000e-06	6.925681e-06	5.362647e-09	4.931001e+01	3.528728e+02
1.380000e-06	7.001128e-06	5.391322e-09	4.984718e+01	3.547198e+02
1.390000e-06	7.073854e-06	5.419189e-09	5.036499e+01	3.564630e+02
1.400000e-06	7.144064e-06	5.446243e-09	5.086487e+01	3.581208e+02
1.410000e-06	7.211857e-06	5.471032e-09	5.134755e+01	3.597076e+02
1.420000e-06	7.276963e-06	5.495071e-09	5.181110e+01	3.612325e+02
1.430000e-06	7.339406e-06	5.518151e-09	5.225568e+01	3.626984e+02
1.440000e-06	7.399483e-06	5.538435e-09	5.268343e+01	3.641029e+02
1.450000e-06	7.456975e-06	5.555656e-09	5.309276e+01	3.654391e+02
1.460000e-06	7.511806e-06	5.570772e-09	5.348315e+01	3.666975e+02
1.470000e-06	7.563724e-06	5.584133e-09	5.385280e+01	3.678682e+02
1.480000e-06	7.612423e-06	5.598114e-09	5.419953e+01	3.689427e+02
1.490000e-06	7.658276e-06	5.613318e-09	5.452600e+01	3.699162e+02
1.500000e-06	7.701543e-06	5.627385e-09	5.483405e+01	3.707884e+02
1.510000e-06	7.742018e-06	5.641168e-09	5.512223e+01	3.715637e+02
1.520000e-06	7.779675e-06	5.654188e-09	5.539034e+01	3.722514e+02
1.530000e-06	7.814690e-06	5.666584e-09	5.563964e+01	3.728638e+02
1.540000e-06	7.846909e-06	5.676035e-09	5.586904e+01	3.734148e+02
1.550000e-06	7.876367e-06	5.681571e-09	5.607878e+01	3.739177e+02
1.560000e-06	7.903003e-06	5.686605e-09	5.626842e+01	3.743833e+02
1.570000e-06	7.926649e-06	5.692041e-09	5.643678e+01	3.748179e+02
1.580000e-06	7.947533e-06	5.698385e-09	5.658547e+01	3.752229e+02
1.590000e-06	7.965675e-06	5.704167e-09	5.671464e+01	3.755943e+02
1.600000e-06	7.980856e-06	5.709311e-09	5.682273e+01	3.759230e+02
1.610000e-06	7.993004e-06	5.714343e-09	5.690922e+01	3.761972e+02
1.620000e-06	8.001968e-06	5.717144e-09	5.697304e+01	3.764033e+02
1.630000e-06	8.007936e-06	5.718337e-09	5.701553e+01	3.765290e+02
1.640000e-06	8.011183e-06	5.719731e-09	5.703866e+01	3.765651e+02
1.650000e-06	8.011583e-06	5.718163e-09	5.704150e+01	3.765072e+02
1.660000e-06	8.009217e-06	5.714598e-09	5.702465e+01	3.763570e+02
1.670000e-06	8.004235e-06	5.708265e-09	5.698918e+01	3.761224e+02
1.680000e-06	7.996535e-06	5.703409e-09	5.693436e+01	3.758170e+02
1.690000e-06	7.986149e-06	5.699360e-09	5.686041e+01	3.754583e+02
1.700000e-06	7.973016e-06	5.696435e-09	5.676691e+01	3.750660e+02
1.710000e-06	7.957160e-06	5.695584e-09	5.665401e+01	3.746592e+02
1.720000e-06	7.938914e-06	5.686890e-09	5.652411e+01	3.742541e+02
1.730000e-06	7.918403e-06	5.659602e-09	5.637807e+01	3.738618e+02
1.740000e-06	7.895082e-06	5.637814e-09	5.621203e+01	3.734870e+02
1.750000e-06	7.868245e-06	5.622229e-09	5.602095e+01	3.731270e+02
1.760000e-06	7.837755e-06	5.622712e-09	5.580387e+01	3.727720e+02
1.770000e-06	7.804244e-06	5.636418e-09	5.556527e+01	3.724064e+02
1.780000e-06	7.768437e-06	5.675061e-09	5.531033e+01	3.720103e+02
1.790000e-06	7.730248e-06	5.682262e-09	5.503843e+01	3.715616e+02
1.800000e-06	7.689926e-06	5.669645e-09	5.475134e+01	3.710389e+02
1.810000e-06	7.647482e-06	5.633423e-09	5.444914e+01	3.704232e+02
1.820000e-06	7.602402e-06	5.605957e-09	5.412818e+01	3.697000e+02
1.830000e-06	7.554697e-06	5.654502e-09	5.378853e+01	3.688604e+02
1.840000e-06	7.504064e-06	5.646861e-09	5.342803e+01	3.679016e+02
1.850000e-06	7.450441e-06	5.668434e-09	5.304624e+01	3.668266e+02
1.860000e-06	7.394036e-06	5.622232e-09	5.264464e+01	3.656430e+02
1.870000e-06	7.334971e-06	5.506406e-09	5.222410e+01	3.643620e+02
1.880000e-06	7.273283e-06	5.489805e-09	5.178489e+01	3.629962e+02
1.890000e-06	7.208748e-06	5.498117e-09	5.132541e+01	3.615582e+02
1.900000e-06	7.141431e-06	5.524419e-09	5.084612e+01	3.600591e+02
1.910000e-06	7.071287e-06	5.511826e-09	5.034670e+01	3.585070e+02
1.920000e-06	6.998369e-06	5.463473e-09	4.982754e+01	3.569070e+02
1.930000e-06	6.922879e-06	5.380411e-09	4.929006e+01	3.552603e+02
1.940000e-06	6.844573e-06	5.343973e-09	4.873253e+01	3.535652e+02
1.950000e-06	6.763565e-06	5.389816e-09	4.815576e+01	3.518175e+02
1.960000e-06	6.680142e-06	5.368148e-09	4.756181e+01	3.500115e+02
1.970000e-06	6.594215e-06	5.327370e-09	4.695001e+01	3.481409e+02
1.980000e-06	6.505810e-06	5.280927e-09	4.632058e+01	3.461996e+02
1.990000e-06	6.415121e-06	5.243183e-09	4.567488e+01	3.441828e+02
2.000000e-06	6.322274e-06	5.208191e-09	4.501383e+01	3.420865e+02
2.010000e-06	6.227108e-06	5.187749e-09	4.433626e+01	3.399087e+02
2.020000e-06	6.129690e-06	5.173862e-09	4.364265e+01	3.376484e+02
2.030000e-06	6.030189e-06	5.104618e-09	4.293422e+01	3.353054e+02
2.040000e-06	5.928513e-06	5.049022e-09	4.221029e+01	3.328805e+02
2.050000e-06	5.824647e-06	5.044433e-09	4.147078e+01	3.303741e+02
2.060000e-06	5.718765e-06	5.051117e-09	4.071692e+01	3.277867e+02
2.070000e-06	5.611033e-06	4.985483e-09	3.994988e+01	3.251182e+02
2.080000e-06	5.501306e-06	4.908936e-09	3.916863e+01	3.223680e+02
2.090000e-06	5.389520e-06	4.857028e-09	3.837273e+01	3.195349e+02
2.100000e-06	5.275745e-06	4.814405e-09	3.756266e+01	3.166172e+02
2.110000e-06	5.160011e-06	4.795670e-09	3.673865e+01	3.136130e+02
2.120000e-06	5.042184e-06	4.789925e-09	3.589974e+01	3.105200e+02
2.130000e-06	4.922323e-06	4.735174e-09	3.504635e+01	3.073358e+02
2.140000e-06	4.800681e-06	4.624679e-09	3.418027e+01	3.040574e+02
2.150000e-06	4.677353e-06	4.552974e-09	3.330219e+01	3.006818e+02
2.160000e-06	4.552389e-06	4.535787e-09	3.241246e+01	2.972052e+02
2.170000e-06	4.425721e-06	4.516893e-09	3.151060e+01	2.936233e+02
2.180000e-06	4.297394e-06	4.459069e-09	3.059692e+01	2.899312e+02
2.190000e-06	4.167528e-06	4.391873e-09	2.967230e+01	2.861234e+02
2.200000e-06	4.036239e-06	4.313729e-09	2.873753e+01	2.821942e+02
2.210000e-06	3.903494e-06	4.240993e-09	2.779241e+01	2.781381e+02
2.220000e-06	3.769168e-06	4.197051e-09	2.683602e+01	2.739500e+02
2.230000e-06	3.633298e-06	4.159884e-09	2.586864e+01	2.696256e+02
2.240000e-06	3.496153e-06	4.083662e-09	2.489218e+01	2.651620e+02
2.250000e-06	3.357747e-06	3.983913e-09	2.390676e+01	2.605574e+02
2.260000e-06	3.218082e-06	3.910883e-09	2.291235e+01	2.558110e+02
2.270000e-06	3.077071e-06	3.854877e-09	2.190837e+01	2.509228e+02
2.280000e-06	2.934718e-06	3.783476e-09	2.089484e+01	2.458925e+02
2.290000e-06	2.791204e-06	3.695996e-09	1.987303e+01	2.407192e+02
2.300000e-06	2.646683e-06	3.607884e-09	1.884406e+01	2.353998e+02
2.310000e-06	2.501319e-06	3.518726e-09	1.780909e+01	2.299292e+02
2.320000e-06	2.355131e-06	3.441052e-09	1.676825e+01	2.242987e+02
2.330000e-06	2.208252e-06	3.375087e-09	1.572249e+01	2.184968e+02
2.340000e-06	2.060711e-06	3.290623e-09	1.467202e+01	2.125091e+02
2.350000e-06	1.912434e-06	3.172956e-09	1.361630e+01	2.063189e+02
2.360000e-06	1.763504e-06	3.053131e-09	1.255594e+01	1.999087e+02
2.370000e-06	1.614039e-06	2.956857e-09	1.149176e+01	1.932614e+02
2.380000e-06	1.464010e-06	2.871778e-09	1.042357e+01	1.863616e+02
2.390000e-06	1.313421e-06	2.772481e-09	9.351397e+00	1.791966e+02
2.400000e-06	1.162299e-06	2.651019e-09	8.275429e+00	1.717574e+02
2.410000e-06	1.010771e-06	2.518769e-09	7.196568e+00	1.640384e+02
2.420000e-06	8.589364e-07	2.391475e-09	6.115523e+00	1.560369e+02
2.430000e-06	7.068275e-07	2.278007e-09	5.032526e+00	1.477516e+02
2.440000e-06	5.544805e-07	2.165343e-09	3.947834e+00	1.391804e+02
2.450000e-06	4.019648e-07	2.034417e-09	2.861941e+00	1.303188e+02
2.460000e-06	2.492817e-07	1.884728e-09	1.774856e+00	1.211570e+02
2.470000e-06	9.640891e-08	1.730008e-09	6.864198e-01	1.116787e+02
2.480000e-06	-5.652376e-08	1.578555e-09	-4.024423e-01	1.018601e+02
2.490000e-06	-2.093493e-07	1.427601e-09	-1.490542e+00	9.166964e+01
2.500000e-06	-3.620963e-07	1.270503e-09	-2.578082e+00	8.107043e+01
2.510000e-06	-5.148148e-07	1.100461e-09	-3.665419e+00	7.002261e+01
2.520000e-06	-6.673147e-07	9.201767e-10	-4.751200e+00	5.848775e+01
2.530000e-06	-8.195524e-07	7.371641e-10	-5.835114e+00	4.643384e+01
2.540000e-06	-9.716071e-07	5.518487e-10	-6.917725e+00	3.384078e+01
2.550000e-06	-1.123354e-06	3.546434e-10	-7.998147e+00	2.070554e+01
2.560000e-06	-1.274703e-06	1.405810e-10	-9.075729e+00	7.046580e+00
2.570000e-06	-1.425622e-06	-8.007889e-11	-1.015025e+01	-7.093238e+00
2.580000e-06	-1.575996e-06	-3.020906e-10	-1.122090e+01	-2.164556e+01
2.590000e-06	-1.725709e-06	-5.269262e-10	-1.228684e+01	-3.651765e+01
2.600000e-06	-1.874702e-06	-7.582147e-10	-1.334765e+01	-5.159569e+01
2.610000e-06	-2.022973e-06	-9.943561e-10	-1.440333e+01	-6.675007e+01
2.620000e-06	-2.170466e-06	-1.232242e-09	-1.545345e+01	-8.184227e+01
2.630000e-06	-2.317135e-06	-1.467144e-09	-1.649772e+01	-9.673269e+01
2.640000e-06	-2.462998e-06	-1.691079e-09	-1.753625e+01	-1.112887e+02
2.650000e-06	-2.607980e-06	-1.904643e-09	-1.856850e+01	-1.253920e+02
2.660000e-06	-2.752070e-06	-2.110780e-09	-1.959440e+01	-1.389449e+02
2.670000e-06	-2.895146e-06	-2.309700e-09	-2.061309e+01	-1.518748e+02
2.680000e-06	-3.036946e-06	-2.496303e-09	-2.162269e+01	-1.641360e+02
2.690000e-06	-3.177386e-06	-2.669912e-09	-2.262261e+01	-1.757099e+02
2.700000e-06	-3.316504e-06	-2.833269e-09	-2.361311e+01	-1.866023e+02
2.710000e-06	-3.454384e-06	-2.986286e-09	-2.459479e+01	-1.968395e+02
2.720000e-06	-3.591016e-06	-3.134401e-09	-2.556760e+01	-2.064629e+02
2.730000e-06	-3.726375e-06	-3.279093e-09	-2.653134e+01	-2.155229e+02
2.740000e-06	-3.860351e-06	-3.418273e-09	-2.748523e+01	-2.240731e+02
2.750000e-06	-3.992901e-06	-3.546359e-09	-2.842897e+01	-2.321656e+02
2.760000e-06	-4.124045e-06	-3.662905e-09	-2.936270e+01	-2.398464e+02
2.770000e-06	-4.253783e-06	-3.773234e-09	-3.028642e+01	-2.471535e+02
2.780000e-06	-4.382162e-06	-3.877356e-09	-3.120046e+01	-2.541162e+02
2.790000e-06	-4.509076e-06	-3.975784e-09	-3.210408e+01	-2.607553e+02
2.800000e-06	-4.634396e-06	-4.069754e-09	-3.299634e+01	-2.670854e+02
2.810000e-06	-4.758015e-06	-4.161024e-09	-3.387649e+01	-2.731168e+02
2.820000e-06	-4.879949e-06	-4.247896e-09	-3.474465e+01	-2.788584e+02
2.830000e-06	-5.000194e-06	-4.331552e-09	-3.560077e+01	-2.843199e+02
2.840000e-06	-5.118444e-06	-4.412756e-09	-3.644270e+01	-2.895137e+02
2.850000e-06	-5.234557e-06	-4.489178e-09	-3.726941e+01	-2.944553e+02
2.860000e-06	-5.348623e-06	-4.561184e-09	-3.808155e+01	-2.991631e+02
2.870000e-06	-5.460487e-06	-4.631192e-09	-3.887801e+01	-3.036577e+02
2.880000e-06	-5.570167e-06	-4.700743e-09	-3.965891e+01	-3.079599e+02
2.890000e-06	-5.678015e-06	-4.767338e-09	-4.042678e+01	-3.120885e+02
2.900000e-06	-5.784037e-06	-4.831022e-09	-4.118164e+01	-3.160588e+02
2.910000e-06	-5.887930e-06	-4.892044e-09	-4.192135e+01	-3.198809e+02
2.920000e-06	-5.989476e-06	-4.948720e-09	-4.264434e+01	-3.235589e+02
2.930000e-06	-6.088777e-06	-5.003170e-09	-4.335135e+01	-3.270914e+02
2.940000e-06	-6.186003e-06	-5.055546e-09	-4.404359e+01	-3.304721e+02
