# Temperatura_=_48.2
# Concentracion g/m^3_=_5000.0
# C_Vs_to_Am_M_A/Vsm_=_65563218390.804596
# pendiente_HvsI_1/m_=_3716.3
# ordenada_HvsI_A/m_=_1297.0
# frecuencia_Hz_=_302564.5540336028

Tiempo_(s)	Campo_(V.s)	Magnetizacion_(V.s)	Campo_(kA/m)	Magnetizacion_(A/m)
0.000000e+00	-7.944057e-06	-5.959527e-09	-5.685466e+01	-3.896453e+02
1.000000e-08	-7.940848e-06	-5.954836e-09	-5.683169e+01	-3.893937e+02
2.000000e-08	-7.935019e-06	-5.950230e-09	-5.678998e+01	-3.890665e+02
3.000000e-08	-7.926579e-06	-5.944221e-09	-5.672957e+01	-3.886832e+02
4.000000e-08	-7.915312e-06	-5.936744e-09	-5.664893e+01	-3.882646e+02
5.000000e-08	-7.901050e-06	-5.929823e-09	-5.654686e+01	-3.878296e+02
6.000000e-08	-7.883916e-06	-5.924234e-09	-5.642424e+01	-3.873929e+02
7.000000e-08	-7.864404e-06	-5.917581e-09	-5.628459e+01	-3.869628e+02
8.000000e-08	-7.842575e-06	-5.921914e-09	-5.612836e+01	-3.865399e+02
9.000000e-08	-7.817874e-06	-5.905576e-09	-5.595158e+01	-3.861168e+02
1.000000e-07	-7.789913e-06	-5.934319e-09	-5.575147e+01	-3.856791e+02
1.100000e-07	-7.758920e-06	-5.939606e-09	-5.552965e+01	-3.852068e+02
1.200000e-07	-7.725192e-06	-5.888752e-09	-5.528827e+01	-3.846768e+02
1.300000e-07	-7.688841e-06	-5.836235e-09	-5.502811e+01	-3.840654e+02
1.400000e-07	-7.650198e-06	-5.797789e-09	-5.475154e+01	-3.833512e+02
1.500000e-07	-7.609482e-06	-5.813460e-09	-5.446014e+01	-3.825177e+02
1.600000e-07	-7.566321e-06	-5.803711e-09	-5.415125e+01	-3.815543e+02
1.700000e-07	-7.520429e-06	-5.869481e-09	-5.382280e+01	-3.804577e+02
1.800000e-07	-7.471833e-06	-5.836043e-09	-5.347500e+01	-3.792316e+02
1.900000e-07	-7.420268e-06	-5.745528e-09	-5.310596e+01	-3.778856e+02
2.000000e-07	-7.365726e-06	-5.742892e-09	-5.271561e+01	-3.764336e+02
2.100000e-07	-7.308500e-06	-5.671047e-09	-5.230605e+01	-3.748919e+02
2.200000e-07	-7.248588e-06	-5.680977e-09	-5.187727e+01	-3.732764e+02
2.300000e-07	-7.186047e-06	-5.673559e-09	-5.142967e+01	-3.716014e+02
2.400000e-07	-7.120873e-06	-5.620776e-09	-5.096323e+01	-3.698771e+02
2.500000e-07	-7.052922e-06	-5.626666e-09	-5.047691e+01	-3.681094e+02
2.600000e-07	-6.982232e-06	-5.610896e-09	-4.997099e+01	-3.662993e+02
2.700000e-07	-6.908841e-06	-5.606756e-09	-4.944574e+01	-3.644433e+02
2.800000e-07	-6.832705e-06	-5.564735e-09	-4.890084e+01	-3.625345e+02
2.900000e-07	-6.753820e-06	-5.539728e-09	-4.833627e+01	-3.605642e+02
3.000000e-07	-6.672286e-06	-5.487008e-09	-4.775274e+01	-3.585231e+02
3.100000e-07	-6.588374e-06	-5.436570e-09	-4.715220e+01	-3.564025e+02
3.200000e-07	-6.502244e-06	-5.440306e-09	-4.653577e+01	-3.541960e+02
3.300000e-07	-6.413815e-06	-5.382507e-09	-4.590290e+01	-3.518995e+02
3.400000e-07	-6.323049e-06	-5.331940e-09	-4.525330e+01	-3.495119e+02
3.500000e-07	-6.230022e-06	-5.279856e-09	-4.458751e+01	-3.470343e+02
3.600000e-07	-6.134744e-06	-5.259031e-09	-4.390562e+01	-3.444696e+02
3.700000e-07	-6.037195e-06	-5.226514e-09	-4.320748e+01	-3.418215e+02
3.800000e-07	-5.937439e-06	-5.187932e-09	-4.249353e+01	-3.390935e+02
3.900000e-07	-5.835535e-06	-5.170403e-09	-4.176422e+01	-3.362885e+02
4.000000e-07	-5.731599e-06	-5.111983e-09	-4.102036e+01	-3.334074e+02
4.100000e-07	-5.625674e-06	-5.039827e-09	-4.026227e+01	-3.304496e+02
4.200000e-07	-5.517773e-06	-4.983135e-09	-3.949004e+01	-3.274127e+02
4.300000e-07	-5.407934e-06	-4.974173e-09	-3.870393e+01	-3.242928e+02
4.400000e-07	-5.296080e-06	-4.921221e-09	-3.790340e+01	-3.210853e+02
4.500000e-07	-5.182259e-06	-4.849225e-09	-3.708880e+01	-3.177850e+02
4.600000e-07	-5.066433e-06	-4.798217e-09	-3.625985e+01	-3.143872e+02
4.700000e-07	-4.948614e-06	-4.750325e-09	-3.541664e+01	-3.108878e+02
4.800000e-07	-4.829003e-06	-4.685974e-09	-3.456059e+01	-3.072834e+02
4.900000e-07	-4.707605e-06	-4.626397e-09	-3.369176e+01	-3.035714e+02
5.000000e-07	-4.584438e-06	-4.580368e-09	-3.281027e+01	-2.997501e+02
5.100000e-07	-4.459617e-06	-4.510870e-09	-3.191694e+01	-2.958178e+02
5.200000e-07	-4.333181e-06	-4.446003e-09	-3.101205e+01	-2.917728e+02
5.300000e-07	-4.205129e-06	-4.392558e-09	-3.009560e+01	-2.876134e+02
5.400000e-07	-4.075611e-06	-4.334415e-09	-2.916865e+01	-2.833370e+02
5.500000e-07	-3.944639e-06	-4.251429e-09	-2.823131e+01	-2.789410e+02
5.600000e-07	-3.812088e-06	-4.176942e-09	-2.728266e+01	-2.744223e+02
5.700000e-07	-3.678011e-06	-4.112145e-09	-2.632308e+01	-2.697781e+02
5.800000e-07	-3.542535e-06	-4.032126e-09	-2.535350e+01	-2.650059e+02
5.900000e-07	-3.405720e-06	-3.947813e-09	-2.437433e+01	-2.601036e+02
6.000000e-07	-3.267677e-06	-3.874331e-09	-2.338637e+01	-2.550700e+02
6.100000e-07	-3.128207e-06	-3.802060e-09	-2.238820e+01	-2.499044e+02
6.200000e-07	-2.987287e-06	-3.714331e-09	-2.137965e+01	-2.446059e+02
6.300000e-07	-2.845232e-06	-3.633286e-09	-2.036298e+01	-2.391733e+02
6.400000e-07	-2.702111e-06	-3.559319e-09	-1.933868e+01	-2.336041e+02
6.500000e-07	-2.558016e-06	-3.476199e-09	-1.830742e+01	-2.278935e+02
6.600000e-07	-2.412974e-06	-3.380378e-09	-1.726936e+01	-2.220345e+02
6.700000e-07	-2.266937e-06	-3.283764e-09	-1.622419e+01	-2.160169e+02
6.800000e-07	-2.120120e-06	-3.185515e-09	-1.517344e+01	-2.098281e+02
6.900000e-07	-1.972697e-06	-3.080840e-09	-1.411835e+01	-2.034532e+02
7.000000e-07	-1.824630e-06	-2.977501e-09	-1.305865e+01	-1.968760e+02
7.100000e-07	-1.676000e-06	-2.876418e-09	-1.199493e+01	-1.900803e+02
7.200000e-07	-1.526923e-06	-2.771930e-09	-1.092801e+01	-1.830510e+02
7.300000e-07	-1.377435e-06	-2.658721e-09	-9.858133e+00	-1.757755e+02
7.400000e-07	-1.227521e-06	-2.545017e-09	-8.785217e+00	-1.682439e+02
7.500000e-07	-1.077113e-06	-2.429389e-09	-7.708765e+00	-1.604495e+02
7.600000e-07	-9.263084e-07	-2.311167e-09	-6.629477e+00	-1.523882e+02
7.700000e-07	-7.752334e-07	-2.185700e-09	-5.548252e+00	-1.440570e+02
7.800000e-07	-6.238127e-07	-2.052496e-09	-4.464552e+00	-1.354523e+02
7.900000e-07	-4.721289e-07	-1.912915e-09	-3.378970e+00	-1.265678e+02
8.000000e-07	-3.203393e-07	-1.767557e-09	-2.292630e+00	-1.173922e+02
8.100000e-07	-1.684541e-07	-1.623150e-09	-1.205605e+00	-1.079075e+02
8.200000e-07	-1.646228e-08	-1.471474e-09	-1.178185e-01	-9.808810e+01
8.300000e-07	1.356392e-07	-1.311691e-09	9.707531e-01	-8.790081e+01
8.400000e-07	2.877267e-07	-1.145786e-09	2.059226e+00	-7.730654e+01
8.500000e-07	4.397174e-07	-9.755001e-10	3.147005e+00	-6.626314e+01
8.600000e-07	5.915859e-07	-8.010941e-10	4.233909e+00	-5.472963e+01
8.700000e-07	7.433134e-07	-6.196424e-10	5.319804e+00	-4.267132e+01
8.800000e-07	8.947948e-07	-4.331293e-10	6.403939e+00	-3.006537e+01
8.900000e-07	1.045954e-06	-2.373990e-10	7.485765e+00	-1.690624e+01
9.000000e-07	1.196769e-06	-3.239822e-11	8.565132e+00	-3.210229e+00
9.100000e-07	1.347123e-06	1.803363e-10	9.641198e+00	1.098134e+01
9.200000e-07	1.496992e-06	4.008627e-10	1.071379e+01	2.560090e+01
9.300000e-07	1.646364e-06	6.297378e-10	1.178283e+01	4.055562e+01
9.400000e-07	1.795191e-06	8.645754e-10	1.284796e+01	5.573071e+01
9.500000e-07	1.943353e-06	1.099529e-09	1.390834e+01	7.099484e+01
9.600000e-07	2.090738e-06	1.334790e-09	1.496316e+01	8.620711e+01
9.700000e-07	2.237384e-06	1.566499e-09	1.601269e+01	1.012252e+02
9.800000e-07	2.383236e-06	1.788531e-09	1.705654e+01	1.159136e+02
9.900000e-07	2.528132e-06	2.001110e-09	1.809353e+01	1.301515e+02
1.000000e-06	2.672042e-06	2.203693e-09	1.912348e+01	1.438391e+02
1.010000e-06	2.814957e-06	2.399413e-09	2.014631e+01	1.569021e+02
1.020000e-06	2.956840e-06	2.584621e-09	2.116175e+01	1.692942e+02
1.030000e-06	3.097557e-06	2.757441e-09	2.216884e+01	1.809966e+02
1.040000e-06	3.236886e-06	2.923161e-09	2.316600e+01	1.920157e+02
1.050000e-06	3.374883e-06	3.079924e-09	2.415363e+01	2.023790e+02
1.060000e-06	3.511672e-06	3.231013e-09	2.513262e+01	2.121289e+02
1.070000e-06	3.647106e-06	3.373613e-09	2.610190e+01	2.213172e+02
1.080000e-06	3.781177e-06	3.509792e-09	2.706143e+01	2.299985e+02
1.090000e-06	3.913936e-06	3.637544e-09	2.801157e+01	2.382254e+02
1.100000e-06	4.045273e-06	3.757049e-09	2.895153e+01	2.460444e+02
1.110000e-06	4.175208e-06	3.873863e-09	2.988146e+01	2.534933e+02
1.120000e-06	4.303719e-06	3.983813e-09	3.080120e+01	2.606010e+02
1.130000e-06	4.430669e-06	4.084046e-09	3.170977e+01	2.673880e+02
1.140000e-06	4.556136e-06	4.175859e-09	3.260772e+01	2.738685e+02
1.150000e-06	4.680079e-06	4.266301e-09	3.349476e+01	2.800527e+02
1.160000e-06	4.802311e-06	4.357792e-09	3.436956e+01	2.859501e+02
1.170000e-06	4.922842e-06	4.444635e-09	3.523219e+01	2.915712e+02
1.180000e-06	5.041603e-06	4.524816e-09	3.608214e+01	2.969299e+02
1.190000e-06	5.158449e-06	4.601647e-09	3.691840e+01	3.020434e+02
1.200000e-06	5.273307e-06	4.679726e-09	3.774042e+01	3.069322e+02
1.210000e-06	5.386121e-06	4.757434e-09	3.854782e+01	3.116189e+02
1.220000e-06	5.496927e-06	4.828880e-09	3.934084e+01	3.161257e+02
1.230000e-06	5.605852e-06	4.891751e-09	4.012041e+01	3.204726e+02
1.240000e-06	5.712852e-06	4.949920e-09	4.088619e+01	3.246751e+02
1.250000e-06	5.817716e-06	5.008753e-09	4.163669e+01	3.287427e+02
1.260000e-06	5.920406e-06	5.067265e-09	4.237163e+01	3.326782e+02
1.270000e-06	6.020957e-06	5.124155e-09	4.309126e+01	3.364780e+02
1.280000e-06	6.119209e-06	5.177424e-09	4.379444e+01	3.401330e+02
1.290000e-06	6.215070e-06	5.228705e-09	4.448051e+01	3.436310e+02
1.300000e-06	6.308695e-06	5.279241e-09	4.515057e+01	3.469591e+02
1.310000e-06	6.400174e-06	5.328498e-09	4.580527e+01	3.501060e+02
1.320000e-06	6.489365e-06	5.374257e-09	4.644360e+01	3.530646e+02
1.330000e-06	6.576193e-06	5.414600e-09	4.706502e+01	3.558337e+02
1.340000e-06	6.660748e-06	5.451357e-09	4.767017e+01	3.584186e+02
1.350000e-06	6.743018e-06	5.486854e-09	4.825897e+01	3.608310e+02
1.360000e-06	6.822828e-06	5.521912e-09	4.883016e+01	3.630879e+02
1.370000e-06	6.900106e-06	5.556430e-09	4.938323e+01	3.652093e+02
1.380000e-06	6.974751e-06	5.589234e-09	4.991745e+01	3.672163e+02
1.390000e-06	7.046735e-06	5.619675e-09	5.043263e+01	3.691280e+02
1.400000e-06	7.116231e-06	5.647649e-09	5.093001e+01	3.709599e+02
1.410000e-06	7.183219e-06	5.673828e-09	5.140943e+01	3.727219e+02
1.420000e-06	7.247619e-06	5.698875e-09	5.187034e+01	3.744176e+02
1.430000e-06	7.309538e-06	5.723004e-09	5.231348e+01	3.760448e+02
1.440000e-06	7.368996e-06	5.745917e-09	5.273901e+01	3.775964e+02
1.450000e-06	7.425836e-06	5.766778e-09	5.314581e+01	3.790624e+02
1.460000e-06	7.479976e-06	5.785514e-09	5.353329e+01	3.804322e+02
1.470000e-06	7.531096e-06	5.801328e-09	5.389915e+01	3.816964e+02
1.480000e-06	7.579102e-06	5.817100e-09	5.424272e+01	3.828496e+02
1.490000e-06	7.624443e-06	5.833643e-09	5.456722e+01	3.838911e+02
1.500000e-06	7.667204e-06	5.848993e-09	5.487325e+01	3.848252e+02
1.510000e-06	7.707125e-06	5.863128e-09	5.515897e+01	3.856615e+02
1.520000e-06	7.744306e-06	5.875925e-09	5.542507e+01	3.864129e+02
1.530000e-06	7.778801e-06	5.887871e-09	5.567194e+01	3.870941e+02
1.540000e-06	7.810446e-06	5.898189e-09	5.589842e+01	3.877191e+02
1.550000e-06	7.839395e-06	5.906537e-09	5.610560e+01	3.882991e+02
1.560000e-06	7.865584e-06	5.914700e-09	5.629304e+01	3.888410e+02
1.570000e-06	7.888834e-06	5.924319e-09	5.645943e+01	3.893459e+02
1.580000e-06	7.909317e-06	5.932044e-09	5.660602e+01	3.898091e+02
1.590000e-06	7.926965e-06	5.935096e-09	5.673233e+01	3.902209e+02
1.600000e-06	7.941610e-06	5.937975e-09	5.683714e+01	3.905683e+02
1.610000e-06	7.953181e-06	5.942855e-09	5.691996e+01	3.908367e+02
1.620000e-06	7.961637e-06	5.946625e-09	5.698047e+01	3.910130e+02
1.630000e-06	7.967230e-06	5.947271e-09	5.702050e+01	3.910874e+02
1.640000e-06	7.970108e-06	5.947446e-09	5.704110e+01	3.910557e+02
1.650000e-06	7.970164e-06	5.945642e-09	5.704150e+01	3.909201e+02
1.660000e-06	7.967527e-06	5.944884e-09	5.702263e+01	3.906896e+02
1.670000e-06	7.962266e-06	5.937954e-09	5.698497e+01	3.903790e+02
1.680000e-06	7.954321e-06	5.931169e-09	5.692811e+01	3.900072e+02
1.690000e-06	7.943745e-06	5.926088e-09	5.685243e+01	3.895950e+02
1.700000e-06	7.930352e-06	5.921716e-09	5.675657e+01	3.891620e+02
1.710000e-06	7.914215e-06	5.917270e-09	5.664108e+01	3.887241e+02
1.720000e-06	7.895752e-06	5.907276e-09	5.650895e+01	3.882914e+02
1.730000e-06	7.874956e-06	5.883791e-09	5.636011e+01	3.878664e+02
1.740000e-06	7.851235e-06	5.881567e-09	5.619034e+01	3.874439e+02
1.750000e-06	7.823992e-06	5.839070e-09	5.599536e+01	3.870111e+02
1.760000e-06	7.793263e-06	5.831758e-09	5.577544e+01	3.865490e+02
1.770000e-06	7.759661e-06	5.859155e-09	5.553496e+01	3.860350e+02
1.780000e-06	7.723673e-06	5.892573e-09	5.527740e+01	3.854455e+02
1.790000e-06	7.685394e-06	5.862569e-09	5.500344e+01	3.847583e+02
1.800000e-06	7.645109e-06	5.869032e-09	5.471512e+01	3.839553e+02
1.810000e-06	7.602584e-06	5.826055e-09	5.441078e+01	3.830244e+02
1.820000e-06	7.557361e-06	5.756129e-09	5.408712e+01	3.819604e+02
1.830000e-06	7.509548e-06	5.844782e-09	5.374493e+01	3.807655e+02
1.840000e-06	7.458884e-06	5.788817e-09	5.338233e+01	3.794477e+02
1.850000e-06	7.405172e-06	5.835089e-09	5.299792e+01	3.780202e+02
1.860000e-06	7.348697e-06	5.774632e-09	5.259373e+01	3.764987e+02
1.870000e-06	7.289581e-06	5.668463e-09	5.217065e+01	3.748997e+02
1.880000e-06	7.227822e-06	5.694249e-09	5.172865e+01	3.732379e+02
1.890000e-06	7.163289e-06	5.599908e-09	5.126679e+01	3.715246e+02
1.900000e-06	7.095991e-06	5.629982e-09	5.078515e+01	3.697670e+02
1.910000e-06	7.025906e-06	5.606705e-09	5.028356e+01	3.679670e+02
1.920000e-06	6.953043e-06	5.568756e-09	4.976209e+01	3.661225e+02
1.930000e-06	6.877567e-06	5.512585e-09	4.922192e+01	3.642271e+02
1.940000e-06	6.799335e-06	5.475662e-09	4.866202e+01	3.622725e+02
1.950000e-06	6.718503e-06	5.530433e-09	4.808351e+01	3.602494e+02
1.960000e-06	6.635258e-06	5.446706e-09	4.748774e+01	3.581488e+02
1.970000e-06	6.549602e-06	5.422896e-09	4.687471e+01	3.559636e+02
1.980000e-06	6.461486e-06	5.369529e-09	4.624408e+01	3.536893e+02
1.990000e-06	6.371020e-06	5.340363e-09	4.559662e+01	3.513239e+02
2.000000e-06	6.278422e-06	5.309642e-09	4.493391e+01	3.488680e+02
2.010000e-06	6.183478e-06	5.274676e-09	4.425441e+01	3.463242e+02
2.020000e-06	6.086236e-06	5.262989e-09	4.355846e+01	3.436960e+02
2.030000e-06	5.986870e-06	5.167969e-09	4.284731e+01	3.409872e+02
2.040000e-06	5.885430e-06	5.119956e-09	4.212131e+01	3.382007e+02
2.050000e-06	5.781901e-06	5.097121e-09	4.138037e+01	3.353380e+02
2.060000e-06	5.676310e-06	5.103170e-09	4.062467e+01	3.323990e+02
2.070000e-06	5.568806e-06	5.031504e-09	3.985527e+01	3.293816e+02
2.080000e-06	5.459381e-06	4.966029e-09	3.907213e+01	3.262824e+02
2.090000e-06	5.347964e-06	4.910521e-09	3.827473e+01	3.230966e+02
2.100000e-06	5.234500e-06	4.853208e-09	3.746269e+01	3.198195e+02
2.110000e-06	5.119096e-06	4.823067e-09	3.663675e+01	3.164459e+02
2.120000e-06	5.001733e-06	4.797411e-09	3.579680e+01	3.129717e+02
2.130000e-06	4.882404e-06	4.746691e-09	3.494277e+01	3.093932e+02
2.140000e-06	4.761208e-06	4.649376e-09	3.407539e+01	3.057078e+02
2.150000e-06	4.638252e-06	4.588446e-09	3.319541e+01	3.019134e+02
2.160000e-06	4.513641e-06	4.546489e-09	3.230359e+01	2.980084e+02
2.170000e-06	4.387434e-06	4.503596e-09	3.140034e+01	2.939912e+02
2.180000e-06	4.259604e-06	4.428706e-09	3.048547e+01	2.898600e+02
2.190000e-06	4.130195e-06	4.359938e-09	2.955931e+01	2.856126e+02
2.200000e-06	3.999248e-06	4.282894e-09	2.862213e+01	2.812462e+02
2.210000e-06	3.866806e-06	4.214628e-09	2.767426e+01	2.767579e+02
2.220000e-06	3.733024e-06	4.164765e-09	2.671680e+01	2.721448e+02
2.230000e-06	3.597762e-06	4.110480e-09	2.574875e+01	2.674042e+02
2.240000e-06	3.461024e-06	4.026053e-09	2.477013e+01	2.625340e+02
2.250000e-06	3.322945e-06	3.931865e-09	2.378191e+01	2.575327e+02
2.260000e-06	3.183654e-06	3.863021e-09	2.278503e+01	2.523996e+02
2.270000e-06	3.043210e-06	3.795057e-09	2.177989e+01	2.471339e+02
2.280000e-06	2.901560e-06	3.711685e-09	2.076611e+01	2.417344e+02
2.290000e-06	2.758763e-06	3.615776e-09	1.974414e+01	2.361991e+02
2.300000e-06	2.614915e-06	3.521937e-09	1.871463e+01	2.305239e+02
2.310000e-06	2.470159e-06	3.426795e-09	1.767863e+01	2.247023e+02
2.320000e-06	2.324635e-06	3.346144e-09	1.663713e+01	2.187249e+02
2.330000e-06	2.178332e-06	3.273106e-09	1.559006e+01	2.125797e+02
2.340000e-06	2.031240e-06	3.183277e-09	1.453734e+01	2.062522e+02
2.350000e-06	1.883437e-06	3.069164e-09	1.347953e+01	1.997265e+02
2.360000e-06	1.735012e-06	2.955868e-09	1.241727e+01	1.929863e+02
2.370000e-06	1.586116e-06	2.856148e-09	1.135164e+01	1.860162e+02
2.380000e-06	1.436779e-06	2.755771e-09	1.028285e+01	1.788027e+02
2.390000e-06	1.287058e-06	2.643019e-09	9.211318e+00	1.713353e+02
2.400000e-06	1.136952e-06	2.517948e-09	8.137026e+00	1.636066e+02
2.410000e-06	9.864278e-07	2.387989e-09	7.059745e+00	1.556117e+02
2.420000e-06	8.354747e-07	2.262268e-09	5.979392e+00	1.473477e+02
2.430000e-06	6.841496e-07	2.143954e-09	4.896376e+00	1.388113e+02
2.440000e-06	5.325844e-07	2.022101e-09	3.811642e+00	1.299970e+02
2.450000e-06	3.807444e-07	1.885046e-09	2.724941e+00	1.208950e+02
2.460000e-06	2.286951e-07	1.735075e-09	1.636744e+00	1.114891e+02
2.470000e-06	7.659903e-08	1.582188e-09	5.482100e-01	1.017556e+02
2.480000e-06	-7.555826e-08	1.428180e-09	-5.407614e-01	9.166323e+01
2.490000e-06	-2.277299e-07	1.268444e-09	-1.629836e+00	8.117403e+01
2.500000e-06	-3.798213e-07	1.101132e-09	-2.718335e+00	7.024632e+01
2.510000e-06	-5.318082e-07	9.257331e-10	-3.806087e+00	5.883837e+01
2.520000e-06	-6.836327e-07	7.428591e-10	-4.892677e+00	4.691339e+01
2.530000e-06	-8.352217e-07	5.567011e-10	-5.977581e+00	3.444508e+01
2.540000e-06	-9.864644e-07	3.665011e-10	-7.060007e+00	2.142307e+01
2.550000e-06	-1.137239e-06	1.621851e-10	-8.139080e+00	7.857858e+00
2.560000e-06	-1.287502e-06	-5.854706e-11	-9.214497e+00	-6.215695e+00
2.570000e-06	-1.437296e-06	-2.851711e-10	-1.028655e+01	-2.073657e+01
2.580000e-06	-1.586643e-06	-5.121107e-10	-1.135541e+01	-3.561804e+01
2.590000e-06	-1.735494e-06	-7.433746e-10	-1.242072e+01	-5.075039e+01
2.600000e-06	-1.883752e-06	-9.803432e-10	-1.348179e+01	-6.600578e+01
2.610000e-06	-2.031293e-06	-1.218326e-09	-1.453772e+01	-8.124501e+01
2.620000e-06	-2.177987e-06	-1.453418e-09	-1.558759e+01	-9.632531e+01
2.630000e-06	-2.323795e-06	-1.681420e-09	-1.663112e+01	-1.111087e+02
2.640000e-06	-2.468871e-06	-1.898877e-09	-1.766941e+01	-1.254701e+02
2.650000e-06	-2.613080e-06	-2.106768e-09	-1.870150e+01	-1.393038e+02
2.660000e-06	-2.756097e-06	-2.308053e-09	-1.972505e+01	-1.525290e+02
2.670000e-06	-2.897946e-06	-2.501991e-09	-2.074025e+01	-1.650922e+02
2.680000e-06	-3.038679e-06	-2.682958e-09	-2.174746e+01	-1.769679e+02
2.690000e-06	-3.178183e-06	-2.851778e-09	-2.274587e+01	-1.881566e+02
2.700000e-06	-3.316452e-06	-3.011054e-09	-2.373545e+01	-1.986809e+02
2.710000e-06	-3.453571e-06	-3.161222e-09	-2.471679e+01	-2.085801e+02
2.720000e-06	-3.589409e-06	-3.305253e-09	-2.568897e+01	-2.179042e+02
2.730000e-06	-3.723862e-06	-3.443714e-09	-2.665123e+01	-2.267078e+02
2.740000e-06	-3.857050e-06	-3.575377e-09	-2.760444e+01	-2.350442e+02
2.750000e-06	-3.988887e-06	-3.697482e-09	-2.854798e+01	-2.429618e+02
2.760000e-06	-4.119250e-06	-3.812936e-09	-2.948097e+01	-2.505007e+02
2.770000e-06	-4.248280e-06	-3.924776e-09	-3.040443e+01	-2.576921e+02
2.780000e-06	-4.375817e-06	-4.031247e-09	-3.131719e+01	-2.645583e+02
2.790000e-06	-4.501734e-06	-4.130145e-09	-3.221837e+01	-2.711149e+02
2.800000e-06	-4.626114e-06	-4.219986e-09	-3.310854e+01	-2.773729e+02
2.810000e-06	-4.748864e-06	-4.305015e-09	-3.398705e+01	-2.833416e+02
2.820000e-06	-4.869946e-06	-4.388238e-09	-3.485361e+01	-2.890312e+02
2.830000e-06	-4.989213e-06	-4.472838e-09	-3.570719e+01	-2.944546e+02
2.840000e-06	-5.106508e-06	-4.556578e-09	-3.654666e+01	-2.996281e+02
2.850000e-06	-5.221764e-06	-4.635112e-09	-3.737153e+01	-3.045716e+02
2.860000e-06	-5.334873e-06	-4.709865e-09	-3.818104e+01	-3.093073e+02
2.870000e-06	-5.445834e-06	-4.780047e-09	-3.897517e+01	-3.138576e+02
2.880000e-06	-5.554786e-06	-4.850235e-09	-3.975493e+01	-3.182434e+02
2.890000e-06	-5.661863e-06	-4.919364e-09	-4.052127e+01	-3.224814e+02
2.900000e-06	-5.767104e-06	-4.984251e-09	-4.127447e+01	-3.265828e+02
2.910000e-06	-5.870263e-06	-5.046525e-09	-4.201276e+01	-3.305520e+02
2.920000e-06	-5.971086e-06	-5.103808e-09	-4.273434e+01	-3.343869e+02
2.930000e-06	-6.069711e-06	-5.160922e-09	-4.344019e+01	-3.380797e+02
2.940000e-06	-6.166274e-06	-5.216225e-09	-4.413128e+01	-3.416188e+02
