# Temperatura_=_38.31
# Concentracion g/m^3_=_5000.0
# C_Vs_to_Am_M_A/Vsm_=_65563218390.804596
# pendiente_HvsI_1/m_=_3716.3
# ordenada_HvsI_A/m_=_1297.0
# frecuencia_Hz_=_302576.96878473554

Tiempo_(s)	Campo_(V.s)	Magnetizacion_(V.s)	Campo_(kA/m)	Magnetizacion_(A/m)
0.000000e+00	-7.950752e-06	-5.664202e-09	-5.685199e+01	-3.707294e+02
1.000000e-08	-7.947639e-06	-5.659413e-09	-5.682974e+01	-3.705031e+02
2.000000e-08	-7.941861e-06	-5.651428e-09	-5.678842e+01	-3.702191e+02
3.000000e-08	-7.933502e-06	-5.646533e-09	-5.672865e+01	-3.698971e+02
4.000000e-08	-7.922352e-06	-5.642745e-09	-5.664892e+01	-3.695571e+02
5.000000e-08	-7.908244e-06	-5.636762e-09	-5.654804e+01	-3.692159e+02
6.000000e-08	-7.891248e-06	-5.628503e-09	-5.642651e+01	-3.688848e+02
7.000000e-08	-7.871839e-06	-5.617951e-09	-5.628772e+01	-3.685679e+02
8.000000e-08	-7.850114e-06	-5.642291e-09	-5.613238e+01	-3.682608e+02
9.000000e-08	-7.825446e-06	-5.661684e-09	-5.595599e+01	-3.679508e+02
1.000000e-07	-7.797549e-06	-5.645621e-09	-5.575652e+01	-3.676186e+02
1.100000e-07	-7.766698e-06	-5.626902e-09	-5.553592e+01	-3.672400e+02
1.200000e-07	-7.733063e-06	-5.597566e-09	-5.529540e+01	-3.667888e+02
1.300000e-07	-7.696771e-06	-5.548213e-09	-5.503590e+01	-3.662404e+02
1.400000e-07	-7.658211e-06	-5.488687e-09	-5.476018e+01	-3.655740e+02
1.500000e-07	-7.617575e-06	-5.538584e-09	-5.446961e+01	-3.647758e+02
1.600000e-07	-7.574496e-06	-5.610856e-09	-5.416157e+01	-3.638400e+02
1.700000e-07	-7.528651e-06	-5.543895e-09	-5.383375e+01	-3.627693e+02
1.800000e-07	-7.480094e-06	-5.574905e-09	-5.348655e+01	-3.615747e+02
1.900000e-07	-7.428544e-06	-5.512505e-09	-5.311794e+01	-3.602731e+02
2.000000e-07	-7.374009e-06	-5.432715e-09	-5.272798e+01	-3.588858e+02
2.100000e-07	-7.316758e-06	-5.445042e-09	-5.231861e+01	-3.574352e+02
2.200000e-07	-7.256858e-06	-5.422198e-09	-5.189029e+01	-3.559421e+02
2.300000e-07	-7.194408e-06	-5.438723e-09	-5.144375e+01	-3.544235e+02
2.400000e-07	-7.129199e-06	-5.362689e-09	-5.097746e+01	-3.528905e+02
2.500000e-07	-7.061185e-06	-5.353381e-09	-5.049113e+01	-3.513477e+02
2.600000e-07	-6.990550e-06	-5.362819e-09	-4.998605e+01	-3.497933e+02
2.700000e-07	-6.917196e-06	-5.346838e-09	-4.946154e+01	-3.482195e+02
2.800000e-07	-6.841114e-06	-5.309255e-09	-4.891751e+01	-3.466146e+02
2.900000e-07	-6.762247e-06	-5.286011e-09	-4.835357e+01	-3.449646e+02
3.000000e-07	-6.680681e-06	-5.287367e-09	-4.777033e+01	-3.432553e+02
3.100000e-07	-6.596770e-06	-5.227442e-09	-4.717032e+01	-3.414742e+02
3.200000e-07	-6.510642e-06	-5.204436e-09	-4.655446e+01	-3.396120e+02
3.300000e-07	-6.422196e-06	-5.183591e-09	-4.592203e+01	-3.376630e+02
3.400000e-07	-6.331365e-06	-5.122355e-09	-4.527254e+01	-3.356253e+02
3.500000e-07	-6.238298e-06	-5.069454e-09	-4.460706e+01	-3.335006e+02
3.600000e-07	-6.143003e-06	-5.057807e-09	-4.392565e+01	-3.312927e+02
3.700000e-07	-6.045419e-06	-5.050210e-09	-4.322788e+01	-3.290066e+02
3.800000e-07	-5.945616e-06	-5.009770e-09	-4.251423e+01	-3.266470e+02
3.900000e-07	-5.843695e-06	-4.972633e-09	-4.178545e+01	-3.242173e+02
4.000000e-07	-5.739741e-06	-4.925671e-09	-4.104212e+01	-3.217188e+02
4.100000e-07	-5.633747e-06	-4.867258e-09	-4.028421e+01	-3.191503e+02
4.200000e-07	-5.525752e-06	-4.825165e-09	-3.951199e+01	-3.165085e+02
4.300000e-07	-5.415867e-06	-4.810956e-09	-3.872625e+01	-3.137884e+02
4.400000e-07	-5.304057e-06	-4.774681e-09	-3.792675e+01	-3.109838e+02
4.500000e-07	-5.190157e-06	-4.713245e-09	-3.711231e+01	-3.080889e+02
4.600000e-07	-5.074152e-06	-4.657960e-09	-3.628282e+01	-3.050980e+02
4.700000e-07	-4.956167e-06	-4.613354e-09	-3.543916e+01	-3.020071e+02
4.800000e-07	-4.836365e-06	-4.562742e-09	-3.458252e+01	-2.988133e+02
4.900000e-07	-4.714908e-06	-4.512615e-09	-3.371404e+01	-2.955152e+02
5.000000e-07	-4.591684e-06	-4.465747e-09	-3.283292e+01	-2.921119e+02
5.100000e-07	-4.466742e-06	-4.403657e-09	-3.193952e+01	-2.886030e+02
5.200000e-07	-4.340216e-06	-4.345935e-09	-3.103480e+01	-2.849876e+02
5.300000e-07	-4.212145e-06	-4.298821e-09	-3.011902e+01	-2.812636e+02
5.400000e-07	-4.082539e-06	-4.243713e-09	-2.919227e+01	-2.774278e+02
5.500000e-07	-3.951383e-06	-4.168445e-09	-2.825444e+01	-2.734755e+02
5.600000e-07	-3.818800e-06	-4.105351e-09	-2.730640e+01	-2.694011e+02
5.700000e-07	-3.684761e-06	-4.048880e-09	-2.634795e+01	-2.651984e+02
5.800000e-07	-3.549278e-06	-3.976657e-09	-2.537918e+01	-2.608618e+02
5.900000e-07	-3.412476e-06	-3.899070e-09	-2.440097e+01	-2.563862e+02
6.000000e-07	-3.274331e-06	-3.833038e-09	-2.341317e+01	-2.517682e+02
6.100000e-07	-3.134687e-06	-3.763195e-09	-2.241463e+01	-2.470061e+02
6.200000e-07	-2.993651e-06	-3.680290e-09	-2.140615e+01	-2.420997e+02
6.300000e-07	-2.851485e-06	-3.607715e-09	-2.038960e+01	-2.370497e+02
6.400000e-07	-2.708244e-06	-3.539646e-09	-1.936535e+01	-2.318567e+02
6.500000e-07	-2.563996e-06	-3.459663e-09	-1.833390e+01	-2.265206e+02
6.600000e-07	-2.418795e-06	-3.366067e-09	-1.729563e+01	-2.210386e+02
6.700000e-07	-2.272728e-06	-3.275682e-09	-1.625118e+01	-2.154051e+02
6.800000e-07	-2.125911e-06	-3.185913e-09	-1.520137e+01	-2.096107e+02
6.900000e-07	-1.978427e-06	-3.090223e-09	-1.414678e+01	-2.036425e+02
7.000000e-07	-1.830341e-06	-2.995513e-09	-1.308789e+01	-1.974843e+02
7.100000e-07	-1.681699e-06	-2.900035e-09	-1.202502e+01	-1.911180e+02
7.200000e-07	-1.532583e-06	-2.797209e-09	-1.095876e+01	-1.845249e+02
7.300000e-07	-1.382974e-06	-2.688280e-09	-9.888981e+00	-1.776873e+02
7.400000e-07	-1.232861e-06	-2.580830e-09	-8.815598e+00	-1.705898e+02
7.500000e-07	-1.082353e-06	-2.472424e-09	-7.739385e+00	-1.632204e+02
7.600000e-07	-9.314966e-07	-2.360173e-09	-6.660683e+00	-1.555707e+02
7.700000e-07	-7.803313e-07	-2.238443e-09	-5.579773e+00	-1.476354e+02
7.800000e-07	-6.289330e-07	-2.111893e-09	-4.497197e+00	-1.394112e+02
7.900000e-07	-4.772657e-07	-1.980371e-09	-3.412697e+00	-1.308948e+02
8.000000e-07	-3.254184e-07	-1.841732e-09	-2.326910e+00	-1.220805e+02
8.100000e-07	-1.734856e-07	-1.699169e-09	-1.240512e+00	-1.129584e+02
8.200000e-07	-2.144587e-08	-1.552314e-09	-1.533491e-01	-1.035120e+02
8.300000e-07	1.306651e-07	-1.400277e-09	9.343229e-01	-9.371778e+01
8.400000e-07	2.827783e-07	-1.240020e-09	2.022012e+00	-8.354531e+01
8.500000e-07	4.348262e-07	-1.076656e-09	3.109233e+00	-7.295893e+01
8.600000e-07	5.867511e-07	-9.087725e-10	4.195575e+00	-6.192091e+01
8.700000e-07	7.385067e-07	-7.363746e-10	5.280705e+00	-5.039580e+01
8.800000e-07	8.900445e-07	-5.563321e-10	6.364279e+00	-3.835568e+01
8.900000e-07	1.041309e-06	-3.666990e-10	7.445898e+00	-2.578561e+01
9.000000e-07	1.192243e-06	-1.698525e-10	8.525153e+00	-1.268884e+01
9.100000e-07	1.342757e-06	3.380295e-11	9.601407e+00	9.090574e-01
9.200000e-07	1.492794e-06	2.459093e-10	1.067425e+01	1.495768e+01
9.300000e-07	1.642342e-06	4.669802e-10	1.174360e+01	2.938126e+01
9.400000e-07	1.791314e-06	6.908495e-10	1.280882e+01	4.408050e+01
9.500000e-07	1.939619e-06	9.175169e-10	1.386928e+01	5.893660e+01
9.600000e-07	2.087246e-06	1.144946e-09	1.492489e+01	7.381723e+01
9.700000e-07	2.234135e-06	1.369794e-09	1.597522e+01	8.858397e+01
9.800000e-07	2.380147e-06	1.588281e-09	1.701928e+01	1.031004e+02
9.900000e-07	2.525195e-06	1.799643e-09	1.805645e+01	1.172401e+02
1.000000e-06	2.669272e-06	2.003272e-09	1.908668e+01	1.308940e+02
1.010000e-06	2.812340e-06	2.199368e-09	2.010969e+01	1.439755e+02
1.020000e-06	2.954355e-06	2.386356e-09	2.112517e+01	1.564243e+02
1.030000e-06	3.095202e-06	2.562484e-09	2.213230e+01	1.682074e+02
1.040000e-06	3.234705e-06	2.730295e-09	2.312982e+01	1.793179e+02
1.050000e-06	3.372887e-06	2.889983e-09	2.411789e+01	1.897713e+02
1.060000e-06	3.509738e-06	3.041135e-09	2.509644e+01	1.996012e+02
1.070000e-06	3.645231e-06	3.181778e-09	2.606529e+01	2.088530e+02
1.080000e-06	3.779509e-06	3.314610e-09	2.702545e+01	2.175779e+02
1.090000e-06	3.912474e-06	3.440474e-09	2.797622e+01	2.258275e+02
1.100000e-06	4.043970e-06	3.561771e-09	2.891648e+01	2.336495e+02
1.110000e-06	4.174002e-06	3.680636e-09	2.984628e+01	2.410842e+02
1.120000e-06	4.302576e-06	3.792240e-09	3.076564e+01	2.481633e+02
1.130000e-06	4.429660e-06	3.894888e-09	3.167436e+01	2.549104e+02
1.140000e-06	4.555290e-06	3.989861e-09	3.257269e+01	2.613418e+02
1.150000e-06	4.679381e-06	4.081187e-09	3.346000e+01	2.674692e+02
1.160000e-06	4.801793e-06	4.168032e-09	3.433531e+01	2.733021e+02
1.170000e-06	4.922470e-06	4.248807e-09	3.519821e+01	2.788504e+02
1.180000e-06	5.041338e-06	4.325175e-09	3.604818e+01	2.841264e+02
1.190000e-06	5.158367e-06	4.399186e-09	3.688499e+01	2.891455e+02
1.200000e-06	5.273461e-06	4.474615e-09	3.770798e+01	2.939261e+02
1.210000e-06	5.386483e-06	4.549739e-09	3.851614e+01	2.984893e+02
1.220000e-06	5.497478e-06	4.620636e-09	3.930982e+01	3.028565e+02
1.230000e-06	5.606603e-06	4.684510e-09	4.009012e+01	3.070476e+02
1.240000e-06	5.713747e-06	4.742550e-09	4.085625e+01	3.110790e+02
1.250000e-06	5.818720e-06	4.798068e-09	4.160686e+01	3.149621e+02
1.260000e-06	5.921556e-06	4.853250e-09	4.234219e+01	3.187019e+02
1.270000e-06	6.022263e-06	4.905751e-09	4.306230e+01	3.222976e+02
1.280000e-06	6.120686e-06	4.953472e-09	4.376607e+01	3.257431e+02
1.290000e-06	6.216800e-06	4.999971e-09	4.445334e+01	3.290289e+02
1.300000e-06	6.310691e-06	5.047308e-09	4.512471e+01	3.321443e+02
1.310000e-06	6.402317e-06	5.094374e-09	4.577989e+01	3.350797e+02
1.320000e-06	6.491642e-06	5.136815e-09	4.641861e+01	3.378293e+02
1.330000e-06	6.578654e-06	5.175577e-09	4.704079e+01	3.403925e+02
1.340000e-06	6.663419e-06	5.212236e-09	4.764690e+01	3.427747e+02
1.350000e-06	6.745849e-06	5.247191e-09	4.823632e+01	3.449876e+02
1.360000e-06	6.825804e-06	5.280063e-09	4.880804e+01	3.470477e+02
1.370000e-06	6.903262e-06	5.308960e-09	4.936190e+01	3.489751e+02
1.380000e-06	6.978050e-06	5.336030e-09	4.989667e+01	3.507906e+02
1.390000e-06	7.050174e-06	5.362811e-09	5.041240e+01	3.525139e+02
1.400000e-06	7.119863e-06	5.389913e-09	5.091071e+01	3.541608e+02
1.410000e-06	7.187055e-06	5.416130e-09	5.139116e+01	3.557422e+02
1.420000e-06	7.251642e-06	5.439434e-09	5.185300e+01	3.572627e+02
1.430000e-06	7.313728e-06	5.461022e-09	5.229694e+01	3.587213e+02
1.440000e-06	7.373289e-06	5.481649e-09	5.272284e+01	3.601122e+02
1.450000e-06	7.430238e-06	5.500239e-09	5.313005e+01	3.614264e+02
1.460000e-06	7.484511e-06	5.515603e-09	5.351813e+01	3.626540e+02
1.470000e-06	7.535840e-06	5.528988e-09	5.388516e+01	3.637865e+02
1.480000e-06	7.584037e-06	5.542906e-09	5.422980e+01	3.648185e+02
1.490000e-06	7.629477e-06	5.556814e-09	5.455471e+01	3.657492e+02
1.500000e-06	7.672278e-06	5.570508e-09	5.486076e+01	3.665828e+02
1.510000e-06	7.712231e-06	5.585697e-09	5.514645e+01	3.673280e+02
1.520000e-06	7.749510e-06	5.601991e-09	5.541301e+01	3.679967e+02
1.530000e-06	7.784145e-06	5.615384e-09	5.566067e+01	3.686027e+02
1.540000e-06	7.815998e-06	5.624171e-09	5.588844e+01	3.691587e+02
1.550000e-06	7.845158e-06	5.629369e-09	5.609694e+01	3.696751e+02
1.560000e-06	7.871469e-06	5.634164e-09	5.628508e+01	3.701576e+02
1.570000e-06	7.894793e-06	5.640527e-09	5.645186e+01	3.706069e+02
1.580000e-06	7.915379e-06	5.646124e-09	5.659906e+01	3.710178e+02
1.590000e-06	7.933204e-06	5.651181e-09	5.672652e+01	3.713811e+02
1.600000e-06	7.948044e-06	5.656060e-09	5.683263e+01	3.716843e+02
1.610000e-06	7.959792e-06	5.659981e-09	5.691664e+01	3.719142e+02
1.620000e-06	7.968443e-06	5.663470e-09	5.697849e+01	3.720594e+02
1.630000e-06	7.974201e-06	5.666429e-09	5.701967e+01	3.721123e+02
1.640000e-06	7.977154e-06	5.668804e-09	5.704078e+01	3.720711e+02
1.650000e-06	7.977254e-06	5.666494e-09	5.704150e+01	3.719402e+02
1.660000e-06	7.974699e-06	5.659028e-09	5.702323e+01	3.717307e+02
1.670000e-06	7.969460e-06	5.654029e-09	5.698577e+01	3.714588e+02
1.680000e-06	7.961557e-06	5.650958e-09	5.692926e+01	3.711439e+02
1.690000e-06	7.951083e-06	5.648445e-09	5.685436e+01	3.708061e+02
1.700000e-06	7.937765e-06	5.647142e-09	5.675913e+01	3.704633e+02
1.710000e-06	7.921725e-06	5.648120e-09	5.664444e+01	3.701285e+02
1.720000e-06	7.903349e-06	5.650611e-09	5.651304e+01	3.698076e+02
1.730000e-06	7.882673e-06	5.591846e-09	5.636520e+01	3.694984e+02
1.740000e-06	7.859091e-06	5.579002e-09	5.619658e+01	3.691902e+02
1.750000e-06	7.831994e-06	5.588056e-09	5.600281e+01	3.688652e+02
1.760000e-06	7.801322e-06	5.578555e-09	5.578349e+01	3.685001e+02
1.770000e-06	7.767750e-06	5.588557e-09	5.554344e+01	3.680689e+02
1.780000e-06	7.731896e-06	5.660703e-09	5.528706e+01	3.675464e+02
1.790000e-06	7.693686e-06	5.643814e-09	5.501384e+01	3.669106e+02
1.800000e-06	7.653355e-06	5.541020e-09	5.472546e+01	3.661457e+02
1.810000e-06	7.610821e-06	5.572617e-09	5.442131e+01	3.652438e+02
1.820000e-06	7.565693e-06	5.480193e-09	5.409862e+01	3.642057e+02
1.830000e-06	7.517939e-06	5.547252e-09	5.375716e+01	3.630401e+02
1.840000e-06	7.467254e-06	5.571037e-09	5.339474e+01	3.617628e+02
1.850000e-06	7.413583e-06	5.490061e-09	5.301096e+01	3.603944e+02
1.860000e-06	7.357163e-06	5.519133e-09	5.260752e+01	3.589570e+02
1.870000e-06	7.298109e-06	5.377738e-09	5.218526e+01	3.574722e+02
1.880000e-06	7.236414e-06	5.398085e-09	5.174411e+01	3.559581e+02
1.890000e-06	7.171884e-06	5.405217e-09	5.128269e+01	3.544275e+02
1.900000e-06	7.104631e-06	5.355964e-09	5.080179e+01	3.528866e+02
1.910000e-06	7.034569e-06	5.373926e-09	5.030081e+01	3.513351e+02
1.920000e-06	6.961698e-06	5.301362e-09	4.977975e+01	3.497666e+02
1.930000e-06	6.886193e-06	5.280094e-09	4.923985e+01	3.481702e+02
1.940000e-06	6.807893e-06	5.233762e-09	4.867996e+01	3.465323e+02
1.950000e-06	6.727015e-06	5.257761e-09	4.810164e+01	3.448385e+02
1.960000e-06	6.643769e-06	5.245679e-09	4.750639e+01	3.430759e+02
1.970000e-06	6.558095e-06	5.163622e-09	4.689378e+01	3.412341e+02
1.980000e-06	6.469926e-06	5.158452e-09	4.626332e+01	3.393066e+02
1.990000e-06	6.379453e-06	5.127102e-09	4.561639e+01	3.372905e+02
2.000000e-06	6.286878e-06	5.114680e-09	4.495443e+01	3.351868e+02
2.010000e-06	6.191947e-06	5.062961e-09	4.427563e+01	3.329987e+02
2.020000e-06	6.094740e-06	5.035403e-09	4.358055e+01	3.307312e+02
2.030000e-06	5.995447e-06	4.981540e-09	4.287055e+01	3.283890e+02
2.040000e-06	5.894017e-06	4.935829e-09	4.214527e+01	3.259761e+02
2.050000e-06	5.790427e-06	4.939768e-09	4.140455e+01	3.234943e+02
2.060000e-06	5.684792e-06	4.923309e-09	4.064921e+01	3.209430e+02
2.070000e-06	5.577209e-06	4.868316e-09	3.987993e+01	3.183194e+02
2.080000e-06	5.467698e-06	4.784942e-09	3.909687e+01	3.156189e+02
2.090000e-06	5.356230e-06	4.743351e-09	3.829982e+01	3.128355e+02
2.100000e-06	5.242713e-06	4.706628e-09	3.748812e+01	3.099632e+02
2.110000e-06	5.127240e-06	4.687268e-09	3.666242e+01	3.069962e+02
2.120000e-06	5.009792e-06	4.657587e-09	3.582261e+01	3.039301e+02
2.130000e-06	4.890367e-06	4.602400e-09	3.496866e+01	3.007617e+02
2.140000e-06	4.769121e-06	4.522494e-09	3.410169e+01	2.974892e+02
2.150000e-06	4.646148e-06	4.467446e-09	3.322237e+01	2.941118e+02
2.160000e-06	4.521502e-06	4.439080e-09	3.233108e+01	2.906288e+02
2.170000e-06	4.395213e-06	4.393713e-09	3.142805e+01	2.870396e+02
2.180000e-06	4.267276e-06	4.329085e-09	3.051324e+01	2.833425e+02
2.190000e-06	4.137794e-06	4.261401e-09	2.958737e+01	2.795345e+02
2.200000e-06	4.006815e-06	4.198457e-09	2.865080e+01	2.756113e+02
2.210000e-06	3.874360e-06	4.137550e-09	2.770368e+01	2.715674e+02
2.220000e-06	3.740450e-06	4.092745e-09	2.674616e+01	2.673969e+02
2.230000e-06	3.605039e-06	4.037662e-09	2.577790e+01	2.630937e+02
2.240000e-06	3.468305e-06	3.956644e-09	2.480018e+01	2.586527e+02
2.250000e-06	3.330302e-06	3.872506e-09	2.381338e+01	2.540700e+02
2.260000e-06	3.190999e-06	3.812749e-09	2.281730e+01	2.493435e+02
2.270000e-06	3.050455e-06	3.752599e-09	2.181233e+01	2.444726e+02
2.280000e-06	2.908713e-06	3.671131e-09	2.079881e+01	2.394579e+02
2.290000e-06	2.765797e-06	3.581111e-09	1.977688e+01	2.343001e+02
2.300000e-06	2.621855e-06	3.494607e-09	1.874762e+01	2.289994e+02
2.310000e-06	2.476982e-06	3.411210e-09	1.771170e+01	2.235538e+02
2.320000e-06	2.331230e-06	3.335837e-09	1.666951e+01	2.179584e+02
2.330000e-06	2.184736e-06	3.264905e-09	1.562199e+01	2.122048e+02
2.340000e-06	2.037532e-06	3.176043e-09	1.456941e+01	2.062808e+02
2.350000e-06	1.889685e-06	3.068179e-09	1.351223e+01	2.001712e+02
2.360000e-06	1.741273e-06	2.965947e-09	1.245100e+01	1.938582e+02
2.370000e-06	1.592377e-06	2.876013e-09	1.138632e+01	1.873230e+02
2.380000e-06	1.442988e-06	2.782357e-09	1.031811e+01	1.805475e+02
2.390000e-06	1.293080e-06	2.673973e-09	9.246192e+00	1.735158e+02
2.400000e-06	1.142688e-06	2.554446e-09	8.170814e+00	1.662148e+02
2.410000e-06	9.918800e-07	2.433119e-09	7.092456e+00	1.586352e+02
2.420000e-06	8.406984e-07	2.314444e-09	6.011429e+00	1.507712e+02
2.430000e-06	6.892272e-07	2.201664e-09	4.928332e+00	1.426189e+02
2.440000e-06	5.375201e-07	2.085003e-09	3.843547e+00	1.341754e+02
2.450000e-06	3.856004e-07	1.954022e-09	2.757242e+00	1.254359e+02
2.460000e-06	2.335393e-07	1.810941e-09	1.669927e+00	1.163914e+02
2.470000e-06	8.135435e-08	1.663262e-09	5.817258e-01	1.070275e+02
2.480000e-06	-7.087487e-08	1.515356e-09	-5.067920e-01	9.732230e+01
2.490000e-06	-2.230509e-07	1.363063e-09	-1.594930e+00	8.724705e+01
2.500000e-06	-3.751608e-07	1.202686e-09	-2.682594e+00	7.676715e+01
2.510000e-06	-5.272005e-07	1.035430e-09	-3.769757e+00	6.584501e+01
2.520000e-06	-6.790966e-07	8.637150e-10	-4.855892e+00	5.444415e+01
2.530000e-06	-8.307108e-07	6.888876e-10	-5.940013e+00	4.253426e+01
2.540000e-06	-9.819411e-07	5.052597e-10	-7.021388e+00	3.009664e+01
2.550000e-06	-1.132811e-06	3.075787e-10	-8.100182e+00	1.712955e+01
2.560000e-06	-1.283371e-06	9.652731e-11	-9.176767e+00	3.652679e+00
2.570000e-06	-1.433567e-06	-1.212381e-10	-1.025075e+01	-1.028991e+01
2.580000e-06	-1.583213e-06	-3.409987e-10	-1.132079e+01	-2.462872e+01
2.590000e-06	-1.732174e-06	-5.644502e-10	-1.238594e+01	-3.927004e+01
2.600000e-06	-1.880441e-06	-7.944429e-10	-1.344613e+01	-5.409944e+01
2.610000e-06	-2.028034e-06	-1.027891e-09	-1.450149e+01	-6.898734e+01
2.620000e-06	-2.174933e-06	-1.259619e-09	-1.555190e+01	-8.379609e+01
2.630000e-06	-2.321034e-06	-1.485877e-09	-1.659660e+01	-9.838799e+01
2.640000e-06	-2.466233e-06	-1.703291e-09	-1.763484e+01	-1.126334e+02
2.650000e-06	-2.610423e-06	-1.912519e-09	-1.866587e+01	-1.264184e+02
2.660000e-06	-2.753579e-06	-2.115025e-09	-1.968951e+01	-1.396502e+02
2.670000e-06	-2.895676e-06	-2.310480e-09	-2.070559e+01	-1.522618e+02
2.680000e-06	-3.036589e-06	-2.493549e-09	-2.171319e+01	-1.642136e+02
2.690000e-06	-3.176265e-06	-2.662999e-09	-2.271194e+01	-1.754920e+02
2.700000e-06	-3.314758e-06	-2.821349e-09	-2.370224e+01	-1.861077e+02
2.710000e-06	-3.452033e-06	-2.971857e-09	-2.468383e+01	-1.960902e+02
2.720000e-06	-3.587991e-06	-3.117739e-09	-2.565599e+01	-2.054823e+02
2.730000e-06	-3.722649e-06	-3.257523e-09	-2.661887e+01	-2.143345e+02
2.740000e-06	-3.855948e-06	-3.389584e-09	-2.757203e+01	-2.226988e+02
2.750000e-06	-3.987873e-06	-3.512271e-09	-2.851536e+01	-2.306241e+02
2.760000e-06	-4.118441e-06	-3.627500e-09	-2.944898e+01	-2.381528e+02
2.770000e-06	-4.247619e-06	-3.737370e-09	-3.037267e+01	-2.453189e+02
2.780000e-06	-4.375346e-06	-3.841659e-09	-3.128599e+01	-2.521477e+02
2.790000e-06	-4.501476e-06	-3.938692e-09	-3.218789e+01	-2.586573e+02
2.800000e-06	-4.626018e-06	-4.027715e-09	-3.307843e+01	-2.648603e+02
2.810000e-06	-4.748961e-06	-4.112644e-09	-3.395753e+01	-2.707665e+02
2.820000e-06	-4.870176e-06	-4.197110e-09	-3.482428e+01	-2.763855e+02
2.830000e-06	-4.989559e-06	-4.283258e-09	-3.567793e+01	-2.817288e+02
2.840000e-06	-5.107006e-06	-4.366262e-09	-3.651774e+01	-2.868109e+02
2.850000e-06	-5.222446e-06	-4.441315e-09	-3.734320e+01	-2.916498e+02
2.860000e-06	-5.335757e-06	-4.511713e-09	-3.815342e+01	-2.962659e+02
2.870000e-06	-5.446905e-06	-4.580829e-09	-3.894819e+01	-3.006806e+02
2.880000e-06	-5.556047e-06	-4.649781e-09	-3.972861e+01	-3.049146e+02
2.890000e-06	-5.663318e-06	-4.715736e-09	-4.049565e+01	-3.089851e+02
2.900000e-06	-5.768651e-06	-4.777463e-09	-4.124884e+01	-3.129051e+02
2.910000e-06	-5.871874e-06	-4.835951e-09	-4.198694e+01	-3.166811e+02
2.920000e-06	-5.972886e-06	-4.891308e-09	-4.270923e+01	-3.203138e+02
2.930000e-06	-6.071721e-06	-4.946186e-09	-4.341595e+01	-3.237982e+02
2.940000e-06	-6.168484e-06	-4.997958e-09	-4.410786e+01	-3.271254e+02
