# Temperatura_=_36.25
# Concentracion g/m^3_=_5000.0
# C_Vs_to_Am_M_A/Vsm_=_65563218390.804596
# pendiente_HvsI_1/m_=_3716.3
# ordenada_HvsI_A/m_=_1297.0
# frecuencia_Hz_=_302573.8857356382

Tiempo_(s)	Campo_(V.s)	Magnetizacion_(V.s)	Campo_(kA/m)	Magnetizacion_(A/m)
0.000000e+00	-7.985614e-06	-5.880268e-09	-5.685575e+01	-3.833194e+02
1.000000e-08	-7.982589e-06	-5.874001e-09	-5.683421e+01	-3.831058e+02
2.000000e-08	-7.976885e-06	-5.869156e-09	-5.679360e+01	-3.828074e+02
3.000000e-08	-7.968576e-06	-5.863985e-09	-5.673444e+01	-3.824407e+02
4.000000e-08	-7.957470e-06	-5.859481e-09	-5.665537e+01	-3.820259e+02
5.000000e-08	-7.943401e-06	-5.855805e-09	-5.655520e+01	-3.815853e+02
6.000000e-08	-7.926463e-06	-5.853152e-09	-5.643461e+01	-3.811403e+02
7.000000e-08	-7.907118e-06	-5.848384e-09	-5.629688e+01	-3.807092e+02
8.000000e-08	-7.885493e-06	-5.870099e-09	-5.614291e+01	-3.803045e+02
9.000000e-08	-7.860987e-06	-5.833046e-09	-5.596843e+01	-3.799317e+02
1.000000e-07	-7.833166e-06	-5.842597e-09	-5.577036e+01	-3.795881e+02
1.100000e-07	-7.802305e-06	-5.866685e-09	-5.555063e+01	-3.792636e+02
1.200000e-07	-7.768672e-06	-5.825537e-09	-5.531117e+01	-3.789411e+02
1.300000e-07	-7.732431e-06	-5.765226e-09	-5.505315e+01	-3.785987e+02
1.400000e-07	-7.693913e-06	-5.716757e-09	-5.477890e+01	-3.782116e+02
1.500000e-07	-7.653218e-06	-5.775273e-09	-5.448917e+01	-3.777550e+02
1.600000e-07	-7.610024e-06	-5.755329e-09	-5.418163e+01	-3.772065e+02
1.700000e-07	-7.564173e-06	-5.790383e-09	-5.385519e+01	-3.765476e+02
1.800000e-07	-7.515613e-06	-5.811376e-09	-5.350945e+01	-3.757659e+02
1.900000e-07	-7.464057e-06	-5.664787e-09	-5.314238e+01	-3.748551e+02
2.000000e-07	-7.409505e-06	-5.673325e-09	-5.275398e+01	-3.738156e+02
2.100000e-07	-7.352214e-06	-5.647217e-09	-5.234609e+01	-3.726534e+02
2.200000e-07	-7.292245e-06	-5.655049e-09	-5.191912e+01	-3.713788e+02
2.300000e-07	-7.229654e-06	-5.678724e-09	-5.147349e+01	-3.700048e+02
2.400000e-07	-7.164376e-06	-5.554796e-09	-5.100872e+01	-3.685454e+02
2.500000e-07	-7.096261e-06	-5.555558e-09	-5.052376e+01	-3.670140e+02
2.600000e-07	-7.025377e-06	-5.558780e-09	-5.001908e+01	-3.654218e+02
2.700000e-07	-6.951806e-06	-5.566058e-09	-4.949527e+01	-3.637768e+02
2.800000e-07	-6.875521e-06	-5.525676e-09	-4.895214e+01	-3.620837e+02
2.900000e-07	-6.796410e-06	-5.513824e-09	-4.838889e+01	-3.603436e+02
3.000000e-07	-6.714619e-06	-5.473558e-09	-4.780656e+01	-3.585543e+02
3.100000e-07	-6.630523e-06	-5.387434e-09	-4.720781e+01	-3.567113e+02
3.200000e-07	-6.544213e-06	-5.428131e-09	-4.659330e+01	-3.548085e+02
3.300000e-07	-6.455552e-06	-5.397291e-09	-4.596206e+01	-3.528390e+02
3.400000e-07	-6.364550e-06	-5.339152e-09	-4.531415e+01	-3.507963e+02
3.500000e-07	-6.271320e-06	-5.285074e-09	-4.465037e+01	-3.486742e+02
3.600000e-07	-6.175757e-06	-5.269798e-09	-4.396998e+01	-3.464682e+02
3.700000e-07	-6.077840e-06	-5.247992e-09	-4.327284e+01	-3.441750e+02
3.800000e-07	-5.977769e-06	-5.204720e-09	-4.256035e+01	-3.417925e+02
3.900000e-07	-5.875573e-06	-5.197742e-09	-4.183274e+01	-3.393200e+02
4.000000e-07	-5.771262e-06	-5.143283e-09	-4.109007e+01	-3.367580e+02
4.100000e-07	-5.664936e-06	-5.070807e-09	-4.033305e+01	-3.341072e+02
4.200000e-07	-5.556660e-06	-5.009948e-09	-3.956215e+01	-3.313688e+02
4.300000e-07	-5.446516e-06	-5.016008e-09	-3.877795e+01	-3.285441e+02
4.400000e-07	-5.334315e-06	-4.977309e-09	-3.797911e+01	-3.256338e+02
4.500000e-07	-5.219963e-06	-4.899084e-09	-3.716494e+01	-3.226384e+02
4.600000e-07	-5.103588e-06	-4.848756e-09	-3.633638e+01	-3.195574e+02
4.700000e-07	-4.985357e-06	-4.816676e-09	-3.549460e+01	-3.163892e+02
4.800000e-07	-4.865290e-06	-4.764053e-09	-3.463975e+01	-3.131314e+02
4.900000e-07	-4.743383e-06	-4.709028e-09	-3.377181e+01	-3.097803e+02
5.000000e-07	-4.619748e-06	-4.670426e-09	-3.289155e+01	-3.063308e+02
5.100000e-07	-4.494520e-06	-4.598134e-09	-3.199995e+01	-3.027768e+02
5.200000e-07	-4.367666e-06	-4.531517e-09	-3.109678e+01	-2.991115e+02
5.300000e-07	-4.239125e-06	-4.484941e-09	-3.018160e+01	-2.953272e+02
5.400000e-07	-4.109088e-06	-4.441834e-09	-2.925577e+01	-2.914163e+02
5.500000e-07	-3.977510e-06	-4.362404e-09	-2.831896e+01	-2.873717e+02
5.600000e-07	-3.844398e-06	-4.289921e-09	-2.737124e+01	-2.831870e+02
5.700000e-07	-3.709879e-06	-4.232685e-09	-2.641349e+01	-2.788577e+02
5.800000e-07	-3.573924e-06	-4.161065e-09	-2.544553e+01	-2.743808e+02
5.900000e-07	-3.436550e-06	-4.083252e-09	-2.446745e+01	-2.697552e+02
6.000000e-07	-3.297814e-06	-4.015926e-09	-2.347969e+01	-2.649816e+02
6.100000e-07	-3.157657e-06	-3.950008e-09	-2.248180e+01	-2.600619e+02
6.200000e-07	-3.016088e-06	-3.860686e-09	-2.147386e+01	-2.549981e+02
6.300000e-07	-2.873252e-06	-3.781468e-09	-2.045690e+01	-2.497921e+02
6.400000e-07	-2.729354e-06	-3.712675e-09	-1.943238e+01	-2.444437e+02
6.500000e-07	-2.584528e-06	-3.632664e-09	-1.840125e+01	-2.389504e+02
6.600000e-07	-2.438727e-06	-3.534698e-09	-1.736318e+01	-2.333063e+02
6.700000e-07	-2.292061e-06	-3.441836e-09	-1.631895e+01	-2.275015e+02
6.800000e-07	-2.144733e-06	-3.352578e-09	-1.527001e+01	-2.215229e+02
6.900000e-07	-1.996735e-06	-3.253162e-09	-1.421630e+01	-2.153540e+02
7.000000e-07	-1.848093e-06	-3.153285e-09	-1.315800e+01	-2.089765e+02
7.100000e-07	-1.698886e-06	-3.055660e-09	-1.209568e+01	-2.023712e+02
7.200000e-07	-1.549145e-06	-2.954297e-09	-1.102956e+01	-1.955200e+02
7.300000e-07	-1.398941e-06	-2.840451e-09	-9.960141e+00	-1.884069e+02
7.400000e-07	-1.248255e-06	-2.727847e-09	-8.887288e+00	-1.810192e+02
7.500000e-07	-1.097095e-06	-2.613147e-09	-7.811064e+00	-1.733479e+02
7.600000e-07	-9.455964e-07	-2.494403e-09	-6.732430e+00	-1.653877e+02
7.700000e-07	-7.938087e-07	-2.367960e-09	-5.651737e+00	-1.571361e+02
7.800000e-07	-6.416905e-07	-2.237045e-09	-4.568690e+00	-1.485916e+02
7.900000e-07	-4.893000e-07	-2.102779e-09	-3.483705e+00	-1.397516e+02
8.000000e-07	-3.366931e-07	-1.961201e-09	-2.397178e+00	-1.306106e+02
8.100000e-07	-1.838938e-07	-1.816581e-09	-1.309282e+00	-1.211576e+02
8.200000e-07	-3.100052e-08	-1.664107e-09	-2.207166e-01	-1.113747e+02
8.300000e-07	1.219028e-07	-1.505296e-09	8.679201e-01	-1.012368e+02
8.400000e-07	2.747721e-07	-1.339221e-09	1.956315e+00	-9.071188e+01
8.500000e-07	4.275681e-07	-1.169073e-09	3.044188e+00	-7.976298e+01
8.600000e-07	5.802742e-07	-9.957977e-10	4.131420e+00	-6.835156e+01
8.700000e-07	7.328005e-07	-8.191675e-10	5.217372e+00	-5.644170e+01
8.800000e-07	8.850595e-07	-6.371259e-10	6.301422e+00	-4.400524e+01
8.900000e-07	1.036984e-06	-4.433782e-10	7.383087e+00	-3.102695e+01
9.000000e-07	1.188463e-06	-2.382948e-10	8.461582e+00	-1.750950e+01
9.100000e-07	1.339512e-06	-2.498647e-11	9.537019e+00	-3.477341e+00
9.200000e-07	1.490140e-06	1.933755e-10	1.060946e+01	1.102092e+01
9.300000e-07	1.640264e-06	4.202525e-10	1.167830e+01	2.591195e+01
9.400000e-07	1.789810e-06	6.544070e-10	1.274304e+01	4.109934e+01
9.500000e-07	1.938737e-06	8.917908e-10	1.380336e+01	5.646724e+01
9.600000e-07	2.086952e-06	1.130190e-09	1.485863e+01	7.188585e+01
9.700000e-07	2.234400e-06	1.364547e-09	1.590842e+01	8.721832e+01
9.800000e-07	2.381056e-06	1.588315e-09	1.695258e+01	1.023283e+02
9.900000e-07	2.526827e-06	1.805053e-09	1.799043e+01	1.170877e+02
1.000000e-06	2.671576e-06	2.016894e-09	1.902101e+01	1.313832e+02
1.010000e-06	2.815312e-06	2.227358e-09	2.004438e+01	1.451225e+02
1.020000e-06	2.958042e-06	2.429850e-09	2.106059e+01	1.582374e+02
1.030000e-06	3.099676e-06	2.617770e-09	2.206899e+01	1.706858e+02
1.040000e-06	3.240019e-06	2.793683e-09	2.306819e+01	1.824509e+02
1.050000e-06	3.378982e-06	2.958093e-09	2.405758e+01	1.935390e+02
1.060000e-06	3.516614e-06	3.114213e-09	2.503749e+01	2.039749e+02
1.070000e-06	3.652810e-06	3.262160e-09	2.600717e+01	2.137973e+02
1.080000e-06	3.787633e-06	3.403677e-09	2.696708e+01	2.230528e+02
1.090000e-06	3.921182e-06	3.539329e-09	2.791792e+01	2.317908e+02
1.100000e-06	4.053400e-06	3.669066e-09	2.885928e+01	2.400589e+02
1.110000e-06	4.184153e-06	3.795852e-09	2.979021e+01	2.478999e+02
1.120000e-06	4.313383e-06	3.914125e-09	3.071031e+01	2.553491e+02
1.130000e-06	4.441049e-06	4.018722e-09	3.161926e+01	2.624347e+02
1.140000e-06	4.567197e-06	4.114677e-09	3.251740e+01	2.691779e+02
1.150000e-06	4.691893e-06	4.207423e-09	3.340521e+01	2.755947e+02
1.160000e-06	4.814976e-06	4.297975e-09	3.428153e+01	2.816982e+02
1.170000e-06	4.936264e-06	4.382426e-09	3.514508e+01	2.875010e+02
1.180000e-06	5.055742e-06	4.463622e-09	3.599573e+01	2.930164e+02
1.190000e-06	5.173418e-06	4.542831e-09	3.683356e+01	2.982601e+02
1.200000e-06	5.289192e-06	4.622448e-09	3.765784e+01	3.032507e+02
1.210000e-06	5.402895e-06	4.700530e-09	3.846738e+01	3.080087e+02
1.220000e-06	5.514513e-06	4.774359e-09	3.926207e+01	3.125554e+02
1.230000e-06	5.624165e-06	4.839218e-09	4.004277e+01	3.169114e+02
1.240000e-06	5.731845e-06	4.897334e-09	4.080943e+01	3.210945e+02
1.250000e-06	5.837403e-06	4.953431e-09	4.156098e+01	3.251182e+02
1.260000e-06	5.940778e-06	5.009706e-09	4.229698e+01	3.289905e+02
1.270000e-06	6.042054e-06	5.065115e-09	4.301805e+01	3.327137e+02
1.280000e-06	6.141134e-06	5.115277e-09	4.372348e+01	3.362844e+02
1.290000e-06	6.237749e-06	5.163678e-09	4.441135e+01	3.396953e+02
1.300000e-06	6.332020e-06	5.212617e-09	4.508254e+01	3.429368e+02
1.310000e-06	6.424202e-06	5.262465e-09	4.573885e+01	3.459993e+02
1.320000e-06	6.514137e-06	5.308813e-09	4.637917e+01	3.488753e+02
1.330000e-06	6.601676e-06	5.348767e-09	4.700243e+01	3.515616e+02
1.340000e-06	6.686863e-06	5.384166e-09	4.760894e+01	3.540603e+02
1.350000e-06	6.769748e-06	5.417849e-09	4.819906e+01	3.563795e+02
1.360000e-06	6.850171e-06	5.449663e-09	4.877166e+01	3.585327e+02
1.370000e-06	6.928095e-06	5.477864e-09	4.932645e+01	3.605381e+02
1.380000e-06	7.003457e-06	5.505479e-09	4.986302e+01	3.624160e+02
1.390000e-06	7.076125e-06	5.533896e-09	5.038040e+01	3.641872e+02
1.400000e-06	7.146252e-06	5.561995e-09	5.087968e+01	3.658704e+02
1.410000e-06	7.213899e-06	5.588829e-09	5.136132e+01	3.674803e+02
1.420000e-06	7.278856e-06	5.612887e-09	5.182379e+01	3.690267e+02
1.430000e-06	7.341258e-06	5.635009e-09	5.226808e+01	3.705132e+02
1.440000e-06	7.401262e-06	5.656926e-09	5.269529e+01	3.719383e+02
1.450000e-06	7.458609e-06	5.676284e-09	5.310360e+01	3.732957e+02
1.460000e-06	7.513269e-06	5.691352e-09	5.349276e+01	3.745768e+02
1.470000e-06	7.565046e-06	5.703747e-09	5.386140e+01	3.757720e+02
1.480000e-06	7.613696e-06	5.717740e-09	5.420778e+01	3.768731e+02
1.490000e-06	7.659485e-06	5.733912e-09	5.453379e+01	3.778751e+02
1.500000e-06	7.702633e-06	5.748619e-09	5.484099e+01	3.787773e+02
1.510000e-06	7.742996e-06	5.762282e-09	5.512836e+01	3.795835e+02
1.520000e-06	7.780592e-06	5.776076e-09	5.539604e+01	3.803019e+02
1.530000e-06	7.815519e-06	5.789206e-09	5.564471e+01	3.809437e+02
1.540000e-06	7.847647e-06	5.798755e-09	5.587346e+01	3.815218e+02
1.550000e-06	7.877031e-06	5.804356e-09	5.608266e+01	3.820482e+02
1.560000e-06	7.903614e-06	5.810019e-09	5.627193e+01	3.825327e+02
1.570000e-06	7.927212e-06	5.817169e-09	5.643994e+01	3.829810e+02
1.580000e-06	7.948066e-06	5.824623e-09	5.658842e+01	3.833938e+02
1.590000e-06	7.966199e-06	5.830359e-09	5.671752e+01	3.837666e+02
1.600000e-06	7.981327e-06	5.834740e-09	5.682523e+01	3.840904e+02
1.610000e-06	7.993352e-06	5.839536e-09	5.691084e+01	3.843529e+02
1.620000e-06	8.002269e-06	5.842474e-09	5.697433e+01	3.845410e+02
1.630000e-06	8.008252e-06	5.844035e-09	5.701693e+01	3.846423e+02
1.640000e-06	8.011408e-06	5.844154e-09	5.703940e+01	3.846479e+02
1.650000e-06	8.011703e-06	5.838474e-09	5.704150e+01	3.845541e+02
1.660000e-06	8.009301e-06	5.837478e-09	5.702439e+01	3.843632e+02
1.670000e-06	8.004253e-06	5.831311e-09	5.698846e+01	3.840842e+02
1.680000e-06	7.996503e-06	5.824929e-09	5.693327e+01	3.837324e+02
1.690000e-06	7.986111e-06	5.819920e-09	5.685929e+01	3.833271e+02
1.700000e-06	7.972944e-06	5.815495e-09	5.676554e+01	3.828904e+02
1.710000e-06	7.956992e-06	5.809515e-09	5.665196e+01	3.824442e+02
1.720000e-06	7.938655e-06	5.796367e-09	5.652141e+01	3.820078e+02
1.730000e-06	7.917998e-06	5.759795e-09	5.637434e+01	3.815953e+02
1.740000e-06	7.894447e-06	5.795368e-09	5.620666e+01	3.812139e+02
1.750000e-06	7.867415e-06	5.751006e-09	5.601420e+01	3.808633e+02
1.760000e-06	7.836822e-06	5.726259e-09	5.579639e+01	3.805349e+02
1.770000e-06	7.803262e-06	5.759220e-09	5.555745e+01	3.802134e+02
1.780000e-06	7.767333e-06	5.798949e-09	5.530164e+01	3.798778e+02
1.790000e-06	7.729137e-06	5.750691e-09	5.502969e+01	3.795038e+02
1.800000e-06	7.688861e-06	5.782789e-09	5.474294e+01	3.790664e+02
1.810000e-06	7.646367e-06	5.754983e-09	5.444039e+01	3.785423e+02
1.820000e-06	7.601231e-06	5.626848e-09	5.411903e+01	3.779120e+02
1.830000e-06	7.553401e-06	5.819599e-09	5.377849e+01	3.771614e+02
1.840000e-06	7.502616e-06	5.737203e-09	5.341691e+01	3.762827e+02
1.850000e-06	7.448882e-06	5.779145e-09	5.303434e+01	3.752746e+02
1.860000e-06	7.392423e-06	5.758314e-09	5.263237e+01	3.741418e+02
1.870000e-06	7.333290e-06	5.580624e-09	5.221135e+01	3.728937e+02
1.880000e-06	7.271476e-06	5.694681e-09	5.177125e+01	3.715428e+02
1.890000e-06	7.206826e-06	5.607980e-09	5.131096e+01	3.701030e+02
1.900000e-06	7.139459e-06	5.639323e-09	5.083132e+01	3.685880e+02
1.910000e-06	7.069350e-06	5.628610e-09	5.033216e+01	3.670097e+02
1.920000e-06	6.996387e-06	5.558719e-09	4.981268e+01	3.653769e+02
1.930000e-06	6.920671e-06	5.516276e-09	4.927360e+01	3.636952e+02
1.940000e-06	6.842261e-06	5.452127e-09	4.871534e+01	3.619664e+02
1.950000e-06	6.761277e-06	5.580238e-09	4.813875e+01	3.601894e+02
1.960000e-06	6.677788e-06	5.485133e-09	4.754433e+01	3.583599e+02
1.970000e-06	6.591810e-06	5.433775e-09	4.693219e+01	3.564722e+02
1.980000e-06	6.503382e-06	5.396087e-09	4.630260e+01	3.545196e+02
1.990000e-06	6.412681e-06	5.343508e-09	4.565683e+01	3.524953e+02
2.000000e-06	6.319776e-06	5.344551e-09	4.499537e+01	3.503932e+02
2.010000e-06	6.224564e-06	5.309233e-09	4.431748e+01	3.482081e+02
2.020000e-06	6.127131e-06	5.332199e-09	4.362377e+01	3.459365e+02
2.030000e-06	6.027497e-06	5.221369e-09	4.291440e+01	3.435759e+02
2.040000e-06	5.925672e-06	5.160163e-09	4.218944e+01	3.411256e+02
2.050000e-06	5.821734e-06	5.142796e-09	4.144942e+01	3.385854e+02
2.060000e-06	5.715854e-06	5.166646e-09	4.069558e+01	3.359563e+02
2.070000e-06	5.608052e-06	5.111954e-09	3.992805e+01	3.332392e+02
2.080000e-06	5.498239e-06	5.035642e-09	3.914621e+01	3.304356e+02
2.090000e-06	5.386423e-06	4.995682e-09	3.835011e+01	3.275462e+02
2.100000e-06	5.272612e-06	4.928698e-09	3.753980e+01	3.245717e+02
2.110000e-06	5.156826e-06	4.901936e-09	3.671542e+01	3.215117e+02
2.120000e-06	5.039005e-06	4.885999e-09	3.587657e+01	3.183651e+02
2.130000e-06	4.919186e-06	4.850932e-09	3.502348e+01	3.151296e+02
2.140000e-06	4.797537e-06	4.744293e-09	3.415737e+01	3.118017e+02
2.150000e-06	4.674179e-06	4.683553e-09	3.327909e+01	3.083769e+02
2.160000e-06	4.549129e-06	4.658670e-09	3.238876e+01	3.048493e+02
2.170000e-06	4.422419e-06	4.629691e-09	3.148661e+01	3.012120e+02
2.180000e-06	4.294047e-06	4.554423e-09	3.057264e+01	2.974578e+02
2.190000e-06	4.164153e-06	4.481366e-09	2.964782e+01	2.935788e+02
2.200000e-06	4.032797e-06	4.408457e-09	2.871260e+01	2.895678e+02
2.210000e-06	3.899903e-06	4.340776e-09	2.776642e+01	2.854182e+02
2.220000e-06	3.765519e-06	4.302278e-09	2.680964e+01	2.811250e+02
2.230000e-06	3.629727e-06	4.261044e-09	2.584283e+01	2.766847e+02
2.240000e-06	3.492537e-06	4.181844e-09	2.486607e+01	2.720958e+02
2.250000e-06	3.353949e-06	4.074535e-09	2.387935e+01	2.673587e+02
2.260000e-06	3.214129e-06	4.003549e-09	2.288387e+01	2.624748e+02
2.270000e-06	3.073000e-06	3.947080e-09	2.187906e+01	2.574465e+02
2.280000e-06	2.930638e-06	3.877580e-09	2.086548e+01	2.522755e+02
2.290000e-06	2.787226e-06	3.786090e-09	1.984441e+01	2.469624e+02
2.300000e-06	2.642734e-06	3.692103e-09	1.881566e+01	2.415053e+02
2.310000e-06	2.497305e-06	3.594064e-09	1.778024e+01	2.358992e+02
2.320000e-06	2.351088e-06	3.512829e-09	1.673921e+01	2.301353e+02
2.330000e-06	2.204161e-06	3.448217e-09	1.569313e+01	2.242011e+02
2.340000e-06	2.056459e-06	3.366895e-09	1.464152e+01	2.180810e+02
2.350000e-06	1.908001e-06	3.253541e-09	1.358453e+01	2.117570e+02
2.360000e-06	1.758914e-06	3.135735e-09	1.252307e+01	2.052100e+02
2.370000e-06	1.609271e-06	3.037273e-09	1.145764e+01	1.984215e+02
2.380000e-06	1.459144e-06	2.943522e-09	1.038877e+01	1.913748e+02
2.390000e-06	1.308562e-06	2.836056e-09	9.316664e+00	1.840562e+02
2.400000e-06	1.157602e-06	2.714172e-09	8.241861e+00	1.764560e+02
2.410000e-06	1.006260e-06	2.586149e-09	7.164341e+00	1.685679e+02
2.420000e-06	8.545089e-07	2.457111e-09	6.083909e+00	1.603889e+02
2.430000e-06	7.024817e-07	2.337498e-09	5.001509e+00	1.519173e+02
2.440000e-06	5.501573e-07	2.218918e-09	3.916995e+00	1.431512e+02
2.450000e-06	3.975939e-07	2.083856e-09	2.830778e+00	1.340858e+02
2.460000e-06	2.448797e-07	1.931473e-09	1.743487e+00	1.247117e+02
2.470000e-06	9.198085e-08	1.775971e-09	6.548827e-01	1.150129e+02
2.480000e-06	-6.099005e-08	1.623724e-09	-4.342353e-01	1.049661e+02
2.490000e-06	-2.138914e-07	1.468422e-09	-1.522858e+00	9.454081e+01
2.500000e-06	-3.667185e-07	1.303936e-09	-2.610952e+00	8.370109e+01
2.510000e-06	-5.194405e-07	1.128033e-09	-3.698298e+00	7.240842e+01
2.520000e-06	-6.719427e-07	9.450902e-10	-4.784078e+00	6.062577e+01
2.530000e-06	-8.242470e-07	7.609473e-10	-5.868450e+00	4.832254e+01
2.540000e-06	-9.762421e-07	5.746954e-10	-6.950621e+00	3.547980e+01
2.550000e-06	-1.127861e-06	3.747057e-10	-8.030114e+00	2.209532e+01
2.560000e-06	-1.279088e-06	1.556207e-10	-9.106818e+00	8.187817e+00
2.570000e-06	-1.429821e-06	-7.187422e-11	-1.018000e+01	-6.200272e+00
2.580000e-06	-1.580064e-06	-2.998713e-10	-1.124969e+01	-2.100173e+01
2.590000e-06	-1.729808e-06	-5.288067e-10	-1.231584e+01	-3.612565e+01
2.600000e-06	-1.878867e-06	-7.628266e-10	-1.337711e+01	-5.146059e+01
2.610000e-06	-2.027126e-06	-1.001134e-09	-1.443268e+01	-6.687963e+01
2.620000e-06	-2.174598e-06	-1.240893e-09	-1.548264e+01	-8.224701e+01
2.630000e-06	-2.321245e-06	-1.476925e-09	-1.652674e+01	-9.742552e+01
2.640000e-06	-2.467110e-06	-1.704056e-09	-1.756526e+01	-1.122843e+02
2.650000e-06	-2.612138e-06	-1.921880e-09	-1.859783e+01	-1.267058e+02
2.660000e-06	-2.756124e-06	-2.133403e-09	-1.962297e+01	-1.405919e+02
2.670000e-06	-2.898922e-06	-2.340097e-09	-2.063966e+01	-1.538684e+02
2.680000e-06	-3.040566e-06	-2.534695e-09	-2.164814e+01	-1.664863e+02
2.690000e-06	-3.181037e-06	-2.715136e-09	-2.264825e+01	-1.784230e+02
2.700000e-06	-3.320199e-06	-2.883142e-09	-2.363906e+01	-1.896790e+02
2.710000e-06	-3.458063e-06	-3.040261e-09	-2.462062e+01	-2.002753e+02
2.720000e-06	-3.594679e-06	-3.192578e-09	-2.559329e+01	-2.102473e+02
2.730000e-06	-3.729993e-06	-3.340347e-09	-2.655670e+01	-2.196403e+02
2.740000e-06	-3.863973e-06	-3.481474e-09	-2.751061e+01	-2.285035e+02
2.750000e-06	-3.996542e-06	-3.612039e-09	-2.845447e+01	-2.368853e+02
2.760000e-06	-4.127683e-06	-3.733291e-09	-2.938816e+01	-2.448299e+02
2.770000e-06	-4.257499e-06	-3.849975e-09	-3.031242e+01	-2.523746e+02
2.780000e-06	-4.385910e-06	-3.960729e-09	-3.122668e+01	-2.595493e+02
2.790000e-06	-4.512714e-06	-4.065123e-09	-3.212949e+01	-2.663768e+02
2.800000e-06	-4.637872e-06	-4.162597e-09	-3.302059e+01	-2.728743e+02
2.810000e-06	-4.761440e-06	-4.253686e-09	-3.390037e+01	-2.790555e+02
2.820000e-06	-4.883327e-06	-4.339616e-09	-3.476817e+01	-2.849327e+02
2.830000e-06	-5.003485e-06	-4.424803e-09	-3.562367e+01	-2.905189e+02
2.840000e-06	-5.121714e-06	-4.509549e-09	-3.646543e+01	-2.958294e+02
2.850000e-06	-5.237842e-06	-4.588771e-09	-3.729224e+01	-3.008819e+02
2.860000e-06	-5.351891e-06	-4.662228e-09	-3.810425e+01	-3.056965e+02
2.870000e-06	-5.463740e-06	-4.734428e-09	-3.890058e+01	-3.102944e+02
2.880000e-06	-5.573471e-06	-4.806963e-09	-3.968184e+01	-3.146967e+02
2.890000e-06	-5.681274e-06	-4.876987e-09	-4.044937e+01	-3.189220e+02
2.900000e-06	-5.787185e-06	-4.943323e-09	-4.120343e+01	-3.229850e+02
2.910000e-06	-5.891060e-06	-5.005484e-09	-4.194300e+01	-3.268952e+02
2.920000e-06	-5.992608e-06	-5.061934e-09	-4.266600e+01	-3.306562e+02
2.930000e-06	-6.091902e-06	-5.115521e-09	-4.337295e+01	-3.342660e+02
2.940000e-06	-6.189148e-06	-5.168516e-09	-4.406532e+01	-3.377182e+02
