# Temperatura_=_42.9
# Concentracion g/m^3_=_5000.0
# C_Vs_to_Am_M_A/Vsm_=_65563218390.804596
# pendiente_HvsI_1/m_=_3716.3
# ordenada_HvsI_A/m_=_1297.0
# frecuencia_Hz_=_302573.5697250208

Tiempo_(s)	Campo_(V.s)	Magnetizacion_(V.s)	Campo_(kA/m)	Magnetizacion_(A/m)
0.000000e+00	-7.973974e-06	-5.748401e-09	-5.685515e+01	-3.756356e+02
1.000000e-08	-7.970879e-06	-5.747282e-09	-5.683309e+01	-3.754019e+02
2.000000e-08	-7.965132e-06	-5.741988e-09	-5.679211e+01	-3.750730e+02
3.000000e-08	-7.956831e-06	-5.734945e-09	-5.673292e+01	-3.746677e+02
4.000000e-08	-7.945714e-06	-5.728654e-09	-5.665366e+01	-3.742102e+02
5.000000e-08	-7.931629e-06	-5.722065e-09	-5.655323e+01	-3.737266e+02
6.000000e-08	-7.914652e-06	-5.715013e-09	-5.643218e+01	-3.732427e+02
7.000000e-08	-7.895280e-06	-5.706334e-09	-5.629406e+01	-3.727800e+02
8.000000e-08	-7.873627e-06	-5.717335e-09	-5.613967e+01	-3.723533e+02
9.000000e-08	-7.849032e-06	-5.727150e-09	-5.596431e+01	-3.719687e+02
1.000000e-07	-7.821131e-06	-5.734378e-09	-5.576536e+01	-3.716226e+02
1.100000e-07	-7.790251e-06	-5.722740e-09	-5.554519e+01	-3.713019e+02
1.200000e-07	-7.756624e-06	-5.685652e-09	-5.530542e+01	-3.709854e+02
1.300000e-07	-7.720338e-06	-5.629125e-09	-5.504671e+01	-3.706461e+02
1.400000e-07	-7.681768e-06	-5.564573e-09	-5.477170e+01	-3.702537e+02
1.500000e-07	-7.641053e-06	-5.581709e-09	-5.448140e+01	-3.697783e+02
1.600000e-07	-7.597892e-06	-5.647744e-09	-5.417365e+01	-3.691931e+02
1.700000e-07	-7.551956e-06	-5.679215e-09	-5.384612e+01	-3.684770e+02
1.800000e-07	-7.503328e-06	-5.646096e-09	-5.349940e+01	-3.676163e+02
1.900000e-07	-7.451785e-06	-5.580947e-09	-5.313190e+01	-3.666058e+02
2.000000e-07	-7.397241e-06	-5.528093e-09	-5.274299e+01	-3.654483e+02
2.100000e-07	-7.339964e-06	-5.479903e-09	-5.233460e+01	-3.641537e+02
2.200000e-07	-7.279954e-06	-5.501052e-09	-5.190673e+01	-3.627374e+02
2.300000e-07	-7.217337e-06	-5.519231e-09	-5.146026e+01	-3.612173e+02
2.400000e-07	-7.152043e-06	-5.457380e-09	-5.099471e+01	-3.596125e+02
2.500000e-07	-7.083975e-06	-5.423518e-09	-5.050938e+01	-3.579399e+02
2.600000e-07	-7.013213e-06	-5.426440e-09	-5.000484e+01	-3.562135e+02
2.700000e-07	-6.939706e-06	-5.424011e-09	-4.948073e+01	-3.544423e+02
2.800000e-07	-6.863457e-06	-5.385157e-09	-4.893707e+01	-3.526304e+02
2.900000e-07	-6.784399e-06	-5.357841e-09	-4.837338e+01	-3.507768e+02
3.000000e-07	-6.702673e-06	-5.330540e-09	-4.779066e+01	-3.488766e+02
3.100000e-07	-6.618670e-06	-5.287960e-09	-4.719171e+01	-3.469218e+02
3.200000e-07	-6.532398e-06	-5.274029e-09	-4.657659e+01	-3.449030e+02
3.300000e-07	-6.443698e-06	-5.237217e-09	-4.594415e+01	-3.428106e+02
3.400000e-07	-6.352641e-06	-5.178274e-09	-4.529490e+01	-3.406363e+02
3.500000e-07	-6.259373e-06	-5.121935e-09	-4.462989e+01	-3.383736e+02
3.600000e-07	-6.163868e-06	-5.102444e-09	-4.394894e+01	-3.360187e+02
3.700000e-07	-6.066092e-06	-5.088618e-09	-4.325178e+01	-3.335704e+02
3.800000e-07	-5.966086e-06	-5.059697e-09	-4.253873e+01	-3.310298e+02
3.900000e-07	-5.863944e-06	-5.034179e-09	-4.181045e+01	-3.283995e+02
4.000000e-07	-5.759717e-06	-4.973789e-09	-4.106730e+01	-3.256831e+02
4.100000e-07	-5.653454e-06	-4.893948e-09	-4.030963e+01	-3.228844e+02
4.200000e-07	-5.545241e-06	-4.846277e-09	-3.953806e+01	-3.200062e+02
4.300000e-07	-5.435061e-06	-4.849703e-09	-3.875247e+01	-3.170504e+02
4.400000e-07	-5.322895e-06	-4.815906e-09	-3.795272e+01	-3.140173e+02
4.500000e-07	-5.208687e-06	-4.747262e-09	-3.713841e+01	-3.109051e+02
4.600000e-07	-5.092359e-06	-4.692886e-09	-3.630898e+01	-3.077109e+02
4.700000e-07	-4.974062e-06	-4.638596e-09	-3.546551e+01	-3.044301e+02
4.800000e-07	-4.854012e-06	-4.571198e-09	-3.460954e+01	-3.010573e+02
4.900000e-07	-4.732225e-06	-4.520235e-09	-3.374119e+01	-2.975864e+02
5.000000e-07	-4.608727e-06	-4.487081e-09	-3.286064e+01	-2.940113e+02
5.100000e-07	-4.483617e-06	-4.424079e-09	-3.196859e+01	-2.903263e+02
5.200000e-07	-4.356872e-06	-4.356829e-09	-3.106489e+01	-2.865262e+02
5.300000e-07	-4.228490e-06	-4.311836e-09	-3.014951e+01	-2.826066e+02
5.400000e-07	-4.098601e-06	-4.260175e-09	-2.922339e+01	-2.785643e+02
5.500000e-07	-3.967242e-06	-4.176659e-09	-2.828679e+01	-2.743971e+02
5.600000e-07	-3.834309e-06	-4.101427e-09	-2.733897e+01	-2.701041e+02
5.700000e-07	-3.699844e-06	-4.043697e-09	-2.638022e+01	-2.656850e+02
5.800000e-07	-3.564067e-06	-3.969024e-09	-2.541212e+01	-2.611403e+02
5.900000e-07	-3.426903e-06	-3.885124e-09	-2.443413e+01	-2.564711e+02
6.000000e-07	-3.288301e-06	-3.818231e-09	-2.344588e+01	-2.516780e+02
6.100000e-07	-3.148302e-06	-3.754611e-09	-2.244768e+01	-2.467611e+02
6.200000e-07	-3.006940e-06	-3.670183e-09	-2.143975e+01	-2.417194e+02
6.300000e-07	-2.864347e-06	-3.591292e-09	-2.042305e+01	-2.365500e+02
6.400000e-07	-2.720625e-06	-3.527138e-09	-1.939830e+01	-2.312476e+02
6.500000e-07	-2.575989e-06	-3.451281e-09	-1.836704e+01	-2.258045e+02
6.600000e-07	-2.430445e-06	-3.354997e-09	-1.732929e+01	-2.202103e+02
6.700000e-07	-2.283916e-06	-3.256178e-09	-1.628452e+01	-2.144521e+02
6.800000e-07	-2.136659e-06	-3.160324e-09	-1.523457e+01	-2.085154e+02
6.900000e-07	-1.988870e-06	-3.061128e-09	-1.418082e+01	-2.023842e+02
7.000000e-07	-1.840453e-06	-2.962199e-09	-1.312260e+01	-1.960430e+02
7.100000e-07	-1.691368e-06	-2.868160e-09	-1.205960e+01	-1.894768e+02
7.200000e-07	-1.541739e-06	-2.770626e-09	-1.099274e+01	-1.826729e+02
7.300000e-07	-1.391597e-06	-2.663606e-09	-9.922208e+00	-1.756213e+02
7.400000e-07	-1.240945e-06	-2.552479e-09	-8.848052e+00	-1.683152e+02
7.500000e-07	-1.089948e-06	-2.437822e-09	-7.771430e+00	-1.607503e+02
7.600000e-07	-9.386407e-07	-2.321460e-09	-6.692592e+00	-1.529244e+02
7.700000e-07	-7.870190e-07	-2.199160e-09	-5.611516e+00	-1.448358e+02
7.800000e-07	-6.351597e-07	-2.070062e-09	-4.528745e+00	-1.364816e+02
7.900000e-07	-4.830338e-07	-1.936256e-09	-3.444074e+00	-1.278554e+02
8.000000e-07	-3.307168e-07	-1.797198e-09	-2.358041e+00	-1.189454e+02
8.100000e-07	-1.782978e-07	-1.654306e-09	-1.271279e+00	-1.097332e+02
8.200000e-07	-2.576963e-08	-1.505442e-09	-1.837398e-01	-1.001928e+02
8.300000e-07	1.268301e-07	-1.351742e-09	9.043103e-01	-9.029086e+01
8.400000e-07	2.793819e-07	-1.191975e-09	1.992018e+00	-7.998849e+01
8.500000e-07	4.317960e-07	-1.026251e-09	3.078744e+00	-6.924387e+01
8.600000e-07	5.840862e-07	-8.559050e-10	4.164587e+00	-5.801630e+01
8.700000e-07	7.362820e-07	-6.805071e-10	5.249757e+00	-4.627103e+01
8.800000e-07	8.882750e-07	-4.986494e-10	6.333481e+00	-3.398446e+01
8.900000e-07	1.040001e-06	-3.067211e-10	7.415299e+00	-2.114928e+01
9.000000e-07	1.191471e-06	-1.056724e-10	8.495298e+00	-7.778921e+00
9.100000e-07	1.342546e-06	1.026673e-10	9.572473e+00	6.089283e+00
9.200000e-07	1.493070e-06	3.176055e-10	1.064573e+01	2.039268e+01
9.300000e-07	1.643025e-06	5.414066e-10	1.171491e+01	3.504387e+01
9.400000e-07	1.792370e-06	7.715791e-10	1.277976e+01	4.993348e+01
9.500000e-07	1.941055e-06	1.002324e-09	1.383990e+01	6.493490e+01
9.600000e-07	2.089023e-06	1.233422e-09	1.489492e+01	7.991074e+01
9.700000e-07	2.236250e-06	1.460088e-09	1.594466e+01	9.472035e+01
9.800000e-07	2.382724e-06	1.676616e-09	1.698903e+01	1.092278e+02
9.900000e-07	2.528311e-06	1.885564e-09	1.802708e+01	1.233097e+02
1.000000e-06	2.672901e-06	2.087219e-09	1.905803e+01	1.368616e+02
1.010000e-06	2.816468e-06	2.283728e-09	2.008167e+01	1.498032e+02
1.020000e-06	2.958953e-06	2.470013e-09	2.109760e+01	1.620811e+02
1.030000e-06	3.100219e-06	2.643552e-09	2.210484e+01	1.736696e+02
1.040000e-06	3.240159e-06	2.807124e-09	2.310262e+01	1.845689e+02
1.050000e-06	3.378810e-06	2.960608e-09	2.409122e+01	1.948017e+02
1.060000e-06	3.516210e-06	3.106596e-09	2.507089e+01	2.044079e+02
1.070000e-06	3.652208e-06	3.241614e-09	2.604057e+01	2.134388e+02
1.080000e-06	3.786795e-06	3.371564e-09	2.700019e+01	2.219511e+02
1.090000e-06	3.920114e-06	3.497647e-09	2.795077e+01	2.300009e+02
1.100000e-06	4.051998e-06	3.619200e-09	2.889111e+01	2.376400e+02
1.110000e-06	4.182431e-06	3.737099e-09	2.982111e+01	2.449116e+02
1.120000e-06	4.311473e-06	3.845829e-09	3.074119e+01	2.518500e+02
1.130000e-06	4.438950e-06	3.944267e-09	3.165011e+01	2.584796e+02
1.140000e-06	4.564910e-06	4.034488e-09	3.254822e+01	2.648171e+02
1.150000e-06	4.689342e-06	4.122348e-09	3.343543e+01	2.708732e+02
1.160000e-06	4.812128e-06	4.209967e-09	3.431091e+01	2.766555e+02
1.170000e-06	4.933248e-06	4.292383e-09	3.517450e+01	2.821715e+02
1.180000e-06	5.052540e-06	4.369392e-09	3.602506e+01	2.874300e+02
1.190000e-06	5.169959e-06	4.445011e-09	3.686227e+01	2.924431e+02
1.200000e-06	5.285427e-06	4.521866e-09	3.768557e+01	2.972264e+02
1.210000e-06	5.398842e-06	4.599269e-09	3.849423e+01	3.017982e+02
1.220000e-06	5.510188e-06	4.670931e-09	3.928814e+01	3.061779e+02
1.230000e-06	5.619569e-06	4.733165e-09	4.006803e+01	3.103845e+02
1.240000e-06	5.727081e-06	4.789242e-09	4.083460e+01	3.144344e+02
1.250000e-06	5.832521e-06	4.843691e-09	4.158640e+01	3.183392e+02
1.260000e-06	5.935750e-06	4.897025e-09	4.232243e+01	3.221051e+02
1.270000e-06	6.036762e-06	4.950521e-09	4.304265e+01	3.257322e+02
1.280000e-06	6.135506e-06	5.000695e-09	4.374671e+01	3.292152e+02
1.290000e-06	6.231893e-06	5.047552e-09	4.443395e+01	3.325448e+02
1.300000e-06	6.326064e-06	5.095577e-09	4.510540e+01	3.357097e+02
1.310000e-06	6.418068e-06	5.142698e-09	4.576140e+01	3.386993e+02
1.320000e-06	6.507774e-06	5.186670e-09	4.640101e+01	3.415057e+02
1.330000e-06	6.595088e-06	5.224877e-09	4.702357e+01	3.441260e+02
1.340000e-06	6.680076e-06	5.259948e-09	4.762954e+01	3.465633e+02
1.350000e-06	6.762795e-06	5.293007e-09	4.821933e+01	3.488274e+02
1.360000e-06	6.843067e-06	5.323646e-09	4.879168e+01	3.509336e+02
1.370000e-06	6.920805e-06	5.354281e-09	4.934596e+01	3.529018e+02
1.380000e-06	6.995926e-06	5.384276e-09	4.988158e+01	3.547539e+02
1.390000e-06	7.068362e-06	5.413606e-09	5.039806e+01	3.565113e+02
1.400000e-06	7.138275e-06	5.440902e-09	5.089654e+01	3.581926e+02
1.410000e-06	7.205675e-06	5.466738e-09	5.137711e+01	3.598115e+02
1.420000e-06	7.270431e-06	5.490439e-09	5.183883e+01	3.613752e+02
1.430000e-06	7.332670e-06	5.511188e-09	5.228260e+01	3.628846e+02
1.440000e-06	7.392518e-06	5.531178e-09	5.270932e+01	3.643341e+02
1.450000e-06	7.449803e-06	5.550939e-09	5.311777e+01	3.657139e+02
1.460000e-06	7.504379e-06	5.569479e-09	5.350690e+01	3.670116e+02
1.470000e-06	7.555976e-06	5.584434e-09	5.387479e+01	3.682147e+02
1.480000e-06	7.604411e-06	5.598382e-09	5.422013e+01	3.693134e+02
1.490000e-06	7.650055e-06	5.612842e-09	5.454558e+01	3.703019e+02
1.500000e-06	7.693095e-06	5.626198e-09	5.485246e+01	3.711805e+02
1.510000e-06	7.733347e-06	5.640462e-09	5.513946e+01	3.719552e+02
1.520000e-06	7.770849e-06	5.655381e-09	5.540685e+01	3.726373e+02
1.530000e-06	7.805655e-06	5.668042e-09	5.565502e+01	3.732420e+02
1.540000e-06	7.837631e-06	5.676714e-09	5.588301e+01	3.737859e+02
1.550000e-06	7.866851e-06	5.682094e-09	5.609136e+01	3.742847e+02
1.560000e-06	7.893322e-06	5.687386e-09	5.628010e+01	3.747509e+02
1.570000e-06	7.916802e-06	5.694825e-09	5.644751e+01	3.751915e+02
1.580000e-06	7.937494e-06	5.702920e-09	5.659505e+01	3.756073e+02
1.590000e-06	7.955512e-06	5.708708e-09	5.672352e+01	3.759922e+02
1.600000e-06	7.970520e-06	5.712983e-09	5.683052e+01	3.763344e+02
1.610000e-06	7.982380e-06	5.716328e-09	5.691508e+01	3.766182e+02
1.620000e-06	7.991113e-06	5.718374e-09	5.697735e+01	3.768259e+02
1.630000e-06	7.996930e-06	5.720195e-09	5.701883e+01	3.769414e+02
1.640000e-06	7.999926e-06	5.721678e-09	5.704019e+01	3.769525e+02
1.650000e-06	8.000110e-06	5.719825e-09	5.704150e+01	3.768531e+02
1.660000e-06	7.997650e-06	5.714924e-09	5.702396e+01	3.766450e+02
1.670000e-06	7.992553e-06	5.708975e-09	5.698762e+01	3.763379e+02
1.680000e-06	7.984775e-06	5.703736e-09	5.693217e+01	3.759491e+02
1.690000e-06	7.974305e-06	5.697925e-09	5.685751e+01	3.755017e+02
1.700000e-06	7.960917e-06	5.693673e-09	5.676205e+01	3.750217e+02
1.710000e-06	7.944851e-06	5.692201e-09	5.664750e+01	3.745352e+02
1.720000e-06	7.926526e-06	5.687719e-09	5.651684e+01	3.740650e+02
1.730000e-06	7.905887e-06	5.645369e-09	5.636968e+01	3.736279e+02
1.740000e-06	7.882345e-06	5.625185e-09	5.620183e+01	3.732323e+02
1.750000e-06	7.855256e-06	5.617608e-09	5.600868e+01	3.728769e+02
1.760000e-06	7.824582e-06	5.610841e-09	5.578997e+01	3.725511e+02
1.770000e-06	7.790964e-06	5.622722e-09	5.555027e+01	3.722355e+02
1.780000e-06	7.755040e-06	5.680005e-09	5.529413e+01	3.719041e+02
1.790000e-06	7.716808e-06	5.691898e-09	5.502154e+01	3.715274e+02
1.800000e-06	7.676554e-06	5.647036e-09	5.473452e+01	3.710750e+02
1.810000e-06	7.634133e-06	5.640175e-09	5.443206e+01	3.705191e+02
1.820000e-06	7.588989e-06	5.595266e-09	5.411018e+01	3.698368e+02
1.830000e-06	7.541188e-06	5.634427e-09	5.376935e+01	3.690126e+02
1.840000e-06	7.490477e-06	5.659428e-09	5.340778e+01	3.680391e+02
1.850000e-06	7.436757e-06	5.679179e-09	5.302474e+01	3.669172e+02
1.860000e-06	7.380254e-06	5.664651e-09	5.262187e+01	3.656552e+02
1.870000e-06	7.321055e-06	5.531412e-09	5.219978e+01	3.642672e+02
1.880000e-06	7.259220e-06	5.499554e-09	5.175889e+01	3.627708e+02
1.890000e-06	7.194542e-06	5.481667e-09	5.129773e+01	3.611850e+02
1.900000e-06	7.127070e-06	5.481895e-09	5.081665e+01	3.595274e+02
1.910000e-06	7.056821e-06	5.500560e-09	5.031577e+01	3.578130e+02
1.920000e-06	6.983849e-06	5.451595e-09	4.979547e+01	3.560519e+02
1.930000e-06	6.908238e-06	5.386172e-09	4.925636e+01	3.542496e+02
1.940000e-06	6.829804e-06	5.340539e-09	4.869711e+01	3.524063e+02
1.950000e-06	6.748808e-06	5.362691e-09	4.811961e+01	3.505179e+02
1.960000e-06	6.665412e-06	5.335961e-09	4.752499e+01	3.485772e+02
1.970000e-06	6.579509e-06	5.287348e-09	4.691249e+01	3.465748e+02
1.980000e-06	6.491112e-06	5.256228e-09	4.628221e+01	3.445012e+02
1.990000e-06	6.400395e-06	5.221408e-09	4.563539e+01	3.423475e+02
2.000000e-06	6.307520e-06	5.196876e-09	4.497319e+01	3.401069e+02
2.010000e-06	6.212394e-06	5.166032e-09	4.429493e+01	3.377748e+02
2.020000e-06	6.114997e-06	5.139866e-09	4.360048e+01	3.353494e+02
2.030000e-06	6.015360e-06	5.056666e-09	4.289005e+01	3.328312e+02
2.040000e-06	5.913629e-06	4.994175e-09	4.216471e+01	3.302225e+02
2.050000e-06	5.809838e-06	4.997225e-09	4.142467e+01	3.275269e+02
2.060000e-06	5.704044e-06	5.005507e-09	4.067034e+01	3.247479e+02
2.070000e-06	5.596321e-06	4.945149e-09	3.990227e+01	3.218889e+02
2.080000e-06	5.486611e-06	4.863114e-09	3.912003e+01	3.189520e+02
2.090000e-06	5.374875e-06	4.800849e-09	3.832334e+01	3.159378e+02
2.100000e-06	5.261061e-06	4.743583e-09	3.751184e+01	3.128452e+02
2.110000e-06	5.145273e-06	4.723382e-09	3.668626e+01	3.096714e+02
2.120000e-06	5.027541e-06	4.721734e-09	3.584682e+01	3.064122e+02
2.130000e-06	4.907889e-06	4.674228e-09	3.499369e+01	3.030625e+02
2.140000e-06	4.786360e-06	4.567317e-09	3.412718e+01	2.996162e+02
2.150000e-06	4.663119e-06	4.489143e-09	3.324846e+01	2.960673e+02
2.160000e-06	4.538208e-06	4.456704e-09	3.235783e+01	2.924098e+02
2.170000e-06	4.411621e-06	4.423574e-09	3.145525e+01	2.886384e+02
2.180000e-06	4.283421e-06	4.362930e-09	3.054117e+01	2.847486e+02
2.190000e-06	4.153632e-06	4.302021e-09	2.961577e+01	2.807367e+02
2.200000e-06	4.022351e-06	4.228109e-09	2.867973e+01	2.766005e+02
2.210000e-06	3.889525e-06	4.150791e-09	2.773266e+01	2.723385e+02
2.220000e-06	3.755187e-06	4.099808e-09	2.677482e+01	2.679504e+02
2.230000e-06	3.619433e-06	4.055763e-09	2.580688e+01	2.634366e+02
2.240000e-06	3.482244e-06	3.975984e-09	2.482871e+01	2.587979e+02
2.250000e-06	3.343730e-06	3.877842e-09	2.384109e+01	2.540353e+02
2.260000e-06	3.204090e-06	3.811887e-09	2.284545e+01	2.491489e+02
2.270000e-06	3.063196e-06	3.758529e-09	2.184087e+01	2.441382e+02
2.280000e-06	2.921049e-06	3.682456e-09	2.082734e+01	2.390006e+02
2.290000e-06	2.777814e-06	3.586858e-09	1.980606e+01	2.337316e+02
2.300000e-06	2.633509e-06	3.492540e-09	1.877715e+01	2.283241e+02
2.310000e-06	2.488248e-06	3.399943e-09	1.774143e+01	2.227683e+02
2.320000e-06	2.342206e-06	3.321560e-09	1.670014e+01	2.170519e+02
2.330000e-06	2.195458e-06	3.255493e-09	1.565381e+01	2.111608e+02
2.340000e-06	2.048002e-06	3.173257e-09	1.460243e+01	2.050793e+02
2.350000e-06	1.899868e-06	3.058966e-09	1.354623e+01	1.987916e+02
2.360000e-06	1.751029e-06	2.940242e-09	1.248499e+01	1.922824e+02
2.370000e-06	1.601503e-06	2.841730e-09	1.141886e+01	1.855385e+02
2.380000e-06	1.451475e-06	2.752408e-09	1.034915e+01	1.785492e+02
2.390000e-06	1.301031e-06	2.650135e-09	9.276466e+00	1.713067e+02
2.400000e-06	1.150195e-06	2.529337e-09	8.200991e+00	1.638063e+02
2.410000e-06	9.990424e-07	2.398834e-09	7.123262e+00	1.560453e+02
2.420000e-06	8.475533e-07	2.269930e-09	6.043131e+00	1.480222e+02
2.430000e-06	6.957873e-07	2.151914e-09	4.961026e+00	1.397343e+02
2.440000e-06	5.438050e-07	2.035790e-09	3.877378e+00	1.311765e+02
2.450000e-06	3.915871e-07	1.905716e-09	2.792051e+00	1.223384e+02
2.460000e-06	2.391391e-07	1.761537e-09	1.705083e+00	1.132035e+02
2.470000e-06	8.655058e-08	1.612815e-09	6.171134e-01	1.037475e+02
2.480000e-06	-6.610928e-08	1.462226e-09	-4.713651e-01	9.393893e+01
2.490000e-06	-2.187843e-07	1.307682e-09	-1.559952e+00	8.374007e+01
2.500000e-06	-3.714040e-07	1.146220e-09	-2.648144e+00	7.310948e+01
2.510000e-06	-5.238769e-07	9.751807e-10	-3.735289e+00	6.200576e+01
2.520000e-06	-6.760864e-07	7.961511e-10	-4.820557e+00	5.039219e+01
2.530000e-06	-8.280977e-07	6.150211e-10	-5.904411e+00	3.824187e+01
2.540000e-06	-9.798235e-07	4.301512e-10	-6.986230e+00	2.554299e+01
2.550000e-06	-1.131143e-06	2.309054e-10	-8.065152e+00	1.230343e+01
2.560000e-06	-1.282073e-06	1.450424e-11	-9.141299e+00	-1.445655e+00
2.570000e-06	-1.432577e-06	-2.083276e-10	-1.021440e+01	-1.564798e+01
2.580000e-06	-1.582612e-06	-4.317009e-10	-1.128417e+01	-3.022215e+01
2.590000e-06	-1.732108e-06	-6.574656e-10	-1.235009e+01	-4.506392e+01
2.600000e-06	-1.880935e-06	-8.878049e-10	-1.341123e+01	-6.005044e+01
2.610000e-06	-2.029059e-06	-1.121509e-09	-1.446738e+01	-7.504634e+01
2.620000e-06	-2.176399e-06	-1.355678e-09	-1.551792e+01	-8.991103e+01
2.630000e-06	-2.322825e-06	-1.584701e-09	-1.656195e+01	-1.045067e+02
2.640000e-06	-2.468397e-06	-1.802094e-09	-1.759989e+01	-1.187061e+02
2.650000e-06	-2.613070e-06	-2.007795e-09	-1.863142e+01	-1.323995e+02
2.660000e-06	-2.756689e-06	-2.205493e-09	-1.965544e+01	-1.455002e+02
2.670000e-06	-2.899222e-06	-2.395767e-09	-2.067171e+01	-1.579480e+02
2.680000e-06	-3.040658e-06	-2.574402e-09	-2.168017e+01	-1.697102e+02
2.690000e-06	-3.180905e-06	-2.741561e-09	-2.268014e+01	-1.807810e+02
2.700000e-06	-3.319876e-06	-2.899576e-09	-2.367101e+01	-1.911777e+02
2.710000e-06	-3.457615e-06	-3.047502e-09	-2.465310e+01	-2.009366e+02
2.720000e-06	-3.594017e-06	-3.187971e-09	-2.562567e+01	-2.101066e+02
2.730000e-06	-3.729043e-06	-3.323365e-09	-2.658841e+01	-2.187436e+02
2.740000e-06	-3.862822e-06	-3.453510e-09	-2.754226e+01	-2.269044e+02
2.750000e-06	-3.995260e-06	-3.574462e-09	-2.848656e+01	-2.346422e+02
2.760000e-06	-4.126182e-06	-3.686784e-09	-2.942005e+01	-2.420026e+02
2.770000e-06	-4.255726e-06	-3.794702e-09	-3.034371e+01	-2.490221e+02
2.780000e-06	-4.383821e-06	-3.897424e-09	-3.125703e+01	-2.557276e+02
2.790000e-06	-4.510309e-06	-3.992628e-09	-3.215891e+01	-2.621374e+02
2.800000e-06	-4.635359e-06	-4.080644e-09	-3.305052e+01	-2.682635e+02
2.810000e-06	-4.758746e-06	-4.165800e-09	-3.393028e+01	-2.741141e+02
2.820000e-06	-4.880415e-06	-4.249428e-09	-3.479780e+01	-2.796963e+02
2.830000e-06	-5.000290e-06	-4.332088e-09	-3.565252e+01	-2.850186e+02
2.840000e-06	-5.118199e-06	-4.411885e-09	-3.649322e+01	-2.900923e+02
2.850000e-06	-5.233992e-06	-4.486468e-09	-3.731883e+01	-2.949319e+02
2.860000e-06	-5.347617e-06	-4.557830e-09	-3.812899e+01	-2.995552e+02
2.870000e-06	-5.459189e-06	-4.628188e-09	-3.892451e+01	-3.039815e+02
2.880000e-06	-5.568667e-06	-4.697268e-09	-3.970509e+01	-3.082303e+02
2.890000e-06	-5.676253e-06	-4.763460e-09	-4.047219e+01	-3.123185e+02
2.900000e-06	-5.781984e-06	-4.827409e-09	-4.122606e+01	-3.162592e+02
2.910000e-06	-5.885599e-06	-4.888509e-09	-4.196485e+01	-3.200600e+02
2.920000e-06	-5.986958e-06	-4.943511e-09	-4.268755e+01	-3.237226e+02
2.930000e-06	-6.086105e-06	-4.996937e-09	-4.339448e+01	-3.272428e+02
2.940000e-06	-6.183164e-06	-5.049858e-09	-4.408652e+01	-3.306123e+02
