# Temperatura_=_27.59
# Concentracion g/m^3_=_5000.0
# C_Vs_to_Am_M_A/Vsm_=_65563218390.804596
# pendiente_HvsI_1/m_=_3716.3
# ordenada_HvsI_A/m_=_1297.0
# frecuencia_Hz_=_302577.4191363907

Tiempo_(s)	Campo_(V.s)	Magnetizacion_(V.s)	Campo_(kA/m)	Magnetizacion_(A/m)
0.000000e+00	-8.003159e-06	-5.905514e-09	-5.685320e+01	-3.869009e+02
1.000000e-08	-7.999807e-06	-5.903433e-09	-5.682938e+01	-3.866987e+02
2.000000e-08	-7.993838e-06	-5.898286e-09	-5.678698e+01	-3.864391e+02
3.000000e-08	-7.985292e-06	-5.894191e-09	-5.672628e+01	-3.861360e+02
4.000000e-08	-7.973921e-06	-5.887206e-09	-5.664550e+01	-3.858021e+02
5.000000e-08	-7.959485e-06	-5.880899e-09	-5.654294e+01	-3.854476e+02
6.000000e-08	-7.942204e-06	-5.875266e-09	-5.642018e+01	-3.850783e+02
7.000000e-08	-7.922579e-06	-5.861158e-09	-5.628077e+01	-3.846948e+02
8.000000e-08	-7.900578e-06	-5.892347e-09	-5.612448e+01	-3.842920e+02
9.000000e-08	-7.875573e-06	-5.918745e-09	-5.594685e+01	-3.838604e+02
1.000000e-07	-7.847251e-06	-5.872978e-09	-5.574565e+01	-3.833866e+02
1.100000e-07	-7.815910e-06	-5.845326e-09	-5.552301e+01	-3.828553e+02
1.200000e-07	-7.781828e-06	-5.833472e-09	-5.528090e+01	-3.822516e+02
1.300000e-07	-7.745169e-06	-5.812192e-09	-5.502048e+01	-3.815624e+02
1.400000e-07	-7.706261e-06	-5.766983e-09	-5.474408e+01	-3.807786e+02
1.500000e-07	-7.665161e-06	-5.784421e-09	-5.445211e+01	-3.798961e+02
1.600000e-07	-7.621529e-06	-5.847760e-09	-5.414216e+01	-3.789160e+02
1.700000e-07	-7.575164e-06	-5.724130e-09	-5.381279e+01	-3.778443e+02
1.800000e-07	-7.526019e-06	-5.786548e-09	-5.346367e+01	-3.766910e+02
1.900000e-07	-7.473887e-06	-5.769974e-09	-5.309334e+01	-3.754686e+02
2.000000e-07	-7.418842e-06	-5.673804e-09	-5.270231e+01	-3.741902e+02
2.100000e-07	-7.361088e-06	-5.708858e-09	-5.229203e+01	-3.728674e+02
2.200000e-07	-7.300628e-06	-5.651546e-09	-5.186253e+01	-3.715094e+02
2.300000e-07	-7.237556e-06	-5.681277e-09	-5.141447e+01	-3.701213e+02
2.400000e-07	-7.171756e-06	-5.622483e-09	-5.094704e+01	-3.687038e+02
2.500000e-07	-7.103193e-06	-5.609251e-09	-5.045998e+01	-3.672535e+02
2.600000e-07	-7.031936e-06	-5.593616e-09	-4.995378e+01	-3.657634e+02
2.700000e-07	-6.957896e-06	-5.564571e-09	-4.942781e+01	-3.642242e+02
2.800000e-07	-6.881089e-06	-5.547048e-09	-4.888219e+01	-3.626257e+02
2.900000e-07	-6.801460e-06	-5.517989e-09	-4.831651e+01	-3.609583e+02
3.000000e-07	-6.719214e-06	-5.536792e-09	-4.773226e+01	-3.592140e+02
3.100000e-07	-6.634716e-06	-5.470416e-09	-4.713199e+01	-3.573872e+02
3.200000e-07	-6.548009e-06	-5.414738e-09	-4.651604e+01	-3.554755e+02
3.300000e-07	-6.458940e-06	-5.399377e-09	-4.588331e+01	-3.534788e+02
3.400000e-07	-6.367464e-06	-5.366210e-09	-4.523348e+01	-3.513991e+02
3.500000e-07	-6.273704e-06	-5.326633e-09	-4.456742e+01	-3.492397e+02
3.600000e-07	-6.177575e-06	-5.299282e-09	-4.388453e+01	-3.470037e+02
3.700000e-07	-6.079121e-06	-5.285112e-09	-4.318513e+01	-3.446935e+02
3.800000e-07	-5.978543e-06	-5.234633e-09	-4.247064e+01	-3.423098e+02
3.900000e-07	-5.875860e-06	-5.185503e-09	-4.174120e+01	-3.398513e+02
4.000000e-07	-5.771090e-06	-5.156290e-09	-4.099693e+01	-3.373147e+02
4.100000e-07	-5.664303e-06	-5.123667e-09	-4.023833e+01	-3.346954e+02
4.200000e-07	-5.555509e-06	-5.071766e-09	-3.946548e+01	-3.319877e+02
4.300000e-07	-5.444770e-06	-5.021983e-09	-3.867880e+01	-3.291862e+02
4.400000e-07	-5.331993e-06	-4.990914e-09	-3.787765e+01	-3.262862e+02
4.500000e-07	-5.217019e-06	-4.948370e-09	-3.706090e+01	-3.232846e+02
4.600000e-07	-5.100067e-06	-4.886068e-09	-3.623008e+01	-3.201798e+02
4.700000e-07	-4.981317e-06	-4.835146e-09	-3.538650e+01	-3.169721e+02
4.800000e-07	-4.860694e-06	-4.790580e-09	-3.452961e+01	-3.136629e+02
4.900000e-07	-4.738277e-06	-4.735649e-09	-3.365998e+01	-3.102542e+02
5.000000e-07	-4.614169e-06	-4.677978e-09	-3.277834e+01	-3.067471e+02
5.100000e-07	-4.488413e-06	-4.624523e-09	-3.188499e+01	-3.031418e+02
5.200000e-07	-4.361035e-06	-4.569257e-09	-3.098012e+01	-2.994362e+02
5.300000e-07	-4.231945e-06	-4.505474e-09	-3.006308e+01	-2.956256e+02
5.400000e-07	-4.101285e-06	-4.445178e-09	-2.913489e+01	-2.917031e+02
5.500000e-07	-3.969148e-06	-4.384263e-09	-2.819621e+01	-2.876599e+02
5.600000e-07	-3.835575e-06	-4.323324e-09	-2.724733e+01	-2.834858e+02
5.700000e-07	-3.700587e-06	-4.253042e-09	-2.628840e+01	-2.791711e+02
5.800000e-07	-3.564144e-06	-4.179700e-09	-2.531912e+01	-2.747067e+02
5.900000e-07	-3.426293e-06	-4.101943e-09	-2.433986e+01	-2.700860e+02
6.000000e-07	-3.287013e-06	-4.027014e-09	-2.335043e+01	-2.653048e+02
6.100000e-07	-3.146284e-06	-3.956955e-09	-2.235071e+01	-2.603620e+02
6.200000e-07	-3.004217e-06	-3.884670e-09	-2.134149e+01	-2.552585e+02
6.300000e-07	-2.860970e-06	-3.809418e-09	-2.032389e+01	-2.499971e+02
6.400000e-07	-2.716657e-06	-3.727381e-09	-1.929871e+01	-2.445805e+02
6.500000e-07	-2.571370e-06	-3.644222e-09	-1.826661e+01	-2.390102e+02
6.600000e-07	-2.425163e-06	-3.552276e-09	-1.722798e+01	-2.332851e+02
6.700000e-07	-2.278182e-06	-3.458339e-09	-1.618385e+01	-2.274005e+02
6.800000e-07	-2.130491e-06	-3.363054e-09	-1.513467e+01	-2.213472e+02
6.900000e-07	-1.982069e-06	-3.265076e-09	-1.408031e+01	-2.151119e+02
7.000000e-07	-1.833020e-06	-3.163425e-09	-1.302149e+01	-2.086780e+02
7.100000e-07	-1.683468e-06	-3.059670e-09	-1.195909e+01	-2.020264e+02
7.200000e-07	-1.533465e-06	-2.957015e-09	-1.089349e+01	-1.951379e+02
7.300000e-07	-1.382980e-06	-2.849193e-09	-9.824477e+00	-1.879944e+02
7.400000e-07	-1.231937e-06	-2.734834e-09	-8.751487e+00	-1.805810e+02
7.500000e-07	-1.080350e-06	-2.616817e-09	-7.674638e+00	-1.728866e+02
7.600000e-07	-9.283822e-07	-2.499707e-09	-6.595083e+00	-1.649045e+02
7.700000e-07	-7.761295e-07	-2.373745e-09	-5.513503e+00	-1.566319e+02
7.800000e-07	-6.236111e-07	-2.240307e-09	-4.430037e+00	-1.480686e+02
7.900000e-07	-4.708612e-07	-2.102567e-09	-3.344925e+00	-1.392146e+02
8.000000e-07	-3.179507e-07	-1.961717e-09	-2.258673e+00	-1.300683e+02
8.100000e-07	-1.649259e-07	-1.816764e-09	-1.171608e+00	-1.206233e+02
8.200000e-07	-1.172301e-08	-1.667498e-09	-8.327841e-02	-1.108673e+02
8.300000e-07	1.415918e-07	-1.513464e-09	1.005846e+00	-1.007804e+02
8.400000e-07	2.948507e-07	-1.349150e-09	2.094574e+00	-9.033512e+01
8.500000e-07	4.479652e-07	-1.179152e-09	3.182275e+00	-7.949846e+01
8.600000e-07	6.009470e-07	-1.003322e-09	4.269034e+00	-6.823423e+01
8.700000e-07	7.537276e-07	-8.258570e-10	5.354364e+00	-5.650736e+01
8.800000e-07	9.062349e-07	-6.432507e-10	6.437752e+00	-4.428878e+01
8.900000e-07	1.058493e-06	-4.542841e-10	7.519369e+00	-3.156063e+01
9.000000e-07	1.210481e-06	-2.569257e-10	8.599070e+00	-1.832124e+01
9.100000e-07	1.362071e-06	-5.157113e-11	9.675942e+00	-4.589105e+00
9.200000e-07	1.513023e-06	1.616292e-10	1.074828e+01	9.594500e+00
9.300000e-07	1.663297e-06	3.853989e-10	1.181580e+01	2.416482e+01
9.400000e-07	1.812977e-06	6.114596e-10	1.287911e+01	3.903498e+01
9.500000e-07	1.962102e-06	8.421680e-10	1.393847e+01	5.409931e+01
9.600000e-07	2.110598e-06	1.075220e-09	1.499336e+01	6.923855e+01
9.700000e-07	2.258276e-06	1.306646e-09	1.604245e+01	8.432621e+01
9.800000e-07	2.405131e-06	1.533623e-09	1.708568e+01	9.923573e+01
9.900000e-07	2.551129e-06	1.755963e-09	1.812283e+01	1.138475e+02
1.000000e-06	2.696102e-06	1.970890e-09	1.915269e+01	1.280551e+02
1.010000e-06	2.840057e-06	2.178165e-09	2.017533e+01	1.417706e+02
1.020000e-06	2.982908e-06	2.375817e-09	2.119012e+01	1.549277e+02
1.030000e-06	3.124622e-06	2.561614e-09	2.219683e+01	1.674829e+02
1.040000e-06	3.265160e-06	2.739341e-09	2.319519e+01	1.794150e+02
1.050000e-06	3.404361e-06	2.908469e-09	2.418405e+01	1.907228e+02
1.060000e-06	3.542193e-06	3.070523e-09	2.516319e+01	2.014215e+02
1.070000e-06	3.678612e-06	3.226600e-09	2.613229e+01	2.115379e+02
1.080000e-06	3.813607e-06	3.377487e-09	2.709127e+01	2.211062e+02
1.090000e-06	3.947233e-06	3.519764e-09	2.804053e+01	2.301633e+02
1.100000e-06	4.079499e-06	3.652226e-09	2.898013e+01	2.387457e+02
1.110000e-06	4.210354e-06	3.778635e-09	2.990970e+01	2.468866e+02
1.120000e-06	4.339694e-06	3.897498e-09	3.082851e+01	2.546150e+02
1.130000e-06	4.467457e-06	4.007903e-09	3.173612e+01	2.619556e+02
1.140000e-06	4.593706e-06	4.109726e-09	3.263297e+01	2.689292e+02
1.150000e-06	4.718449e-06	4.207861e-09	3.351913e+01	2.755545e+02
1.160000e-06	4.841589e-06	4.302658e-09	3.439389e+01	2.818492e+02
1.170000e-06	4.962925e-06	4.392656e-09	3.525585e+01	2.878319e+02
1.180000e-06	5.082434e-06	4.480372e-09	3.610482e+01	2.935221e+02
1.190000e-06	5.200147e-06	4.563988e-09	3.694104e+01	2.989415e+02
1.200000e-06	5.315935e-06	4.644814e-09	3.776358e+01	3.041124e+02
1.210000e-06	5.429652e-06	4.723013e-09	3.857140e+01	3.090575e+02
1.220000e-06	5.541237e-06	4.796863e-09	3.936409e+01	3.137979e+02
1.230000e-06	5.650867e-06	4.863228e-09	4.014288e+01	3.183518e+02
1.240000e-06	5.758566e-06	4.924745e-09	4.090796e+01	3.227329e+02
1.250000e-06	5.864116e-06	4.985524e-09	4.165777e+01	3.269496e+02
1.260000e-06	5.967451e-06	5.046819e-09	4.239185e+01	3.310046e+02
1.270000e-06	6.068675e-06	5.105115e-09	4.311092e+01	3.348956e+02
1.280000e-06	6.167675e-06	5.160563e-09	4.381421e+01	3.386162e+02
1.290000e-06	6.264245e-06	5.215281e-09	4.450022e+01	3.421580e+02
1.300000e-06	6.358484e-06	5.266983e-09	4.516969e+01	3.455124e+02
1.310000e-06	6.450571e-06	5.312611e-09	4.582385e+01	3.486725e+02
1.320000e-06	6.540327e-06	5.352883e-09	4.646147e+01	3.516355e+02
1.330000e-06	6.627657e-06	5.393228e-09	4.708185e+01	3.544031e+02
1.340000e-06	6.712764e-06	5.431795e-09	4.768643e+01	3.569825e+02
1.350000e-06	6.795588e-06	5.466666e-09	4.827481e+01	3.593858e+02
1.360000e-06	6.875884e-06	5.500829e-09	4.884521e+01	3.616291e+02
1.370000e-06	6.953601e-06	5.535786e-09	4.939730e+01	3.637306e+02
1.380000e-06	7.028719e-06	5.569396e-09	4.993093e+01	3.657089e+02
1.390000e-06	7.101198e-06	5.599406e-09	5.044581e+01	3.675810e+02
1.400000e-06	7.171151e-06	5.626644e-09	5.094275e+01	3.693605e+02
1.410000e-06	7.238602e-06	5.651406e-09	5.142190e+01	3.710567e+02
1.420000e-06	7.303396e-06	5.673659e-09	5.188219e+01	3.726741e+02
1.430000e-06	7.365571e-06	5.694345e-09	5.232388e+01	3.742128e+02
1.440000e-06	7.425366e-06	5.715650e-09	5.274865e+01	3.756692e+02
1.450000e-06	7.482625e-06	5.737191e-09	5.315541e+01	3.770379e+02
1.460000e-06	7.537134e-06	5.756065e-09	5.354263e+01	3.783130e+02
1.470000e-06	7.588646e-06	5.771138e-09	5.390856e+01	3.794902e+02
1.480000e-06	7.637010e-06	5.785125e-09	5.425213e+01	3.805675e+02
1.490000e-06	7.682590e-06	5.800105e-09	5.457593e+01	3.815467e+02
1.500000e-06	7.725474e-06	5.814695e-09	5.488057e+01	3.824329e+02
1.510000e-06	7.765507e-06	5.828392e-09	5.516496e+01	3.832344e+02
1.520000e-06	7.802834e-06	5.841910e-09	5.543012e+01	3.839614e+02
1.530000e-06	7.837427e-06	5.854771e-09	5.567586e+01	3.846245e+02
1.540000e-06	7.869179e-06	5.864360e-09	5.590142e+01	3.852333e+02
1.550000e-06	7.898293e-06	5.870703e-09	5.610825e+01	3.857948e+02
1.560000e-06	7.924598e-06	5.877436e-09	5.629511e+01	3.863123e+02
1.570000e-06	7.947891e-06	5.885824e-09	5.646058e+01	3.867849e+02
1.580000e-06	7.968463e-06	5.893969e-09	5.660673e+01	3.872082e+02
1.590000e-06	7.986259e-06	5.899886e-09	5.673314e+01	3.875744e+02
1.600000e-06	8.001015e-06	5.903957e-09	5.683797e+01	3.878743e+02
1.610000e-06	8.012649e-06	5.908599e-09	5.692061e+01	3.880988e+02
1.620000e-06	8.021207e-06	5.911804e-09	5.698141e+01	3.882405e+02
1.630000e-06	8.026896e-06	5.912737e-09	5.702183e+01	3.882954e+02
1.640000e-06	8.029666e-06	5.914334e-09	5.704150e+01	3.882636e+02
1.650000e-06	8.029550e-06	5.914376e-09	5.704068e+01	3.881501e+02
1.660000e-06	8.026867e-06	5.906800e-09	5.702162e+01	3.879637e+02
1.670000e-06	8.021533e-06	5.904651e-09	5.698373e+01	3.877167e+02
1.680000e-06	8.013424e-06	5.901567e-09	5.692612e+01	3.874227e+02
1.690000e-06	8.002665e-06	5.896098e-09	5.684969e+01	3.870950e+02
1.700000e-06	7.989111e-06	5.892403e-09	5.675341e+01	3.867445e+02
1.710000e-06	7.972847e-06	5.890914e-09	5.663787e+01	3.863782e+02
1.720000e-06	7.954255e-06	5.894919e-09	5.650579e+01	3.859980e+02
1.730000e-06	7.933243e-06	5.807500e-09	5.635653e+01	3.856003e+02
1.740000e-06	7.909319e-06	5.804921e-09	5.618657e+01	3.851766e+02
1.750000e-06	7.881859e-06	5.845700e-09	5.599150e+01	3.847143e+02
1.760000e-06	7.850786e-06	5.836693e-09	5.577076e+01	3.841984e+02
1.770000e-06	7.816878e-06	5.831945e-09	5.552989e+01	3.836136e+02
1.780000e-06	7.780637e-06	5.884749e-09	5.527244e+01	3.829463e+02
1.790000e-06	7.742104e-06	5.859507e-09	5.499870e+01	3.821863e+02
1.800000e-06	7.701518e-06	5.711158e-09	5.471039e+01	3.813282e+02
1.810000e-06	7.658609e-06	5.827363e-09	5.440557e+01	3.803716e+02
1.820000e-06	7.612997e-06	5.724989e-09	5.408155e+01	3.793215e+02
1.830000e-06	7.564776e-06	5.727362e-09	5.373899e+01	3.781871e+02
1.840000e-06	7.513602e-06	5.786263e-09	5.337546e+01	3.769803e+02
1.850000e-06	7.459403e-06	5.654515e-09	5.299044e+01	3.757142e+02
1.860000e-06	7.402398e-06	5.746705e-09	5.258549e+01	3.744010e+02
1.870000e-06	7.342721e-06	5.618999e-09	5.216155e+01	3.730507e+02
1.880000e-06	7.280419e-06	5.641780e-09	5.171896e+01	3.716695e+02
1.890000e-06	7.215265e-06	5.663763e-09	5.125613e+01	3.702590e+02
1.900000e-06	7.147380e-06	5.566495e-09	5.077388e+01	3.688170e+02
1.910000e-06	7.076678e-06	5.613971e-09	5.027162e+01	3.673372e+02
1.920000e-06	7.003193e-06	5.534008e-09	4.974960e+01	3.658107e+02
1.930000e-06	6.927017e-06	5.553103e-09	4.920846e+01	3.642276e+02
1.940000e-06	6.848036e-06	5.468493e-09	4.864739e+01	3.625778e+02
1.950000e-06	6.766564e-06	5.457735e-09	4.806862e+01	3.608528e+02
1.960000e-06	6.682636e-06	5.491907e-09	4.747241e+01	3.590466e+02
1.970000e-06	6.596169e-06	5.403808e-09	4.685816e+01	3.571557e+02
1.980000e-06	6.507279e-06	5.414836e-09	4.622670e+01	3.551797e+02
1.990000e-06	6.416128e-06	5.363252e-09	4.557918e+01	3.531200e+02
2.000000e-06	6.322731e-06	5.352907e-09	4.491570e+01	3.509797e+02
2.010000e-06	6.227007e-06	5.271869e-09	4.423569e+01	3.487622e+02
2.020000e-06	6.129065e-06	5.257523e-09	4.353993e+01	3.464699e+02
2.030000e-06	6.028978e-06	5.246701e-09	4.282893e+01	3.441042e+02
2.040000e-06	5.926741e-06	5.202888e-09	4.210265e+01	3.416641e+02
2.050000e-06	5.822341e-06	5.161371e-09	4.136101e+01	3.391470e+02
2.060000e-06	5.715937e-06	5.107032e-09	4.060513e+01	3.365484e+02
2.070000e-06	5.607597e-06	5.087413e-09	3.983550e+01	3.338629e+02
2.080000e-06	5.497278e-06	5.017936e-09	3.905181e+01	3.310849e+02
2.090000e-06	5.384947e-06	4.990895e-09	3.825383e+01	3.282094e+02
2.100000e-06	5.270544e-06	4.949522e-09	3.744113e+01	3.252329e+02
2.110000e-06	5.154131e-06	4.910625e-09	3.661414e+01	3.221534e+02
2.120000e-06	5.035704e-06	4.844500e-09	3.577286e+01	3.189709e+02
2.130000e-06	4.915344e-06	4.800138e-09	3.491784e+01	3.156865e+02
2.140000e-06	4.793211e-06	4.755417e-09	3.405023e+01	3.123020e+02
2.150000e-06	4.669350e-06	4.701917e-09	3.317034e+01	3.088190e+02
2.160000e-06	4.543732e-06	4.650988e-09	3.227797e+01	3.052380e+02
2.170000e-06	4.416479e-06	4.597730e-09	3.137398e+01	3.015573e+02
2.180000e-06	4.287635e-06	4.546889e-09	3.045870e+01	2.977730e+02
2.190000e-06	4.157219e-06	4.480224e-09	2.953224e+01	2.938788e+02
2.200000e-06	4.025359e-06	4.419287e-09	2.859553e+01	2.898662e+02
2.210000e-06	3.892001e-06	4.350246e-09	2.764817e+01	2.857254e+02
2.220000e-06	3.757155e-06	4.289249e-09	2.669025e+01	2.814462e+02
2.230000e-06	3.620870e-06	4.224473e-09	2.572210e+01	2.770195e+02
2.240000e-06	3.483204e-06	4.163365e-09	2.474414e+01	2.724379e+02
2.250000e-06	3.344199e-06	4.093952e-09	2.375667e+01	2.676966e+02
2.260000e-06	3.203895e-06	4.018808e-09	2.275998e+01	2.627937e+02
2.270000e-06	3.062279e-06	3.935152e-09	2.175395e+01	2.577297e+02
2.280000e-06	2.919459e-06	3.850884e-09	2.073938e+01	2.525071e+02
2.290000e-06	2.775510e-06	3.771044e-09	1.971679e+01	2.471285e+02
2.300000e-06	2.630561e-06	3.690907e-09	1.868710e+01	2.415962e+02
2.310000e-06	2.484827e-06	3.605889e-09	1.765183e+01	2.359096e+02
2.320000e-06	2.338321e-06	3.513652e-09	1.661107e+01	2.300651e+02
2.330000e-06	2.190970e-06	3.421758e-09	1.556431e+01	2.240546e+02
2.340000e-06	2.042837e-06	3.331508e-09	1.451200e+01	2.178659e+02
2.350000e-06	1.894040e-06	3.239000e-09	1.345496e+01	2.114828e+02
2.360000e-06	1.744548e-06	3.142195e-09	1.239300e+01	2.048870e+02
2.370000e-06	1.594466e-06	3.038677e-09	1.132684e+01	1.980590e+02
2.380000e-06	1.443907e-06	2.929852e-09	1.025729e+01	1.909804e+02
2.390000e-06	1.292953e-06	2.815533e-09	9.184937e+00	1.836352e+02
2.400000e-06	1.141618e-06	2.694917e-09	8.109877e+00	1.760114e+02
2.410000e-06	9.898580e-07	2.573621e-09	7.031798e+00	1.681011e+02
2.420000e-06	8.376652e-07	2.449574e-09	5.950644e+00	1.599008e+02
2.430000e-06	6.851658e-07	2.322745e-09	4.867312e+00	1.514097e+02
2.440000e-06	5.324121e-07	2.195545e-09	3.782173e+00	1.426280e+02
2.450000e-06	3.793976e-07	2.066478e-09	2.695182e+00	1.335546e+02
2.460000e-06	2.262269e-07	1.927502e-09	1.607080e+00	1.241848e+02
2.470000e-06	7.298134e-08	1.776505e-09	5.184481e-01	1.145076e+02
2.480000e-06	-8.031755e-08	1.618628e-09	-5.705634e-01	1.045052e+02
2.490000e-06	-2.336357e-07	1.458494e-09	-1.659712e+00	9.415201e+01
2.500000e-06	-3.869087e-07	1.296616e-09	-2.748540e+00	8.341608e+01
2.510000e-06	-5.400556e-07	1.128708e-09	-3.836471e+00	7.226169e+01
2.520000e-06	-6.930468e-07	9.522838e-10	-4.923297e+00	6.065307e+01
2.530000e-06	-8.458487e-07	7.674605e-10	-6.008778e+00	4.855916e+01
2.540000e-06	-9.983139e-07	5.752520e-10	-7.091867e+00	3.595881e+01
2.550000e-06	-1.150345e-06	3.775916e-10	-8.171869e+00	2.284587e+01
2.560000e-06	-1.301874e-06	1.723029e-10	-9.248309e+00	9.233510e+00
2.570000e-06	-1.452921e-06	-4.274583e-11	-1.032133e+01	-4.842850e+00
2.580000e-06	-1.603450e-06	-2.662058e-10	-1.139066e+01	-1.932428e+01
2.590000e-06	-1.753397e-06	-4.952817e-10	-1.245586e+01	-3.412918e+01
2.600000e-06	-1.902700e-06	-7.263399e-10	-1.351648e+01	-4.915618e+01
2.610000e-06	-2.051231e-06	-9.585669e-10	-1.457163e+01	-6.428885e+01
2.620000e-06	-2.198966e-06	-1.190801e-09	-1.562112e+01	-7.940186e+01
2.630000e-06	-2.345849e-06	-1.420767e-09	-1.666454e+01	-9.436798e+01
2.640000e-06	-2.491834e-06	-1.647146e-09	-1.770160e+01	-1.090652e+02
2.650000e-06	-2.636980e-06	-1.867162e-09	-1.873270e+01	-1.233834e+02
2.660000e-06	-2.781154e-06	-2.078955e-09	-1.975688e+01	-1.372295e+02
2.670000e-06	-2.924226e-06	-2.282657e-09	-2.077325e+01	-1.505316e+02
2.680000e-06	-3.066171e-06	-2.477227e-09	-2.178160e+01	-1.632405e+02
2.690000e-06	-3.206852e-06	-2.661939e-09	-2.278098e+01	-1.753297e+02
2.700000e-06	-3.346222e-06	-2.835657e-09	-2.377104e+01	-1.867932e+02
2.710000e-06	-3.484329e-06	-2.997649e-09	-2.475213e+01	-1.976425e+02
2.720000e-06	-3.621159e-06	-3.151848e-09	-2.572415e+01	-2.079020e+02
2.730000e-06	-3.756621e-06	-3.300979e-09	-2.668645e+01	-2.176043e+02
2.740000e-06	-3.890695e-06	-3.446217e-09	-2.763890e+01	-2.267862e+02
2.750000e-06	-4.023350e-06	-3.583327e-09	-2.858126e+01	-2.354845e+02
2.760000e-06	-4.154523e-06	-3.708755e-09	-2.951309e+01	-2.437333e+02
2.770000e-06	-4.284315e-06	-3.826349e-09	-3.043511e+01	-2.515628e+02
2.780000e-06	-4.412717e-06	-3.939709e-09	-3.134725e+01	-2.589987e+02
2.790000e-06	-4.539645e-06	-4.047298e-09	-3.224893e+01	-2.660627e+02
2.800000e-06	-4.665014e-06	-4.147056e-09	-3.313954e+01	-2.727739e+02
2.810000e-06	-4.788701e-06	-4.240524e-09	-3.401819e+01	-2.791500e+02
2.820000e-06	-4.910710e-06	-4.330987e-09	-3.488492e+01	-2.852094e+02
2.830000e-06	-5.030892e-06	-4.420363e-09	-3.573868e+01	-2.909713e+02
2.840000e-06	-5.149128e-06	-4.506937e-09	-3.657861e+01	-2.964567e+02
2.850000e-06	-5.265342e-06	-4.587756e-09	-3.740418e+01	-3.016880e+02
2.860000e-06	-5.379344e-06	-4.662236e-09	-3.821403e+01	-3.066880e+02
2.870000e-06	-5.491143e-06	-4.734166e-09	-3.900823e+01	-3.114782e+02
2.880000e-06	-5.600878e-06	-4.807025e-09	-3.978777e+01	-3.160777e+02
2.890000e-06	-5.708659e-06	-4.880521e-09	-4.055343e+01	-3.205015e+02
2.900000e-06	-5.814556e-06	-4.950915e-09	-4.130571e+01	-3.247592e+02
2.910000e-06	-5.918417e-06	-5.014925e-09	-4.204352e+01	-3.288552e+02
2.920000e-06	-6.019971e-06	-5.074814e-09	-4.276494e+01	-3.327881e+02
2.930000e-06	-6.119266e-06	-5.133117e-09	-4.347032e+01	-3.365525e+02
2.940000e-06	-6.216495e-06	-5.188851e-09	-4.416102e+01	-3.401404e+02
