# Temperatura_=_42.24
# Concentracion g/m^3_=_5000.0
# C_Vs_to_Am_M_A/Vsm_=_65563218390.804596
# pendiente_HvsI_1/m_=_3716.3
# ordenada_HvsI_A/m_=_1297.0
# frecuencia_Hz_=_302569.39938757475

Tiempo_(s)	Campo_(V.s)	Magnetizacion_(V.s)	Campo_(kA/m)	Magnetizacion_(A/m)
0.000000e+00	-7.935020e-06	-5.691655e-09	-5.685587e+01	-3.727093e+02
1.000000e-08	-7.931598e-06	-5.688837e-09	-5.683136e+01	-3.724599e+02
2.000000e-08	-7.925591e-06	-5.680600e-09	-5.678831e+01	-3.721295e+02
3.000000e-08	-7.916997e-06	-5.674861e-09	-5.672674e+01	-3.717389e+02
4.000000e-08	-7.905589e-06	-5.669269e-09	-5.664500e+01	-3.713116e+02
5.000000e-08	-7.891193e-06	-5.661855e-09	-5.654184e+01	-3.708709e+02
6.000000e-08	-7.873921e-06	-5.651444e-09	-5.641809e+01	-3.704364e+02
7.000000e-08	-7.854299e-06	-5.633944e-09	-5.627749e+01	-3.700220e+02
8.000000e-08	-7.832359e-06	-5.651437e-09	-5.612029e+01	-3.696333e+02
9.000000e-08	-7.807399e-06	-5.703532e-09	-5.594144e+01	-3.692668e+02
1.000000e-07	-7.779184e-06	-5.688083e-09	-5.573928e+01	-3.689104e+02
1.100000e-07	-7.748091e-06	-5.652730e-09	-5.551650e+01	-3.685440e+02
1.200000e-07	-7.714224e-06	-5.623666e-09	-5.527383e+01	-3.681424e+02
1.300000e-07	-7.677732e-06	-5.566201e-09	-5.501236e+01	-3.676778e+02
1.400000e-07	-7.639056e-06	-5.483557e-09	-5.473523e+01	-3.671231e+02
1.500000e-07	-7.598293e-06	-5.505218e-09	-5.444316e+01	-3.664548e+02
1.600000e-07	-7.555043e-06	-5.650276e-09	-5.413327e+01	-3.656556e+02
1.700000e-07	-7.509049e-06	-5.583479e-09	-5.380371e+01	-3.647159e+02
1.800000e-07	-7.460452e-06	-5.575713e-09	-5.345550e+01	-3.636347e+02
1.900000e-07	-7.408815e-06	-5.550201e-09	-5.308552e+01	-3.624189e+02
2.000000e-07	-7.354122e-06	-5.437736e-09	-5.269364e+01	-3.610823e+02
2.100000e-07	-7.296732e-06	-5.456005e-09	-5.228242e+01	-3.596432e+02
2.200000e-07	-7.236699e-06	-5.448914e-09	-5.185227e+01	-3.581220e+02
2.300000e-07	-7.174155e-06	-5.468505e-09	-5.140413e+01	-3.565387e+02
2.400000e-07	-7.108893e-06	-5.402179e-09	-5.093652e+01	-3.549105e+02
2.500000e-07	-7.040848e-06	-5.353318e-09	-5.044897e+01	-3.532498e+02
2.600000e-07	-6.970203e-06	-5.378834e-09	-4.994278e+01	-3.515635e+02
2.700000e-07	-6.896798e-06	-5.378519e-09	-4.941682e+01	-3.498524e+02
2.800000e-07	-6.820593e-06	-5.338048e-09	-4.887080e+01	-3.481118e+02
2.900000e-07	-6.741586e-06	-5.291402e-09	-4.830470e+01	-3.463326e+02
3.000000e-07	-6.659906e-06	-5.288829e-09	-4.771945e+01	-3.445031e+02
3.100000e-07	-6.575975e-06	-5.245300e-09	-4.711807e+01	-3.426104e+02
3.200000e-07	-6.489869e-06	-5.202409e-09	-4.650110e+01	-3.406424e+02
3.300000e-07	-6.401520e-06	-5.195635e-09	-4.586807e+01	-3.385888e+02
3.400000e-07	-6.310765e-06	-5.136090e-09	-4.521779e+01	-3.364427e+02
3.500000e-07	-6.217666e-06	-5.075473e-09	-4.455071e+01	-3.342001e+02
3.600000e-07	-6.122370e-06	-5.049282e-09	-4.386790e+01	-3.318608e+02
3.700000e-07	-6.024791e-06	-5.042102e-09	-4.316873e+01	-3.294270e+02
3.800000e-07	-5.925003e-06	-5.016189e-09	-4.245373e+01	-3.269030e+02
3.900000e-07	-5.823105e-06	-4.975514e-09	-4.172361e+01	-3.242940e+02
4.000000e-07	-5.719184e-06	-4.919674e-09	-4.097900e+01	-3.216049e+02
4.100000e-07	-5.613229e-06	-4.848598e-09	-4.021982e+01	-3.188400e+02
4.200000e-07	-5.505286e-06	-4.814039e-09	-3.944638e+01	-3.160017e+02
4.300000e-07	-5.395407e-06	-4.797124e-09	-3.865908e+01	-3.130907e+02
4.400000e-07	-5.283596e-06	-4.756841e-09	-3.785793e+01	-3.101058e+02
4.500000e-07	-5.169783e-06	-4.690357e-09	-3.704244e+01	-3.070441e+02
4.600000e-07	-5.053844e-06	-4.631625e-09	-3.621172e+01	-3.039011e+02
4.700000e-07	-4.935967e-06	-4.578421e-09	-3.536711e+01	-3.006716e+02
4.800000e-07	-4.816349e-06	-4.523335e-09	-3.451002e+01	-2.973498e+02
4.900000e-07	-4.695026e-06	-4.484204e-09	-3.364072e+01	-2.939300e+02
5.000000e-07	-4.571898e-06	-4.442566e-09	-3.275849e+01	-2.904062e+02
5.100000e-07	-4.447088e-06	-4.375318e-09	-3.186420e+01	-2.867733e+02
5.200000e-07	-4.320711e-06	-4.308160e-09	-3.095868e+01	-2.830264e+02
5.300000e-07	-4.192828e-06	-4.264330e-09	-3.004238e+01	-2.791612e+02
5.400000e-07	-4.063498e-06	-4.208071e-09	-2.911571e+01	-2.751741e+02
5.500000e-07	-3.932487e-06	-4.125533e-09	-2.817699e+01	-2.710622e+02
5.600000e-07	-3.799949e-06	-4.057919e-09	-2.722733e+01	-2.668234e+02
5.700000e-07	-3.666004e-06	-4.000887e-09	-2.626759e+01	-2.624564e+02
5.800000e-07	-3.530665e-06	-3.924153e-09	-2.529786e+01	-2.579605e+02
5.900000e-07	-3.394124e-06	-3.840852e-09	-2.431952e+01	-2.533360e+02
6.000000e-07	-3.256275e-06	-3.777166e-09	-2.333181e+01	-2.485833e+02
6.100000e-07	-3.116914e-06	-3.709500e-09	-2.233326e+01	-2.437031e+02
6.200000e-07	-2.976122e-06	-3.623346e-09	-2.132446e+01	-2.386951e+02
6.300000e-07	-2.834187e-06	-3.544799e-09	-2.030747e+01	-2.335582e+02
6.400000e-07	-2.691131e-06	-3.479389e-09	-1.928245e+01	-2.282892e+02
6.500000e-07	-2.546920e-06	-3.402482e-09	-1.824915e+01	-2.228824e+02
6.600000e-07	-2.401774e-06	-3.305720e-09	-1.720915e+01	-2.173294e+02
6.700000e-07	-2.255861e-06	-3.210512e-09	-1.616366e+01	-2.116190e+02
6.800000e-07	-2.109190e-06	-3.117519e-09	-1.511273e+01	-2.057373e+02
6.900000e-07	-1.961828e-06	-3.019672e-09	-1.405686e+01	-1.996688e+02
7.000000e-07	-1.813889e-06	-2.921885e-09	-1.299684e+01	-1.933969e+02
7.100000e-07	-1.665467e-06	-2.828382e-09	-1.193338e+01	-1.869056e+02
7.200000e-07	-1.516600e-06	-2.730018e-09	-1.086672e+01	-1.801804e+02
7.300000e-07	-1.367220e-06	-2.621675e-09	-9.796385e+00	-1.732091e+02
7.400000e-07	-1.217411e-06	-2.508873e-09	-8.722975e+00	-1.659829e+02
7.500000e-07	-1.067180e-06	-2.394501e-09	-7.646541e+00	-1.584961e+02
7.600000e-07	-9.165440e-07	-2.281334e-09	-6.567206e+00	-1.507455e+02
7.700000e-07	-7.656141e-07	-2.161061e-09	-5.485766e+00	-1.427290e+02
7.800000e-07	-6.144467e-07	-2.033580e-09	-4.402623e+00	-1.344441e+02
7.900000e-07	-4.631106e-07	-1.901771e-09	-3.318272e+00	-1.258851e+02
8.000000e-07	-3.115804e-07	-1.765862e-09	-2.232531e+00	-1.170418e+02
8.100000e-07	-1.599004e-07	-1.623493e-09	-1.145716e+00	-1.078971e+02
8.200000e-07	-8.135230e-09	-1.473971e-09	-5.829041e-02	-9.842617e+01
8.300000e-07	1.436211e-07	-1.320233e-09	1.029072e+00	-8.859683e+01
8.400000e-07	2.953403e-07	-1.160121e-09	2.116168e+00	-7.837066e+01
8.500000e-07	4.470216e-07	-9.948801e-10	3.202992e+00	-6.770591e+01
8.600000e-07	5.986011e-07	-8.250919e-10	4.289086e+00	-5.656150e+01
8.700000e-07	7.500307e-07	-6.527209e-10	5.374107e+00	-4.490199e+01
8.800000e-07	9.012053e-07	-4.716505e-10	6.457301e+00	-3.270303e+01
8.900000e-07	1.052118e-06	-2.797592e-10	7.538617e+00	-1.995668e+01
9.000000e-07	1.202740e-06	-8.080012e-11	8.617850e+00	-6.676067e+00
9.100000e-07	1.352929e-06	1.236033e-10	9.693984e+00	7.101343e+00
9.200000e-07	1.502600e-06	3.371141e-10	1.076640e+01	2.131228e+01
9.300000e-07	1.651709e-06	5.615872e-10	1.183480e+01	3.586835e+01
9.400000e-07	1.800256e-06	7.897694e-10	1.289917e+01	5.065898e+01
9.500000e-07	1.948207e-06	1.019136e-09	1.395926e+01	6.555641e+01
9.600000e-07	2.095503e-06	1.248917e-09	1.501466e+01	8.042248e+01
9.700000e-07	2.242048e-06	1.473881e-09	1.606468e+01	9.511640e+01
9.800000e-07	2.387629e-06	1.687692e-09	1.710780e+01	1.095030e+02
9.900000e-07	2.532282e-06	1.892327e-09	1.814426e+01	1.234604e+02
1.000000e-06	2.676103e-06	2.091789e-09	1.917477e+01	1.368868e+02
1.010000e-06	2.818920e-06	2.286284e-09	2.019808e+01	1.497051e+02
1.020000e-06	2.960569e-06	2.470150e-09	2.121302e+01	1.618656e+02
1.030000e-06	3.101023e-06	2.641172e-09	2.221940e+01	1.733461e+02
1.040000e-06	3.240253e-06	2.804719e-09	2.321701e+01	1.841500e+02
1.050000e-06	3.378084e-06	2.960007e-09	2.420459e+01	1.943019e+02
1.060000e-06	3.514564e-06	3.106493e-09	2.518250e+01	2.038428e+02
1.070000e-06	3.649779e-06	3.243059e-09	2.615134e+01	2.128233e+02
1.080000e-06	3.783685e-06	3.373589e-09	2.711080e+01	2.212979e+02
1.090000e-06	3.916297e-06	3.497949e-09	2.806099e+01	2.293194e+02
1.100000e-06	4.047511e-06	3.616171e-09	2.900116e+01	2.369351e+02
1.110000e-06	4.177219e-06	3.731710e-09	2.993054e+01	2.441835e+02
1.120000e-06	4.305442e-06	3.840217e-09	3.084928e+01	2.510938e+02
1.130000e-06	4.432197e-06	3.939730e-09	3.175751e+01	2.576865e+02
1.140000e-06	4.557467e-06	4.030094e-09	3.265509e+01	2.639749e+02
1.150000e-06	4.681189e-06	4.118646e-09	3.354158e+01	2.699680e+02
1.160000e-06	4.803186e-06	4.205808e-09	3.441571e+01	2.756735e+02
1.170000e-06	4.923421e-06	4.286730e-09	3.527722e+01	2.810999e+02
1.180000e-06	5.041939e-06	4.361851e-09	3.612642e+01	2.862589e+02
1.190000e-06	5.158630e-06	4.435011e-09	3.696253e+01	2.911663e+02
1.200000e-06	5.273266e-06	4.509807e-09	3.778392e+01	2.958415e+02
1.210000e-06	5.385814e-06	4.584002e-09	3.859034e+01	3.003066e+02
1.220000e-06	5.496389e-06	4.653104e-09	3.938263e+01	3.045846e+02
1.230000e-06	5.605098e-06	4.714940e-09	4.016155e+01	3.086970e+02
1.240000e-06	5.711862e-06	4.771601e-09	4.092654e+01	3.126613e+02
1.250000e-06	5.816479e-06	4.826012e-09	4.167614e+01	3.164896e+02
1.260000e-06	5.918973e-06	4.880602e-09	4.241053e+01	3.201873e+02
1.270000e-06	6.019298e-06	4.933245e-09	4.312937e+01	3.237530e+02
1.280000e-06	6.117271e-06	4.982215e-09	4.383137e+01	3.271796e+02
1.290000e-06	6.212902e-06	5.029052e-09	4.451658e+01	3.304559e+02
1.300000e-06	6.306353e-06	5.076754e-09	4.518618e+01	3.335692e+02
1.310000e-06	6.397632e-06	5.124190e-09	4.584021e+01	3.365078e+02
1.320000e-06	6.486582e-06	5.166788e-09	4.647755e+01	3.392636e+02
1.330000e-06	6.573193e-06	5.203931e-09	4.709814e+01	3.418340e+02
1.340000e-06	6.657592e-06	5.237411e-09	4.770287e+01	3.442229e+02
1.350000e-06	6.739676e-06	5.271086e-09	4.829101e+01	3.464412e+02
1.360000e-06	6.819262e-06	5.303809e-09	4.886126e+01	3.485053e+02
1.370000e-06	6.896301e-06	5.334441e-09	4.941326e+01	3.504356e+02
1.380000e-06	6.970678e-06	5.363561e-09	4.994618e+01	3.522543e+02
1.390000e-06	7.042423e-06	5.391385e-09	5.046025e+01	3.539823e+02
1.400000e-06	7.111736e-06	5.417635e-09	5.095689e+01	3.556372e+02
1.410000e-06	7.178501e-06	5.441096e-09	5.143527e+01	3.572311e+02
1.420000e-06	7.242591e-06	5.462715e-09	5.189449e+01	3.587698e+02
1.430000e-06	7.304226e-06	5.483108e-09	5.233612e+01	3.602525e+02
1.440000e-06	7.363417e-06	5.503237e-09	5.276023e+01	3.616728e+02
1.450000e-06	7.419979e-06	5.522445e-09	5.316551e+01	3.630206e+02
1.460000e-06	7.473855e-06	5.540667e-09	5.355154e+01	3.642841e+02
1.470000e-06	7.524686e-06	5.556986e-09	5.391576e+01	3.654524e+02
1.480000e-06	7.572462e-06	5.572287e-09	5.425808e+01	3.665175e+02
1.490000e-06	7.617613e-06	5.586570e-09	5.458159e+01	3.674765e+02
1.500000e-06	7.660110e-06	5.600266e-09	5.488609e+01	3.683320e+02
1.510000e-06	7.699782e-06	5.614717e-09	5.517035e+01	3.690918e+02
1.520000e-06	7.736732e-06	5.627938e-09	5.543510e+01	3.697685e+02
1.530000e-06	7.770999e-06	5.639427e-09	5.568063e+01	3.703772e+02
1.540000e-06	7.802466e-06	5.646983e-09	5.590610e+01	3.709331e+02
1.550000e-06	7.831286e-06	5.653089e-09	5.611260e+01	3.714495e+02
1.560000e-06	7.857345e-06	5.660022e-09	5.629932e+01	3.719353e+02
1.570000e-06	7.880408e-06	5.668127e-09	5.646457e+01	3.723938e+02
1.580000e-06	7.900776e-06	5.676515e-09	5.661051e+01	3.728219e+02
1.590000e-06	7.918391e-06	5.682152e-09	5.673672e+01	3.732106e+02
1.600000e-06	7.932964e-06	5.688173e-09	5.684114e+01	3.735462e+02
1.610000e-06	7.944416e-06	5.692059e-09	5.692320e+01	3.738129e+02
1.620000e-06	7.952755e-06	5.693000e-09	5.698295e+01	3.739948e+02
1.630000e-06	7.958249e-06	5.693316e-09	5.702231e+01	3.740789e+02
1.640000e-06	7.960927e-06	5.693801e-09	5.704150e+01	3.740575e+02
1.650000e-06	7.960788e-06	5.696117e-09	5.704050e+01	3.739300e+02
1.660000e-06	7.958067e-06	5.688647e-09	5.702101e+01	3.737029e+02
1.670000e-06	7.952709e-06	5.684701e-09	5.698262e+01	3.733905e+02
1.680000e-06	7.944654e-06	5.681448e-09	5.692490e+01	3.730122e+02
1.690000e-06	7.933975e-06	5.675538e-09	5.684839e+01	3.725913e+02
1.700000e-06	7.920458e-06	5.672803e-09	5.675153e+01	3.721514e+02
1.710000e-06	7.904216e-06	5.675500e-09	5.663516e+01	3.717132e+02
1.720000e-06	7.885655e-06	5.684905e-09	5.650216e+01	3.712924e+02
1.730000e-06	7.864793e-06	5.610063e-09	5.635268e+01	3.708967e+02
1.740000e-06	7.840981e-06	5.570249e-09	5.618207e+01	3.705249e+02
1.750000e-06	7.813568e-06	5.601987e-09	5.598565e+01	3.701670e+02
1.760000e-06	7.782641e-06	5.595836e-09	5.576405e+01	3.698048e+02
1.770000e-06	7.748919e-06	5.594201e-09	5.552243e+01	3.694140e+02
1.780000e-06	7.712955e-06	5.684679e-09	5.526474e+01	3.689673e+02
1.790000e-06	7.674684e-06	5.711558e-09	5.499052e+01	3.684369e+02
1.800000e-06	7.634394e-06	5.556782e-09	5.470184e+01	3.677984e+02
1.810000e-06	7.591849e-06	5.611635e-09	5.439699e+01	3.670326e+02
1.820000e-06	7.546650e-06	5.539292e-09	5.407313e+01	3.661279e+02
1.830000e-06	7.498857e-06	5.532436e-09	5.373068e+01	3.650811e+02
1.840000e-06	7.448048e-06	5.641152e-09	5.336663e+01	3.638974e+02
1.850000e-06	7.394226e-06	5.538641e-09	5.298099e+01	3.625889e+02
1.860000e-06	7.337627e-06	5.586770e-09	5.257545e+01	3.611730e+02
1.870000e-06	7.278428e-06	5.433783e-09	5.215127e+01	3.596699e+02
1.880000e-06	7.216665e-06	5.383014e-09	5.170873e+01	3.580998e+02
1.890000e-06	7.152091e-06	5.450032e-09	5.124604e+01	3.564809e+02
1.900000e-06	7.084824e-06	5.377660e-09	5.076406e+01	3.548269e+02
1.910000e-06	7.014700e-06	5.423158e-09	5.026161e+01	3.531462e+02
1.920000e-06	6.941735e-06	5.334138e-09	4.973880e+01	3.514409e+02
1.930000e-06	6.866190e-06	5.301225e-09	4.919751e+01	3.497078e+02
1.940000e-06	6.787863e-06	5.268084e-09	4.863628e+01	3.479388e+02
1.950000e-06	6.706951e-06	5.258692e-09	4.805653e+01	3.461225e+02
1.960000e-06	6.623740e-06	5.292956e-09	4.746031e+01	3.442463e+02
1.970000e-06	6.538074e-06	5.184868e-09	4.684650e+01	3.422976e+02
1.980000e-06	6.449850e-06	5.176435e-09	4.621435e+01	3.402657e+02
1.990000e-06	6.359306e-06	5.128085e-09	4.556559e+01	3.381426e+02
2.000000e-06	6.266628e-06	5.117008e-09	4.490154e+01	3.359238e+02
2.010000e-06	6.171664e-06	5.086163e-09	4.422111e+01	3.336080e+02
2.020000e-06	6.074457e-06	5.041510e-09	4.352460e+01	3.311969e+02
2.030000e-06	5.975163e-06	4.985396e-09	4.281314e+01	3.286945e+02
2.040000e-06	5.873745e-06	4.918161e-09	4.208646e+01	3.261056e+02
2.050000e-06	5.770111e-06	4.938463e-09	4.134390e+01	3.234356e+02
2.060000e-06	5.664481e-06	4.918816e-09	4.058705e+01	3.206888e+02
2.070000e-06	5.557053e-06	4.870274e-09	3.981730e+01	3.178681e+02
2.080000e-06	5.447719e-06	4.779987e-09	3.903391e+01	3.149748e+02
2.090000e-06	5.336315e-06	4.722877e-09	3.823567e+01	3.120081e+02
2.100000e-06	5.222888e-06	4.676423e-09	3.742295e+01	3.089654e+02
2.110000e-06	5.107555e-06	4.661720e-09	3.659657e+01	3.058426e+02
2.120000e-06	4.990166e-06	4.650962e-09	3.575545e+01	3.026348e+02
2.130000e-06	4.870803e-06	4.589284e-09	3.490019e+01	2.993361e+02
2.140000e-06	4.749668e-06	4.493510e-09	3.403224e+01	2.959407e+02
2.150000e-06	4.626836e-06	4.421950e-09	3.315213e+01	2.924429e+02
2.160000e-06	4.502417e-06	4.398886e-09	3.226064e+01	2.888372e+02
2.170000e-06	4.376335e-06	4.357419e-09	3.135725e+01	2.851187e+02
2.180000e-06	4.248461e-06	4.299387e-09	3.044100e+01	2.812829e+02
2.190000e-06	4.119042e-06	4.228970e-09	2.951369e+01	2.773260e+02
2.200000e-06	3.988184e-06	4.154474e-09	2.857607e+01	2.732450e+02
2.210000e-06	3.855895e-06	4.081055e-09	2.762819e+01	2.690376e+02
2.220000e-06	3.722187e-06	4.038868e-09	2.667015e+01	2.647021e+02
2.230000e-06	3.586925e-06	3.994011e-09	2.570097e+01	2.602379e+02
2.240000e-06	3.450324e-06	3.912174e-09	2.472220e+01	2.556450e+02
2.250000e-06	3.312488e-06	3.818470e-09	2.373459e+01	2.509238e+02
2.260000e-06	3.173450e-06	3.750746e-09	2.273835e+01	2.460749e+02
2.270000e-06	3.033266e-06	3.692738e-09	2.173391e+01	2.410983e+02
2.280000e-06	2.891773e-06	3.612547e-09	2.072008e+01	2.359933e+02
2.290000e-06	2.748945e-06	3.521690e-09	1.969670e+01	2.307572e+02
2.300000e-06	2.605088e-06	3.429715e-09	1.866593e+01	2.253850e+02
2.310000e-06	2.460414e-06	3.342589e-09	1.762931e+01	2.198689e+02
2.320000e-06	2.314960e-06	3.266415e-09	1.658711e+01	2.141985e+02
2.330000e-06	2.168729e-06	3.200258e-09	1.553934e+01	2.083606e+02
2.340000e-06	2.021728e-06	3.116685e-09	1.448605e+01	2.023397e+02
2.350000e-06	1.874101e-06	3.004679e-09	1.342828e+01	1.961197e+02
2.360000e-06	1.725953e-06	2.891099e-09	1.236677e+01	1.896842e+02
2.370000e-06	1.577336e-06	2.794940e-09	1.130190e+01	1.830181e+02
2.380000e-06	1.428214e-06	2.705074e-09	1.023341e+01	1.761087e+02
2.390000e-06	1.278558e-06	2.600318e-09	9.161100e+00	1.689464e+02
2.400000e-06	1.128439e-06	2.476581e-09	8.085473e+00	1.615246e+02
2.410000e-06	9.778923e-07	2.347100e-09	7.006777e+00	1.538396e+02
2.420000e-06	8.269392e-07	2.224183e-09	5.925171e+00	1.458893e+02
2.430000e-06	6.756524e-07	2.112701e-09	4.841173e+00	1.376712e+02
2.440000e-06	5.241007e-07	1.999599e-09	3.755277e+00	1.291810e+02
2.450000e-06	3.723913e-07	1.870352e-09	2.668252e+00	1.204096e+02
2.460000e-06	2.204949e-07	1.725157e-09	1.579886e+00	1.113416e+02
2.470000e-06	6.848525e-08	1.574490e-09	4.907094e-01	1.019545e+02
2.480000e-06	-8.356644e-08	1.424116e-09	-5.987688e-01	9.221759e+01
2.490000e-06	-2.356171e-07	1.270933e-09	-1.688240e+00	8.209392e+01
2.500000e-06	-3.875300e-07	1.111945e-09	-2.776724e+00	7.154223e+01
2.510000e-06	-5.393270e-07	9.436598e-10	-3.864377e+00	6.052082e+01
2.520000e-06	-6.909851e-07	7.673083e-10	-4.951035e+00	4.899236e+01
2.530000e-06	-8.424483e-07	5.880915e-10	-6.036297e+00	3.692919e+01
2.540000e-06	-9.935994e-07	4.045022e-10	-7.119322e+00	2.431880e+01
2.550000e-06	-1.144321e-06	2.071421e-10	-8.199271e+00	1.116869e+01
2.560000e-06	-1.294592e-06	-6.149248e-12	-9.275987e+00	-2.489985e+00
2.570000e-06	-1.444324e-06	-2.271459e-10	-1.034885e+01	-1.660042e+01
2.580000e-06	-1.593448e-06	-4.499359e-10	-1.141735e+01	-3.108032e+01
2.590000e-06	-1.741978e-06	-6.754361e-10	-1.248159e+01	-4.582427e+01
2.600000e-06	-1.889930e-06	-9.067462e-10	-1.354169e+01	-6.070822e+01
2.610000e-06	-2.037214e-06	-1.140227e-09	-1.459701e+01	-7.559591e+01
2.620000e-06	-2.183760e-06	-1.371423e-09	-1.564704e+01	-9.034644e+01
2.630000e-06	-2.329494e-06	-1.595713e-09	-1.669125e+01	-1.048225e+02
2.640000e-06	-2.474320e-06	-1.808508e-09	-1.772896e+01	-1.188981e+02
2.650000e-06	-2.618263e-06	-2.011065e-09	-1.876033e+01	-1.324661e+02
2.660000e-06	-2.761147e-06	-2.207830e-09	-1.978413e+01	-1.454427e+02
2.670000e-06	-2.902800e-06	-2.399007e-09	-2.079910e+01	-1.577713e+02
2.680000e-06	-3.043291e-06	-2.577491e-09	-2.180574e+01	-1.694230e+02
2.690000e-06	-3.182619e-06	-2.742526e-09	-2.280405e+01	-1.803950e+02
2.700000e-06	-3.320702e-06	-2.897860e-09	-2.379344e+01	-1.907072e+02
2.710000e-06	-3.457537e-06	-3.044334e-09	-2.477388e+01	-2.003969e+02
2.720000e-06	-3.593177e-06	-3.184453e-09	-2.574577e+01	-2.095130e+02
2.730000e-06	-3.727440e-06	-3.319062e-09	-2.670779e+01	-2.181095e+02
2.740000e-06	-3.860258e-06	-3.448538e-09	-2.765945e+01	-2.262402e+02
2.750000e-06	-3.991751e-06	-3.569146e-09	-2.860163e+01	-2.339539e+02
2.760000e-06	-4.121954e-06	-3.679953e-09	-2.953456e+01	-2.412915e+02
2.770000e-06	-4.250782e-06	-3.785139e-09	-3.045763e+01	-2.482847e+02
2.780000e-06	-4.378120e-06	-3.885946e-09	-3.137003e+01	-2.549558e+02
2.790000e-06	-4.503863e-06	-3.981260e-09	-3.227101e+01	-2.613198e+02
2.800000e-06	-4.628030e-06	-4.068758e-09	-3.316068e+01	-2.673866e+02
2.810000e-06	-4.750672e-06	-4.151806e-09	-3.403943e+01	-2.731638e+02
2.820000e-06	-4.871667e-06	-4.234260e-09	-3.490639e+01	-2.786595e+02
2.830000e-06	-4.990736e-06	-4.316820e-09	-3.575954e+01	-2.838847e+02
2.840000e-06	-5.107750e-06	-4.396258e-09	-3.659796e+01	-2.888538e+02
2.850000e-06	-5.222726e-06	-4.469889e-09	-3.742179e+01	-2.935856e+02
2.860000e-06	-5.335503e-06	-4.539432e-09	-3.822986e+01	-2.981016e+02
2.870000e-06	-5.446142e-06	-4.607916e-09	-3.902260e+01	-3.024248e+02
2.880000e-06	-5.554889e-06	-4.676418e-09	-3.980180e+01	-3.065773e+02
2.890000e-06	-5.661817e-06	-4.742012e-09	-4.056796e+01	-3.105778e+02
2.900000e-06	-5.766794e-06	-4.804033e-09	-4.132014e+01	-3.144399e+02
2.910000e-06	-5.869583e-06	-4.862482e-09	-4.205664e+01	-3.181707e+02
2.920000e-06	-5.970119e-06	-4.916477e-09	-4.277699e+01	-3.217704e+02
2.930000e-06	-6.068546e-06	-4.968519e-09	-4.348224e+01	-3.252332e+02
2.940000e-06	-6.164843e-06	-5.019294e-09	-4.417223e+01	-3.285489e+02
