# Temperatura_=_37.64
# Concentracion g/m^3_=_5000.0
# C_Vs_to_Am_M_A/Vsm_=_65563218390.804596
# pendiente_HvsI_1/m_=_3716.3
# ordenada_HvsI_A/m_=_1297.0
# frecuencia_Hz_=_302575.86197932524

Tiempo_(s)	Campo_(V.s)	Magnetizacion_(V.s)	Campo_(kA/m)	Magnetizacion_(A/m)
0.000000e+00	-8.001304e-06	-5.772367e-09	-5.685567e+01	-3.773896e+02
1.000000e-08	-7.998522e-06	-5.769519e-09	-5.683590e+01	-3.772084e+02
2.000000e-08	-7.993051e-06	-5.766188e-09	-5.679702e+01	-3.769542e+02
3.000000e-08	-7.984963e-06	-5.761749e-09	-5.673955e+01	-3.766430e+02
4.000000e-08	-7.974098e-06	-5.757216e-09	-5.666235e+01	-3.762929e+02
5.000000e-08	-7.960269e-06	-5.754021e-09	-5.656408e+01	-3.759216e+02
6.000000e-08	-7.943552e-06	-5.751073e-09	-5.644529e+01	-3.755442e+02
7.000000e-08	-7.924397e-06	-5.749137e-09	-5.630918e+01	-3.751705e+02
8.000000e-08	-7.902912e-06	-5.762705e-09	-5.615651e+01	-3.748043e+02
9.000000e-08	-7.878496e-06	-5.748482e-09	-5.598302e+01	-3.744418e+02
1.000000e-07	-7.850820e-06	-5.752471e-09	-5.578636e+01	-3.740724e+02
1.100000e-07	-7.820185e-06	-5.756476e-09	-5.556867e+01	-3.736799e+02
1.200000e-07	-7.786708e-06	-5.720552e-09	-5.533079e+01	-3.732438e+02
1.300000e-07	-7.750468e-06	-5.663279e-09	-5.507327e+01	-3.727425e+02
1.400000e-07	-7.711949e-06	-5.610766e-09	-5.479957e+01	-3.721552e+02
1.500000e-07	-7.671311e-06	-5.643324e-09	-5.451080e+01	-3.714644e+02
1.600000e-07	-7.628239e-06	-5.662627e-09	-5.420474e+01	-3.706581e+02
1.700000e-07	-7.582461e-06	-5.699437e-09	-5.387945e+01	-3.697307e+02
1.800000e-07	-7.533921e-06	-5.705938e-09	-5.353453e+01	-3.686833e+02
1.900000e-07	-7.482375e-06	-5.595423e-09	-5.316826e+01	-3.675231e+02
2.000000e-07	-7.427866e-06	-5.561764e-09	-5.278093e+01	-3.662626e+02
2.100000e-07	-7.370613e-06	-5.517793e-09	-5.237410e+01	-3.649171e+02
2.200000e-07	-7.310691e-06	-5.513026e-09	-5.194831e+01	-3.635030e+02
2.300000e-07	-7.248223e-06	-5.533915e-09	-5.150442e+01	-3.620356e+02
2.400000e-07	-7.183004e-06	-5.468944e-09	-5.104099e+01	-3.605273e+02
2.500000e-07	-7.115008e-06	-5.466789e-09	-5.055782e+01	-3.589863e+02
2.600000e-07	-7.044391e-06	-5.462376e-09	-5.005603e+01	-3.574162e+02
2.700000e-07	-6.970952e-06	-5.455695e-09	-4.953419e+01	-3.558155e+02
2.800000e-07	-6.894689e-06	-5.423354e-09	-4.899228e+01	-3.541787e+02
2.900000e-07	-6.815632e-06	-5.412891e-09	-4.843052e+01	-3.524974e+02
3.000000e-07	-6.733852e-06	-5.386730e-09	-4.784941e+01	-3.507614e+02
3.100000e-07	-6.649847e-06	-5.324573e-09	-4.725248e+01	-3.489602e+02
3.200000e-07	-6.563644e-06	-5.324541e-09	-4.663994e+01	-3.470847e+02
3.300000e-07	-6.475005e-06	-5.284467e-09	-4.601009e+01	-3.451276e+02
3.400000e-07	-6.383994e-06	-5.221805e-09	-4.536338e+01	-3.430842e+02
3.500000e-07	-6.290641e-06	-5.169427e-09	-4.470004e+01	-3.409526e+02
3.600000e-07	-6.194928e-06	-5.154539e-09	-4.401992e+01	-3.387331e+02
3.700000e-07	-6.096921e-06	-5.140823e-09	-4.332350e+01	-3.364278e+02
3.800000e-07	-5.996773e-06	-5.108393e-09	-4.261187e+01	-3.340397e+02
3.900000e-07	-5.894549e-06	-5.090634e-09	-4.188548e+01	-3.315718e+02
4.000000e-07	-5.790204e-06	-5.038493e-09	-4.114403e+01	-3.290268e+02
4.100000e-07	-5.683777e-06	-4.965888e-09	-4.038778e+01	-3.264057e+02
4.200000e-07	-5.575380e-06	-4.913201e-09	-3.961754e+01	-3.237086e+02
4.300000e-07	-5.464990e-06	-4.912391e-09	-3.883313e+01	-3.209338e+02
4.400000e-07	-5.352568e-06	-4.878483e-09	-3.803428e+01	-3.180786e+02
4.500000e-07	-5.238111e-06	-4.810443e-09	-3.722097e+01	-3.151394e+02
4.600000e-07	-5.121622e-06	-4.758975e-09	-3.639322e+01	-3.121117e+02
4.700000e-07	-5.003301e-06	-4.715626e-09	-3.555245e+01	-3.089914e+02
4.800000e-07	-4.883145e-06	-4.657127e-09	-3.469865e+01	-3.057741e+02
4.900000e-07	-4.761112e-06	-4.604645e-09	-3.383151e+01	-3.024556e+02
5.000000e-07	-4.637344e-06	-4.566859e-09	-3.295204e+01	-2.990319e+02
5.100000e-07	-4.511956e-06	-4.504470e-09	-3.206106e+01	-2.954991e+02
5.200000e-07	-4.384977e-06	-4.442342e-09	-3.115877e+01	-2.918533e+02
5.300000e-07	-4.256321e-06	-4.397074e-09	-3.024457e+01	-2.880903e+02
5.400000e-07	-4.126080e-06	-4.348771e-09	-2.931910e+01	-2.842059e+02
5.500000e-07	-3.994274e-06	-4.271418e-09	-2.838251e+01	-2.801959e+02
5.600000e-07	-3.860944e-06	-4.201426e-09	-2.743510e+01	-2.760561e+02
5.700000e-07	-3.726261e-06	-4.143503e-09	-2.647807e+01	-2.717830e+02
5.800000e-07	-3.590144e-06	-4.070706e-09	-2.551084e+01	-2.673738e+02
5.900000e-07	-3.452599e-06	-3.990741e-09	-2.453348e+01	-2.628264e+02
6.000000e-07	-3.313710e-06	-3.921773e-09	-2.354656e+01	-2.581399e+02
6.100000e-07	-3.173373e-06	-3.853010e-09	-2.254935e+01	-2.533140e+02
6.200000e-07	-3.031580e-06	-3.768191e-09	-2.154180e+01	-2.483485e+02
6.300000e-07	-2.888543e-06	-3.693376e-09	-2.052541e+01	-2.432431e+02
6.400000e-07	-2.744419e-06	-3.629694e-09	-1.950129e+01	-2.379959e+02
6.500000e-07	-2.599284e-06	-3.555524e-09	-1.846999e+01	-2.326033e+02
6.600000e-07	-2.453253e-06	-3.462880e-09	-1.743233e+01	-2.270590e+02
6.700000e-07	-2.306474e-06	-3.370306e-09	-1.638934e+01	-2.213536e+02
6.800000e-07	-2.159012e-06	-3.275795e-09	-1.534151e+01	-2.154748e+02
6.900000e-07	-2.010837e-06	-3.172517e-09	-1.428861e+01	-2.094076e+02
7.000000e-07	-1.862004e-06	-3.072275e-09	-1.323103e+01	-2.031352e+02
7.100000e-07	-1.712654e-06	-2.975607e-09	-1.216978e+01	-1.966406e+02
7.200000e-07	-1.562776e-06	-2.874493e-09	-1.110477e+01	-1.899072e+02
7.300000e-07	-1.412377e-06	-2.764352e-09	-1.003607e+01	-1.829205e+02
7.400000e-07	-1.261507e-06	-2.655078e-09	-8.964018e+00	-1.756690e+02
7.500000e-07	-1.110119e-06	-2.544478e-09	-7.888286e+00	-1.681446e+02
7.600000e-07	-9.582599e-07	-2.430240e-09	-6.809203e+00	-1.603424e+02
7.700000e-07	-8.060181e-07	-2.309569e-09	-5.727403e+00	-1.522597e+02
7.800000e-07	-6.534686e-07	-2.181532e-09	-4.643417e+00	-1.438945e+02
7.900000e-07	-5.007196e-07	-2.044916e-09	-3.558014e+00	-1.352436e+02
8.000000e-07	-3.478322e-07	-1.901296e-09	-2.471626e+00	-1.263001e+02
8.100000e-07	-1.948550e-07	-1.757897e-09	-1.384601e+00	-1.170515e+02
8.200000e-07	-4.175755e-08	-1.610794e-09	-2.967208e-01	-1.074783e+02
8.300000e-07	1.114569e-07	-1.456640e-09	7.919901e-01	-9.755358e+01
8.400000e-07	2.646454e-07	-1.294133e-09	1.880517e+00	-8.724339e+01
8.500000e-07	4.177702e-07	-1.128713e-09	2.968591e+00	-7.650909e+01
8.600000e-07	5.707637e-07	-9.586607e-10	4.055732e+00	-6.531067e+01
8.700000e-07	7.235884e-07	-7.828683e-10	5.141675e+00	-5.361120e+01
8.800000e-07	8.762461e-07	-6.009221e-10	6.226429e+00	-4.138208e+01
8.900000e-07	1.028688e-06	-4.085434e-10	7.309652e+00	-2.860841e+01
9.000000e-07	1.180754e-06	-2.082152e-10	8.390201e+00	-1.529392e+01
9.100000e-07	1.332292e-06	-1.131657e-12	9.467003e+00	-1.464905e+00
9.200000e-07	1.483322e-06	2.131923e-10	1.054019e+01	1.282748e+01
9.300000e-07	1.633750e-06	4.374664e-10	1.160910e+01	2.750686e+01
9.400000e-07	1.783544e-06	6.687957e-10	1.267350e+01	4.247356e+01
9.500000e-07	1.932679e-06	9.029393e-10	1.373323e+01	5.760852e+01
9.600000e-07	2.081102e-06	1.136427e-09	1.478789e+01	7.277919e+01
9.700000e-07	2.228812e-06	1.365371e-09	1.583750e+01	8.784671e+01
9.800000e-07	2.375714e-06	1.587335e-09	1.688135e+01	1.026738e+02
9.900000e-07	2.521751e-06	1.803961e-09	1.791906e+01	1.171325e+02
1.000000e-06	2.666951e-06	2.014098e-09	1.895082e+01	1.311114e+02
1.010000e-06	2.811188e-06	2.217439e-09	1.997574e+01	1.445208e+02
1.020000e-06	2.954268e-06	2.410566e-09	2.099244e+01	1.572966e+02
1.030000e-06	3.096213e-06	2.590172e-09	2.200107e+01	1.694013e+02
1.040000e-06	3.236898e-06	2.760437e-09	2.300075e+01	1.808234e+02
1.050000e-06	3.376217e-06	2.922380e-09	2.399072e+01	1.915743e+02
1.060000e-06	3.514245e-06	3.077858e-09	2.497152e+01	2.016836e+02
1.070000e-06	3.650966e-06	3.223813e-09	2.594304e+01	2.111941e+02
1.080000e-06	3.786236e-06	3.362308e-09	2.690423e+01	2.201556e+02
1.090000e-06	3.920064e-06	3.495090e-09	2.785519e+01	2.286193e+02
1.100000e-06	4.052554e-06	3.620692e-09	2.879664e+01	2.366340e+02
1.110000e-06	4.183623e-06	3.740998e-09	2.972799e+01	2.442421e+02
1.120000e-06	4.313194e-06	3.852504e-09	3.064870e+01	2.514782e+02
1.130000e-06	4.441237e-06	3.953995e-09	3.155854e+01	2.583690e+02
1.140000e-06	4.567735e-06	4.047794e-09	3.245741e+01	2.649341e+02
1.150000e-06	4.692656e-06	4.139266e-09	3.334508e+01	2.711877e+02
1.160000e-06	4.816021e-06	4.229779e-09	3.422168e+01	2.771415e+02
1.170000e-06	4.937784e-06	4.315579e-09	3.508690e+01	2.828067e+02
1.180000e-06	5.057724e-06	4.396152e-09	3.593918e+01	2.881957e+02
1.190000e-06	5.175748e-06	4.473186e-09	3.677783e+01	2.933239e+02
1.200000e-06	5.291834e-06	4.550445e-09	3.760271e+01	2.982090e+02
1.210000e-06	5.405900e-06	4.627800e-09	3.841324e+01	3.028712e+02
1.220000e-06	5.517855e-06	4.699823e-09	3.920877e+01	3.073315e+02
1.230000e-06	5.627802e-06	4.762177e-09	3.999003e+01	3.116096e+02
1.240000e-06	5.735823e-06	4.819049e-09	4.075761e+01	3.157227e+02
1.250000e-06	5.841795e-06	4.874731e-09	4.151063e+01	3.196832e+02
1.260000e-06	5.945530e-06	4.929661e-09	4.224774e+01	3.234982e+02
1.270000e-06	6.047080e-06	4.984289e-09	4.296934e+01	3.271689e+02
1.280000e-06	6.146475e-06	5.035820e-09	4.367562e+01	3.306915e+02
1.290000e-06	6.243498e-06	5.083469e-09	4.436505e+01	3.340582e+02
1.300000e-06	6.338180e-06	5.131046e-09	4.503784e+01	3.372597e+02
1.310000e-06	6.430619e-06	5.178790e-09	4.569470e+01	3.402870e+02
1.320000e-06	6.520833e-06	5.222964e-09	4.633573e+01	3.431338e+02
1.330000e-06	6.608682e-06	5.261269e-09	4.695997e+01	3.457980e+02
1.340000e-06	6.694185e-06	5.295474e-09	4.756754e+01	3.482830e+02
1.350000e-06	6.777447e-06	5.329333e-09	4.815918e+01	3.505978e+02
1.360000e-06	6.858246e-06	5.363359e-09	4.873332e+01	3.527564e+02
1.370000e-06	6.936467e-06	5.397425e-09	4.928915e+01	3.547764e+02
1.380000e-06	7.012091e-06	5.429026e-09	4.982651e+01	3.566769e+02
1.390000e-06	7.085064e-06	5.458262e-09	5.034505e+01	3.584763e+02
1.400000e-06	7.155505e-06	5.485272e-09	5.084558e+01	3.601904e+02
1.410000e-06	7.223459e-06	5.509910e-09	5.132846e+01	3.618306e+02
1.420000e-06	7.288776e-06	5.534158e-09	5.179259e+01	3.634028e+02
1.430000e-06	7.351497e-06	5.556214e-09	5.223827e+01	3.649074e+02
1.440000e-06	7.411786e-06	5.577689e-09	5.266667e+01	3.663401e+02
1.450000e-06	7.469452e-06	5.597231e-09	5.307643e+01	3.676931e+02
1.460000e-06	7.524408e-06	5.613425e-09	5.346694e+01	3.689570e+02
1.470000e-06	7.576509e-06	5.627576e-09	5.383715e+01	3.701233e+02
1.480000e-06	7.625504e-06	5.640738e-09	5.418531e+01	3.711857e+02
1.490000e-06	7.671613e-06	5.655687e-09	5.451295e+01	3.721422e+02
1.500000e-06	7.715026e-06	5.670515e-09	5.482143e+01	3.729955e+02
1.510000e-06	7.755646e-06	5.685256e-09	5.511007e+01	3.737530e+02
1.520000e-06	7.793553e-06	5.698846e-09	5.537943e+01	3.744263e+02
1.530000e-06	7.828743e-06	5.710302e-09	5.562948e+01	3.750291e+02
1.540000e-06	7.861044e-06	5.718504e-09	5.585901e+01	3.755757e+02
1.550000e-06	7.890593e-06	5.722597e-09	5.606897e+01	3.760789e+02
1.560000e-06	7.917422e-06	5.726877e-09	5.625962e+01	3.765478e+02
1.570000e-06	7.941285e-06	5.733339e-09	5.642918e+01	3.769869e+02
1.580000e-06	7.962320e-06	5.741188e-09	5.657866e+01	3.773950e+02
1.590000e-06	7.980626e-06	5.747699e-09	5.670873e+01	3.777660e+02
1.600000e-06	7.996023e-06	5.752715e-09	5.681814e+01	3.780897e+02
1.610000e-06	8.008358e-06	5.758054e-09	5.690579e+01	3.783533e+02
1.620000e-06	8.017494e-06	5.761664e-09	5.697071e+01	3.785442e+02
1.630000e-06	8.023638e-06	5.762393e-09	5.701437e+01	3.786515e+02
1.640000e-06	8.026974e-06	5.761492e-09	5.703807e+01	3.786686e+02
1.650000e-06	8.027456e-06	5.758082e-09	5.704150e+01	3.785941e+02
1.660000e-06	8.025231e-06	5.756820e-09	5.702568e+01	3.784327e+02
1.670000e-06	8.020350e-06	5.752401e-09	5.699101e+01	3.781950e+02
1.680000e-06	8.012750e-06	5.747129e-09	5.693700e+01	3.778961e+02
1.690000e-06	8.002505e-06	5.742072e-09	5.686420e+01	3.775536e+02
1.700000e-06	7.989390e-06	5.737919e-09	5.677101e+01	3.771857e+02
1.710000e-06	7.973495e-06	5.734376e-09	5.665806e+01	3.768083e+02
1.720000e-06	7.955261e-06	5.722526e-09	5.652849e+01	3.764328e+02
1.730000e-06	7.934779e-06	5.691461e-09	5.638295e+01	3.760643e+02
1.740000e-06	7.911485e-06	5.694689e-09	5.621743e+01	3.757013e+02
1.750000e-06	7.884724e-06	5.668489e-09	5.602727e+01	3.753346e+02
1.760000e-06	7.854349e-06	5.658658e-09	5.581143e+01	3.749493e+02
1.770000e-06	7.820919e-06	5.682900e-09	5.557389e+01	3.745258e+02
1.780000e-06	7.785146e-06	5.723904e-09	5.531969e+01	3.740425e+02
1.790000e-06	7.747014e-06	5.702218e-09	5.504873e+01	3.734780e+02
1.800000e-06	7.706784e-06	5.708836e-09	5.476286e+01	3.728141e+02
1.810000e-06	7.664378e-06	5.660338e-09	5.446154e+01	3.720372e+02
1.820000e-06	7.619275e-06	5.535972e-09	5.414105e+01	3.711398e+02
1.830000e-06	7.571524e-06	5.631330e-09	5.380173e+01	3.701216e+02
1.840000e-06	7.520896e-06	5.619079e-09	5.344198e+01	3.689883e+02
1.850000e-06	7.467198e-06	5.668818e-09	5.306041e+01	3.677511e+02
1.860000e-06	7.410697e-06	5.663403e-09	5.265893e+01	3.664250e+02
1.870000e-06	7.351568e-06	5.534705e-09	5.223877e+01	3.650261e+02
1.880000e-06	7.289771e-06	5.554666e-09	5.179966e+01	3.635704e+02
1.890000e-06	7.225161e-06	5.479572e-09	5.134055e+01	3.620710e+02
1.900000e-06	7.157853e-06	5.486498e-09	5.086227e+01	3.605373e+02
1.910000e-06	7.087782e-06	5.488722e-09	5.036436e+01	3.589741e+02
1.920000e-06	7.014874e-06	5.439095e-09	4.984629e+01	3.573810e+02
1.930000e-06	6.939251e-06	5.397612e-09	4.930893e+01	3.557536e+02
1.940000e-06	6.860831e-06	5.349532e-09	4.875169e+01	3.540840e+02
1.950000e-06	6.779834e-06	5.396684e-09	4.817615e+01	3.523622e+02
1.960000e-06	6.696429e-06	5.336715e-09	4.758349e+01	3.505779e+02
1.970000e-06	6.610512e-06	5.299304e-09	4.697298e+01	3.487214e+02
1.980000e-06	6.522074e-06	5.278962e-09	4.634455e+01	3.467849e+02
1.990000e-06	6.431360e-06	5.246102e-09	4.569996e+01	3.447630e+02
2.000000e-06	6.338462e-06	5.228200e-09	4.503984e+01	3.426531e+02
2.010000e-06	6.243198e-06	5.185726e-09	4.436292e+01	3.404551e+02
2.020000e-06	6.145684e-06	5.171797e-09	4.367000e+01	3.381706e+02
2.030000e-06	6.045994e-06	5.091220e-09	4.296163e+01	3.358025e+02
2.040000e-06	5.944144e-06	5.043895e-09	4.223790e+01	3.333540e+02
2.050000e-06	5.840176e-06	5.042078e-09	4.149912e+01	3.308277e+02
2.060000e-06	5.734195e-06	5.047000e-09	4.074604e+01	3.282252e+02
2.070000e-06	5.626319e-06	4.986204e-09	3.997950e+01	3.255469e+02
2.080000e-06	5.516437e-06	4.909179e-09	3.919870e+01	3.227914e+02
2.090000e-06	5.404504e-06	4.859053e-09	3.840332e+01	3.199562e+02
2.100000e-06	5.290572e-06	4.801324e-09	3.759375e+01	3.170380e+02
2.110000e-06	5.174630e-06	4.776440e-09	3.676989e+01	3.140325e+02
2.120000e-06	5.056620e-06	4.765875e-09	3.593133e+01	3.109354e+02
2.130000e-06	4.936666e-06	4.726825e-09	3.507896e+01	3.077424e+02
2.140000e-06	4.814915e-06	4.634424e-09	3.421382e+01	3.044492e+02
2.150000e-06	4.691460e-06	4.570605e-09	3.333658e+01	3.010518e+02
2.160000e-06	4.566319e-06	4.538191e-09	3.244735e+01	2.975463e+02
2.170000e-06	4.439480e-06	4.497805e-09	3.154606e+01	2.939287e+02
2.180000e-06	4.310989e-06	4.428870e-09	3.063302e+01	2.901951e+02
2.190000e-06	4.180926e-06	4.364843e-09	2.970883e+01	2.863411e+02
2.200000e-06	4.049394e-06	4.297774e-09	2.877418e+01	2.823625e+02
2.210000e-06	3.916380e-06	4.228938e-09	2.782901e+01	2.782551e+02
2.220000e-06	3.781882e-06	4.182786e-09	2.687330e+01	2.740153e+02
2.230000e-06	3.645834e-06	4.139150e-09	2.590657e+01	2.696400e+02
2.240000e-06	3.508400e-06	4.065102e-09	2.492999e+01	2.651269e+02
2.250000e-06	3.369711e-06	3.972836e-09	2.394450e+01	2.604749e+02
2.260000e-06	3.229715e-06	3.906462e-09	2.294971e+01	2.556835e+02
2.270000e-06	3.088372e-06	3.846188e-09	2.194536e+01	2.507526e+02
2.280000e-06	2.945785e-06	3.766762e-09	2.093216e+01	2.456818e+02
2.290000e-06	2.802080e-06	3.672804e-09	1.991102e+01	2.404700e+02
2.300000e-06	2.657351e-06	3.582256e-09	1.888260e+01	2.351139e+02
2.310000e-06	2.511711e-06	3.493644e-09	1.784771e+01	2.296079e+02
2.320000e-06	2.365314e-06	3.417526e-09	1.680745e+01	2.239434e+02
2.330000e-06	2.218278e-06	3.351718e-09	1.576264e+01	2.181089e+02
2.340000e-06	2.070450e-06	3.269904e-09	1.471221e+01	2.120899e+02
2.350000e-06	1.921774e-06	3.161126e-09	1.365574e+01	2.058701e+02
2.360000e-06	1.772383e-06	3.051318e-09	1.259420e+01	1.994323e+02
2.370000e-06	1.622461e-06	2.956208e-09	1.152888e+01	1.927597e+02
2.380000e-06	1.472104e-06	2.861546e-09	1.046048e+01	1.858372e+02
2.390000e-06	1.321305e-06	2.753772e-09	9.388927e+00	1.786524e+02
2.400000e-06	1.170075e-06	2.631655e-09	8.314319e+00	1.711965e+02
2.410000e-06	1.018415e-06	2.503749e-09	7.236651e+00	1.634637e+02
2.420000e-06	8.663482e-07	2.379768e-09	6.156097e+00	1.554509e+02
2.430000e-06	7.139849e-07	2.265909e-09	5.073434e+00	1.471562e+02
2.440000e-06	5.613881e-07	2.150513e-09	3.989111e+00	1.385768e+02
2.450000e-06	4.085943e-07	2.019392e-09	2.903390e+00	1.297070e+02
2.460000e-06	2.556512e-07	1.873270e-09	1.816606e+00	1.205358e+02
2.470000e-06	1.025793e-07	1.722163e-09	7.289081e-01	1.110457e+02
2.480000e-06	-5.052728e-08	1.570707e-09	-3.590367e-01	1.012114e+02
2.490000e-06	-2.035881e-07	1.414794e-09	-1.446656e+00	9.100071e+01
2.500000e-06	-3.566441e-07	1.252028e-09	-2.534241e+00	8.037584e+01
2.510000e-06	-5.096298e-07	1.082834e-09	-3.621327e+00	6.929675e+01
2.520000e-06	-6.624782e-07	9.069508e-10	-4.707438e+00	5.772528e+01
2.530000e-06	-8.151274e-07	7.263557e-10	-5.792132e+00	4.563024e+01
2.540000e-06	-9.674303e-07	5.416806e-10	-6.874366e+00	3.299280e+01
2.550000e-06	-1.119381e-06	3.427880e-10	-7.954100e+00	1.981162e+01
2.560000e-06	-1.270962e-06	1.265583e-10	-9.031199e+00	6.107070e+00
2.570000e-06	-1.422058e-06	-9.664749e-11	-1.010486e+01	-8.076020e+00
2.580000e-06	-1.572657e-06	-3.197103e-10	-1.117499e+01	-2.266751e+01
2.590000e-06	-1.722660e-06	-5.457687e-10	-1.224088e+01	-3.757323e+01
2.600000e-06	-1.872023e-06	-7.789135e-10	-1.330222e+01	-5.267850e+01
2.610000e-06	-2.020766e-06	-1.014653e-09	-1.435916e+01	-6.785351e+01
2.620000e-06	-2.168670e-06	-1.251231e-09	-1.541014e+01	-8.296025e+01
2.630000e-06	-2.315582e-06	-1.483243e-09	-1.645406e+01	-9.786029e+01
2.640000e-06	-2.461694e-06	-1.705688e-09	-1.749231e+01	-1.124227e+02
2.650000e-06	-2.607008e-06	-1.918173e-09	-1.852488e+01	-1.265312e+02
2.660000e-06	-2.751289e-06	-2.123705e-09	-1.955011e+01	-1.400904e+02
2.670000e-06	-2.894504e-06	-2.324147e-09	-2.056777e+01	-1.530295e+02
2.680000e-06	-3.036563e-06	-2.513099e-09	-2.157721e+01	-1.653044e+02
2.690000e-06	-3.177462e-06	-2.689382e-09	-2.257841e+01	-1.768973e+02
2.700000e-06	-3.317045e-06	-2.853953e-09	-2.357026e+01	-1.878141e+02
2.710000e-06	-3.455278e-06	-3.007566e-09	-2.455251e+01	-1.980807e+02
2.720000e-06	-3.592279e-06	-3.154677e-09	-2.552602e+01	-2.077368e+02
2.730000e-06	-3.727954e-06	-3.295892e-09	-2.649010e+01	-2.168310e+02
2.740000e-06	-3.862243e-06	-3.430504e-09	-2.744433e+01	-2.254148e+02
2.750000e-06	-3.995172e-06	-3.556770e-09	-2.838889e+01	-2.335378e+02
2.760000e-06	-4.126708e-06	-3.675656e-09	-2.932356e+01	-2.412443e+02
2.770000e-06	-4.256785e-06	-3.789730e-09	-3.024786e+01	-2.485710e+02
2.780000e-06	-4.385408e-06	-3.898518e-09	-3.116183e+01	-2.555465e+02
2.790000e-06	-4.512519e-06	-4.000026e-09	-3.206505e+01	-2.621918e+02
2.800000e-06	-4.638115e-06	-4.092502e-09	-3.295752e+01	-2.685225e+02
2.810000e-06	-4.762058e-06	-4.178450e-09	-3.383823e+01	-2.745506e+02
2.820000e-06	-4.884315e-06	-4.262382e-09	-3.470696e+01	-2.802872e+02
2.830000e-06	-5.004849e-06	-4.346145e-09	-3.556345e+01	-2.857443e+02
2.840000e-06	-5.123395e-06	-4.427388e-09	-3.640582e+01	-2.909365e+02
2.850000e-06	-5.239838e-06	-4.504107e-09	-3.723324e+01	-2.958809e+02
2.860000e-06	-5.354167e-06	-4.576965e-09	-3.804564e+01	-3.005972e+02
2.870000e-06	-5.466344e-06	-4.648678e-09	-3.884275e+01	-3.051064e+02
2.880000e-06	-5.576425e-06	-4.720040e-09	-3.962496e+01	-3.094287e+02
2.890000e-06	-5.684571e-06	-4.789518e-09	-4.039342e+01	-3.135821e+02
2.900000e-06	-5.790864e-06	-4.854817e-09	-4.114872e+01	-3.175802e+02
2.910000e-06	-5.895069e-06	-4.914947e-09	-4.188918e+01	-3.214316e+02
2.920000e-06	-5.996999e-06	-4.970437e-09	-4.261348e+01	-3.251389e+02
2.930000e-06	-6.096709e-06	-5.024306e-09	-4.332199e+01	-3.286995e+02
2.940000e-06	-6.194269e-06	-5.077779e-09	-4.401524e+01	-3.321063e+02
