# Temperatura_=_42.14
# Concentracion g/m^3_=_5000.0
# C_Vs_to_Am_M_A/Vsm_=_65563218390.804596
# pendiente_HvsI_1/m_=_3716.3
# ordenada_HvsI_A/m_=_1297.0
# frecuencia_Hz_=_302572.56013861916

Tiempo_(s)	Campo_(V.s)	Magnetizacion_(V.s)	Campo_(kA/m)	Magnetizacion_(A/m)
0.000000e+00	-7.975231e-06	-5.816534e-09	-5.685743e+01	-3.793238e+02
1.000000e-08	-7.972160e-06	-5.807159e-09	-5.683553e+01	-3.790905e+02
2.000000e-08	-7.966489e-06	-5.803219e-09	-5.679511e+01	-3.787513e+02
3.000000e-08	-7.958278e-06	-5.797999e-09	-5.673657e+01	-3.783251e+02
4.000000e-08	-7.947228e-06	-5.793061e-09	-5.665779e+01	-3.778375e+02
5.000000e-08	-7.933149e-06	-5.791201e-09	-5.655742e+01	-3.773182e+02
6.000000e-08	-7.916233e-06	-5.790811e-09	-5.643682e+01	-3.767974e+02
7.000000e-08	-7.896909e-06	-5.792460e-09	-5.629906e+01	-3.763023e+02
8.000000e-08	-7.875278e-06	-5.802247e-09	-5.614484e+01	-3.758541e+02
9.000000e-08	-7.850740e-06	-5.746063e-09	-5.596990e+01	-3.754647e+02
1.000000e-07	-7.822916e-06	-5.773091e-09	-5.577154e+01	-3.751354e+02
1.100000e-07	-7.792024e-06	-5.803398e-09	-5.555130e+01	-3.748563e+02
1.200000e-07	-7.758371e-06	-5.751395e-09	-5.531138e+01	-3.746071e+02
1.300000e-07	-7.722133e-06	-5.689621e-09	-5.505303e+01	-3.743592e+02
1.400000e-07	-7.683515e-06	-5.653448e-09	-5.477771e+01	-3.740780e+02
1.500000e-07	-7.642773e-06	-5.708102e-09	-5.448725e+01	-3.737273e+02
1.600000e-07	-7.599645e-06	-5.635299e-09	-5.417978e+01	-3.732719e+02
1.700000e-07	-7.553823e-06	-5.739635e-09	-5.385310e+01	-3.726815e+02
1.800000e-07	-7.505335e-06	-5.742834e-09	-5.350742e+01	-3.719336e+02
1.900000e-07	-7.453841e-06	-5.560771e-09	-5.314031e+01	-3.710148e+02
2.000000e-07	-7.399329e-06	-5.618203e-09	-5.275168e+01	-3.699215e+02
2.100000e-07	-7.342099e-06	-5.562229e-09	-5.234368e+01	-3.686601e+02
2.200000e-07	-7.282175e-06	-5.577472e-09	-5.191646e+01	-3.672450e+02
2.300000e-07	-7.219672e-06	-5.595450e-09	-5.147086e+01	-3.656963e+02
2.400000e-07	-7.154482e-06	-5.500074e-09	-5.100610e+01	-3.640377e+02
2.500000e-07	-7.086488e-06	-5.491177e-09	-5.052136e+01	-3.622933e+02
2.600000e-07	-7.015824e-06	-5.463418e-09	-5.001757e+01	-3.604848e+02
2.700000e-07	-6.942385e-06	-5.478885e-09	-4.949401e+01	-3.586298e+02
2.800000e-07	-6.866140e-06	-5.438976e-09	-4.895044e+01	-3.567401e+02
2.900000e-07	-6.787062e-06	-5.432433e-09	-4.838667e+01	-3.548211e+02
3.000000e-07	-6.705297e-06	-5.379343e-09	-4.780375e+01	-3.528719e+02
3.100000e-07	-6.621326e-06	-5.302446e-09	-4.720510e+01	-3.508863e+02
3.200000e-07	-6.535195e-06	-5.348160e-09	-4.659105e+01	-3.488541e+02
3.300000e-07	-6.446695e-06	-5.297863e-09	-4.596011e+01	-3.467628e+02
3.400000e-07	-6.355793e-06	-5.236926e-09	-4.531205e+01	-3.445992e+02
3.500000e-07	-6.262586e-06	-5.184716e-09	-4.464756e+01	-3.423513e+02
3.600000e-07	-6.167123e-06	-5.177109e-09	-4.396697e+01	-3.400095e+02
3.700000e-07	-6.069328e-06	-5.145209e-09	-4.326977e+01	-3.375672e+02
3.800000e-07	-5.969334e-06	-5.098441e-09	-4.255689e+01	-3.350214e+02
3.900000e-07	-5.867302e-06	-5.095120e-09	-4.182948e+01	-3.323724e+02
4.000000e-07	-5.763168e-06	-5.031537e-09	-4.108708e+01	-3.296233e+02
4.100000e-07	-5.656924e-06	-4.948953e-09	-4.032963e+01	-3.267789e+02
4.200000e-07	-5.548696e-06	-4.885927e-09	-3.955805e+01	-3.238448e+02
4.300000e-07	-5.438586e-06	-4.904460e-09	-3.877305e+01	-3.208266e+02
4.400000e-07	-5.326527e-06	-4.866563e-09	-3.797415e+01	-3.177282e+02
4.500000e-07	-5.212355e-06	-4.781391e-09	-3.716019e+01	-3.145521e+02
4.600000e-07	-5.096121e-06	-4.722455e-09	-3.633153e+01	-3.112980e+02
4.700000e-07	-4.978038e-06	-4.682900e-09	-3.548968e+01	-3.079634e+02
4.800000e-07	-4.858171e-06	-4.623665e-09	-3.463512e+01	-3.045434e+02
4.900000e-07	-4.736395e-06	-4.568282e-09	-3.376695e+01	-3.010312e+02
5.000000e-07	-4.612767e-06	-4.540229e-09	-3.288558e+01	-2.974189e+02
5.100000e-07	-4.487569e-06	-4.471799e-09	-3.199301e+01	-2.936980e+02
5.200000e-07	-4.360896e-06	-4.396585e-09	-3.108993e+01	-2.898605e+02
5.300000e-07	-4.232660e-06	-4.339164e-09	-3.017570e+01	-2.858993e+02
5.400000e-07	-4.102760e-06	-4.291347e-09	-2.924961e+01	-2.818089e+02
5.500000e-07	-3.971239e-06	-4.211499e-09	-2.831196e+01	-2.775859e+02
5.600000e-07	-3.838187e-06	-4.137489e-09	-2.736340e+01	-2.732288e+02
5.700000e-07	-3.703727e-06	-4.079443e-09	-2.640480e+01	-2.687381e+02
5.800000e-07	-3.568017e-06	-4.007031e-09	-2.543729e+01	-2.641158e+02
5.900000e-07	-3.430914e-06	-3.928263e-09	-2.445985e+01	-2.593649e+02
6.000000e-07	-3.292313e-06	-3.858929e-09	-2.347173e+01	-2.544883e+02
6.100000e-07	-3.152360e-06	-3.793187e-09	-2.247397e+01	-2.494883e+02
6.200000e-07	-3.011121e-06	-3.704076e-09	-2.146704e+01	-2.443654e+02
6.300000e-07	-2.868526e-06	-3.621128e-09	-2.045044e+01	-2.391175e+02
6.400000e-07	-2.724651e-06	-3.549776e-09	-1.942472e+01	-2.337399e+02
6.500000e-07	-2.579775e-06	-3.471653e-09	-1.839186e+01	-2.282241e+02
6.600000e-07	-2.434045e-06	-3.375960e-09	-1.735292e+01	-2.225588e+02
6.700000e-07	-2.287506e-06	-3.279280e-09	-1.630821e+01	-2.167297e+02
6.800000e-07	-2.140308e-06	-3.186255e-09	-1.525880e+01	-2.107209e+02
6.900000e-07	-1.992528e-06	-3.086246e-09	-1.420523e+01	-2.045153e+02
7.000000e-07	-1.844090e-06	-2.988946e-09	-1.314698e+01	-1.980966e+02
7.100000e-07	-1.695037e-06	-2.893972e-09	-1.208435e+01	-1.914497e+02
7.200000e-07	-1.545494e-06	-2.793920e-09	-1.101822e+01	-1.845625e+02
7.300000e-07	-1.395524e-06	-2.681280e-09	-9.949041e+00	-1.774259e+02
7.400000e-07	-1.245138e-06	-2.569025e-09	-8.876903e+00	-1.700343e+02
7.500000e-07	-1.094354e-06	-2.454945e-09	-7.801924e+00	-1.623852e+02
7.600000e-07	-9.431670e-07	-2.337965e-09	-6.724075e+00	-1.544775e+02
7.700000e-07	-7.915933e-07	-2.215314e-09	-5.643468e+00	-1.463106e+02
7.800000e-07	-6.397339e-07	-2.085642e-09	-4.560824e+00	-1.378818e+02
7.900000e-07	-4.876169e-07	-1.950289e-09	-3.476343e+00	-1.291849e+02
8.000000e-07	-3.352795e-07	-1.807152e-09	-2.390292e+00	-1.202073e+02
8.100000e-07	-1.828180e-07	-1.664418e-09	-1.303355e+00	-1.109296e+02
8.200000e-07	-3.025108e-08	-1.516711e-09	-2.156676e-01	-1.013246e+02
8.300000e-07	1.224642e-07	-1.361706e-09	8.730778e-01	-9.135761e+01
8.400000e-07	2.752113e-07	-1.200209e-09	1.962051e+00	-8.098892e+01
8.500000e-07	4.278872e-07	-1.035111e-09	3.050516e+00	-7.017621e+01
8.600000e-07	5.804623e-07	-8.652182e-10	4.138262e+00	-5.887889e+01
8.700000e-07	7.328176e-07	-6.888097e-10	5.224441e+00	-4.706282e+01
8.800000e-07	8.849014e-07	-5.055483e-10	6.308685e+00	-3.470551e+01
8.900000e-07	1.036639e-06	-3.126330e-10	7.390458e+00	-2.180104e+01
9.000000e-07	1.187911e-06	-1.103965e-10	8.468919e+00	-8.364179e+00
9.100000e-07	1.338677e-06	9.982836e-11	9.543763e+00	5.566651e+00
9.200000e-07	1.488971e-06	3.154922e-10	1.061525e+01	1.992826e+01
9.300000e-07	1.638831e-06	5.404413e-10	1.168364e+01	3.463344e+01
9.400000e-07	1.788175e-06	7.691734e-10	1.274835e+01	4.957384e+01
9.500000e-07	1.936877e-06	9.974800e-10	1.380848e+01	6.462471e+01
9.600000e-07	2.084926e-06	1.228359e-09	1.486397e+01	7.965113e+01
9.700000e-07	2.232229e-06	1.458186e-09	1.591412e+01	9.451540e+01
9.800000e-07	2.378730e-06	1.679601e-09	1.695856e+01	1.090846e+02
9.900000e-07	2.524402e-06	1.890787e-09	1.799710e+01	1.232381e+02
1.000000e-06	2.669094e-06	2.094034e-09	1.902864e+01	1.368736e+02
1.010000e-06	2.812710e-06	2.291916e-09	2.005252e+01	1.499120e+02
1.020000e-06	2.955264e-06	2.479601e-09	2.106882e+01	1.623002e+02
1.030000e-06	3.096667e-06	2.652186e-09	2.207692e+01	1.740115e+02
1.040000e-06	3.236743e-06	2.815535e-09	2.307555e+01	1.850441e+02
1.050000e-06	3.375500e-06	2.971461e-09	2.406479e+01	1.954176e+02
1.060000e-06	3.512995e-06	3.119660e-09	2.504503e+01	2.051683e+02
1.070000e-06	3.649080e-06	3.258372e-09	2.601521e+01	2.143437e+02
1.080000e-06	3.783726e-06	3.391639e-09	2.697514e+01	2.229964e+02
1.090000e-06	3.917095e-06	3.519438e-09	2.792596e+01	2.311793e+02
1.100000e-06	4.049095e-06	3.641134e-09	2.886701e+01	2.389410e+02
1.110000e-06	4.179604e-06	3.757979e-09	2.979745e+01	2.463228e+02
1.120000e-06	4.308647e-06	3.866146e-09	3.071743e+01	2.533576e+02
1.130000e-06	4.436186e-06	3.966678e-09	3.162669e+01	2.600697e+02
1.140000e-06	4.562246e-06	4.058958e-09	3.252540e+01	2.664763e+02
1.150000e-06	4.686771e-06	4.146825e-09	3.341317e+01	2.725894e+02
1.160000e-06	4.809634e-06	4.235320e-09	3.428909e+01	2.784183e+02
1.170000e-06	4.930827e-06	4.319187e-09	3.515311e+01	2.839725e+02
1.180000e-06	5.050215e-06	4.397969e-09	3.600425e+01	2.892634e+02
1.190000e-06	5.167718e-06	4.473454e-09	3.684196e+01	2.943053e+02
1.200000e-06	5.283287e-06	4.550645e-09	3.766589e+01	2.991160e+02
1.210000e-06	5.396772e-06	4.627688e-09	3.847495e+01	3.037158e+02
1.220000e-06	5.508185e-06	4.697656e-09	3.926924e+01	3.081263e+02
1.230000e-06	5.617682e-06	4.758222e-09	4.004987e+01	3.123680e+02
1.240000e-06	5.725260e-06	4.812591e-09	4.081682e+01	3.164584e+02
1.250000e-06	5.830784e-06	4.868408e-09	4.156913e+01	3.204104e+02
1.260000e-06	5.934098e-06	4.925209e-09	4.230568e+01	3.242307e+02
1.270000e-06	6.035164e-06	4.980824e-09	4.302620e+01	3.279195e+02
1.280000e-06	6.134057e-06	5.032485e-09	4.373123e+01	3.314712e+02
1.290000e-06	6.230617e-06	5.081371e-09	4.441964e+01	3.348756e+02
1.300000e-06	6.324860e-06	5.129935e-09	4.509152e+01	3.381201e+02
1.310000e-06	6.416881e-06	5.177246e-09	4.574756e+01	3.411923e+02
1.320000e-06	6.506642e-06	5.221040e-09	4.638749e+01	3.440820e+02
1.330000e-06	6.594051e-06	5.260074e-09	4.701065e+01	3.467843e+02
1.340000e-06	6.679103e-06	5.295823e-09	4.761701e+01	3.493000e+02
1.350000e-06	6.761886e-06	5.331593e-09	4.820719e+01	3.516369e+02
1.360000e-06	6.842212e-06	5.364731e-09	4.877985e+01	3.538089e+02
1.370000e-06	6.919990e-06	5.394970e-09	4.933435e+01	3.558350e+02
1.380000e-06	6.995171e-06	5.423341e-09	4.987034e+01	3.577369e+02
1.390000e-06	7.067663e-06	5.450836e-09	5.038715e+01	3.595366e+02
1.400000e-06	7.137601e-06	5.478829e-09	5.088576e+01	3.612538e+02
1.410000e-06	7.205036e-06	5.505819e-09	5.136652e+01	3.629038e+02
1.420000e-06	7.269876e-06	5.531218e-09	5.182878e+01	3.644960e+02
1.430000e-06	7.332208e-06	5.553578e-09	5.227316e+01	3.660327e+02
1.440000e-06	7.392064e-06	5.574036e-09	5.269988e+01	3.675103e+02
1.450000e-06	7.449351e-06	5.592162e-09	5.310830e+01	3.689200e+02
1.460000e-06	7.503919e-06	5.608315e-09	5.349733e+01	3.702499e+02
1.470000e-06	7.555499e-06	5.623586e-09	5.386506e+01	3.714873e+02
1.480000e-06	7.604029e-06	5.638519e-09	5.421104e+01	3.726218e+02
1.490000e-06	7.649800e-06	5.653503e-09	5.453735e+01	3.736464e+02
1.500000e-06	7.692913e-06	5.667148e-09	5.484471e+01	3.745601e+02
1.510000e-06	7.733231e-06	5.680710e-09	5.513215e+01	3.753674e+02
1.520000e-06	7.770803e-06	5.694415e-09	5.540001e+01	3.760787e+02
1.530000e-06	7.805700e-06	5.707585e-09	5.564880e+01	3.767087e+02
1.540000e-06	7.837770e-06	5.717513e-09	5.587743e+01	3.772741e+02
1.550000e-06	7.867031e-06	5.724183e-09	5.608604e+01	3.777914e+02
1.560000e-06	7.893567e-06	5.731126e-09	5.627523e+01	3.782740e+02
1.570000e-06	7.917232e-06	5.739822e-09	5.644394e+01	3.787307e+02
1.580000e-06	7.938066e-06	5.749062e-09	5.659247e+01	3.791633e+02
1.590000e-06	7.956111e-06	5.755288e-09	5.672112e+01	3.795670e+02
1.600000e-06	7.971126e-06	5.759939e-09	5.682816e+01	3.799304e+02
1.610000e-06	7.982995e-06	5.764103e-09	5.691278e+01	3.802372e+02
1.620000e-06	7.991795e-06	5.765810e-09	5.697552e+01	3.804687e+02
1.630000e-06	7.997682e-06	5.765462e-09	5.701749e+01	3.806067e+02
1.640000e-06	8.000784e-06	5.765029e-09	5.703960e+01	3.806363e+02
1.650000e-06	8.001050e-06	5.760385e-09	5.704150e+01	3.805488e+02
1.660000e-06	7.998628e-06	5.765175e-09	5.702424e+01	3.803436e+02
1.670000e-06	7.993646e-06	5.761422e-09	5.698871e+01	3.800289e+02
1.680000e-06	7.985935e-06	5.755101e-09	5.693374e+01	3.796218e+02
1.690000e-06	7.975507e-06	5.750458e-09	5.685939e+01	3.791465e+02
1.700000e-06	7.962322e-06	5.744537e-09	5.676540e+01	3.786318e+02
1.710000e-06	7.946394e-06	5.732988e-09	5.665184e+01	3.781082e+02
1.720000e-06	7.928050e-06	5.706807e-09	5.652106e+01	3.776040e+02
1.730000e-06	7.907442e-06	5.694307e-09	5.637414e+01	3.771421e+02
1.740000e-06	7.884047e-06	5.729753e-09	5.620735e+01	3.767370e+02
1.750000e-06	7.857119e-06	5.667406e-09	5.601538e+01	3.763927e+02
1.760000e-06	7.826594e-06	5.651011e-09	5.579776e+01	3.761021e+02
1.770000e-06	7.793119e-06	5.695934e-09	5.555911e+01	3.758474e+02
1.780000e-06	7.757311e-06	5.721460e-09	5.530383e+01	3.756018e+02
1.790000e-06	7.719174e-06	5.654619e-09	5.503193e+01	3.753319e+02
1.800000e-06	7.678915e-06	5.778927e-09	5.474492e+01	3.750015e+02
1.810000e-06	7.636503e-06	5.741957e-09	5.444256e+01	3.745749e+02
1.820000e-06	7.591385e-06	5.616540e-09	5.412090e+01	3.740203e+02
1.830000e-06	7.543587e-06	5.819139e-09	5.378013e+01	3.733130e+02
1.840000e-06	7.492981e-06	5.685513e-09	5.341934e+01	3.724371e+02
1.850000e-06	7.439311e-06	5.779528e-09	5.303672e+01	3.713868e+02
1.860000e-06	7.382838e-06	5.727092e-09	5.263411e+01	3.701660e+02
1.870000e-06	7.323766e-06	5.564674e-09	5.221297e+01	3.687871e+02
1.880000e-06	7.262070e-06	5.646724e-09	5.177313e+01	3.672692e+02
1.890000e-06	7.197526e-06	5.510823e-09	5.131297e+01	3.656354e+02
1.900000e-06	7.130169e-06	5.594460e-09	5.083277e+01	3.639098e+02
1.910000e-06	7.060021e-06	5.570199e-09	5.033267e+01	3.621150e+02
1.920000e-06	6.987074e-06	5.521714e-09	4.981261e+01	3.602698e+02
1.930000e-06	6.911505e-06	5.449988e-09	4.927386e+01	3.583876e+02
1.940000e-06	6.833172e-06	5.378331e-09	4.871540e+01	3.564753e+02
1.950000e-06	6.752201e-06	5.496813e-09	4.813814e+01	3.545336e+02
1.960000e-06	6.668869e-06	5.385173e-09	4.754405e+01	3.525576e+02
1.970000e-06	6.583043e-06	5.376857e-09	4.693217e+01	3.505377e+02
1.980000e-06	6.494663e-06	5.332406e-09	4.630209e+01	3.484619e+02
1.990000e-06	6.404046e-06	5.281955e-09	4.565605e+01	3.463172e+02
2.000000e-06	6.311300e-06	5.245536e-09	4.499485e+01	3.440909e+02
2.010000e-06	6.216234e-06	5.212674e-09	4.431709e+01	3.417729e+02
2.020000e-06	6.118908e-06	5.234487e-09	4.362324e+01	3.393557e+02
2.030000e-06	6.019523e-06	5.124624e-09	4.291470e+01	3.368354e+02
2.040000e-06	5.917932e-06	5.071456e-09	4.219043e+01	3.342116e+02
2.050000e-06	5.814080e-06	5.053615e-09	4.145004e+01	3.314866e+02
2.060000e-06	5.708246e-06	5.081954e-09	4.069552e+01	3.286651e+02
2.070000e-06	5.600579e-06	5.004293e-09	3.992793e+01	3.257525e+02
2.080000e-06	5.490960e-06	4.927930e-09	3.914643e+01	3.227544e+02
2.090000e-06	5.379250e-06	4.880593e-09	3.835003e+01	3.196753e+02
2.100000e-06	5.265536e-06	4.821357e-09	3.753933e+01	3.165181e+02
2.110000e-06	5.149845e-06	4.792271e-09	3.671454e+01	3.132832e+02
2.120000e-06	5.032086e-06	4.781401e-09	3.587501e+01	3.099687e+02
2.130000e-06	4.912347e-06	4.742873e-09	3.502136e+01	3.065701e+02
2.140000e-06	4.790794e-06	4.624389e-09	3.415477e+01	3.030812e+02
2.150000e-06	4.667584e-06	4.549898e-09	3.327638e+01	2.994943e+02
2.160000e-06	4.542695e-06	4.518525e-09	3.238602e+01	2.958009e+02
2.170000e-06	4.416071e-06	4.497085e-09	3.148328e+01	2.919928e+02
2.180000e-06	4.287807e-06	4.427844e-09	3.056885e+01	2.880626e+02
2.190000e-06	4.158086e-06	4.360367e-09	2.964404e+01	2.840045e+02
2.200000e-06	4.026949e-06	4.281607e-09	2.870913e+01	2.798144e+02
2.210000e-06	3.894222e-06	4.206156e-09	2.776289e+01	2.754904e+02
2.220000e-06	3.759973e-06	4.155870e-09	2.680579e+01	2.710325e+02
2.230000e-06	3.624283e-06	4.111713e-09	2.583842e+01	2.664425e+02
2.240000e-06	3.487267e-06	4.033707e-09	2.486160e+01	2.617230e+02
2.250000e-06	3.348981e-06	3.929908e-09	2.387573e+01	2.568771e+02
2.260000e-06	3.209387e-06	3.855890e-09	2.288053e+01	2.519074e+02
2.270000e-06	3.068431e-06	3.796911e-09	2.187561e+01	2.468148e+02
2.280000e-06	2.926170e-06	3.726118e-09	2.086141e+01	2.415981e+02
2.290000e-06	2.782806e-06	3.634172e-09	1.983932e+01	2.362531e+02
2.300000e-06	2.638403e-06	3.543251e-09	1.880984e+01	2.307724e+02
2.310000e-06	2.493117e-06	3.449304e-09	1.777406e+01	2.251452e+02
2.320000e-06	2.347134e-06	3.368314e-09	1.673331e+01	2.193581e+02
2.330000e-06	2.200513e-06	3.298756e-09	1.568801e+01	2.133954e+02
2.340000e-06	2.053184e-06	3.212280e-09	1.463767e+01	2.072401e+02
2.350000e-06	1.905061e-06	3.094086e-09	1.358166e+01	2.008757e+02
2.360000e-06	1.756190e-06	2.972822e-09	1.252032e+01	1.942867e+02
2.370000e-06	1.606686e-06	2.874968e-09	1.145447e+01	1.874600e+02
2.380000e-06	1.456719e-06	2.785368e-09	1.038532e+01	1.803860e+02
2.390000e-06	1.306284e-06	2.681232e-09	9.312831e+00	1.730581e+02
2.400000e-06	1.155331e-06	2.559222e-09	8.236645e+00	1.654730e+02
2.410000e-06	1.003976e-06	2.427570e-09	7.157598e+00	1.576296e+02
2.420000e-06	8.523412e-07	2.297414e-09	6.076555e+00	1.495272e+02
2.430000e-06	7.004340e-07	2.180248e-09	4.993570e+00	1.411639e+02
2.440000e-06	5.482104e-07	2.065527e-09	3.908330e+00	1.325344e+02
2.450000e-06	3.957927e-07	1.934687e-09	2.821706e+00	1.236281e+02
2.460000e-06	2.432662e-07	1.785962e-09	1.734306e+00	1.144273e+02
2.470000e-06	9.064800e-08	1.633007e-09	6.462524e-01	1.049065e+02
2.480000e-06	-6.201818e-08	1.481730e-09	-4.421432e-01	9.503319e+01
2.490000e-06	-2.147182e-07	1.326136e-09	-1.530780e+00	8.476842e+01
2.500000e-06	-3.674120e-07	1.162904e-09	-2.619373e+00	7.407022e+01
2.510000e-06	-5.199587e-07	9.895885e-10	-3.706916e+00	6.289715e+01
2.520000e-06	-6.723368e-07	8.079089e-10	-4.793258e+00	5.121297e+01
2.530000e-06	-8.245527e-07	6.234031e-10	-5.878444e+00	3.899181e+01
2.540000e-06	-9.764717e-07	4.374100e-10	-6.961512e+00	2.622317e+01
2.550000e-06	-1.128017e-06	2.393057e-10	-8.041916e+00	1.291632e+01
2.560000e-06	-1.279131e-06	2.365252e-11	-9.119245e+00	-8.964186e-01
2.570000e-06	-1.429727e-06	-2.002047e-10	-1.019289e+01	-1.515804e+01
2.580000e-06	-1.579780e-06	-4.246157e-10	-1.126265e+01	-2.978718e+01
2.590000e-06	-1.729309e-06	-6.506713e-10	-1.232868e+01	-4.468037e+01
2.600000e-06	-1.878218e-06	-8.846430e-10	-1.339029e+01	-5.971644e+01
2.610000e-06	-2.026412e-06	-1.121042e-09	-1.444680e+01	-7.476235e+01
2.620000e-06	-2.173742e-06	-1.356146e-09	-1.549715e+01	-8.968038e+01
2.630000e-06	-2.320136e-06	-1.586460e-09	-1.654084e+01	-1.043357e+02
2.640000e-06	-2.465774e-06	-1.804041e-09	-1.757913e+01	-1.186040e+02
2.650000e-06	-2.610598e-06	-2.009781e-09	-1.861161e+01	-1.323778e+02
2.660000e-06	-2.754392e-06	-2.208428e-09	-1.963675e+01	-1.455720e+02
2.670000e-06	-2.897042e-06	-2.401492e-09	-2.065374e+01	-1.581267e+02
2.680000e-06	-3.038515e-06	-2.583460e-09	-2.166234e+01	-1.700088e+02
2.690000e-06	-3.178810e-06	-2.752760e-09	-2.266254e+01	-1.812104e+02
2.700000e-06	-3.317799e-06	-2.911770e-09	-2.365342e+01	-1.917462e+02
2.710000e-06	-3.455437e-06	-3.061875e-09	-2.463468e+01	-2.016490e+02
2.720000e-06	-3.591769e-06	-3.205337e-09	-2.560663e+01	-2.109638e+02
2.730000e-06	-3.726765e-06	-3.344910e-09	-2.656905e+01	-2.197426e+02
2.740000e-06	-3.860467e-06	-3.479399e-09	-2.752224e+01	-2.280386e+02
2.750000e-06	-3.992820e-06	-3.602815e-09	-2.846582e+01	-2.359018e+02
2.760000e-06	-4.123689e-06	-3.717662e-09	-2.939882e+01	-2.433756e+02
2.770000e-06	-4.253218e-06	-3.827049e-09	-3.032226e+01	-2.504950e+02
2.780000e-06	-4.381356e-06	-3.930233e-09	-3.123579e+01	-2.572864e+02
2.790000e-06	-4.507939e-06	-4.025272e-09	-3.213823e+01	-2.637686e+02
2.800000e-06	-4.633029e-06	-4.114101e-09	-3.303003e+01	-2.699545e+02
2.810000e-06	-4.756486e-06	-4.199853e-09	-3.391019e+01	-2.758541e+02
2.820000e-06	-4.878274e-06	-4.283625e-09	-3.477844e+01	-2.814765e+02
2.830000e-06	-4.998324e-06	-4.368500e-09	-3.563431e+01	-2.868324e+02
2.840000e-06	-5.116357e-06	-4.450932e-09	-3.647580e+01	-2.919354e+02
2.850000e-06	-5.232263e-06	-4.526574e-09	-3.730212e+01	-2.968026e+02
2.860000e-06	-5.346009e-06	-4.596885e-09	-3.811305e+01	-3.014536e+02
2.870000e-06	-5.457650e-06	-4.666781e-09	-3.890896e+01	-3.059098e+02
2.880000e-06	-5.567229e-06	-4.736680e-09	-3.969018e+01	-3.101923e+02
2.890000e-06	-5.674849e-06	-4.803434e-09	-4.045743e+01	-3.143196e+02
2.900000e-06	-5.780600e-06	-4.867804e-09	-4.121135e+01	-3.183058e+02
2.910000e-06	-5.884264e-06	-4.929509e-09	-4.195040e+01	-3.221592e+02
2.920000e-06	-5.985682e-06	-4.987787e-09	-4.267343e+01	-3.258816e+02
2.930000e-06	-6.084908e-06	-5.044280e-09	-4.338084e+01	-3.294689e+02
2.940000e-06	-6.182021e-06	-5.097848e-09	-4.407319e+01	-3.329117e+02
