# Temperatura_=_37.13
# Concentracion g/m^3_=_5000.0
# C_Vs_to_Am_M_A/Vsm_=_65563218390.804596
# pendiente_HvsI_1/m_=_3716.3
# ordenada_HvsI_A/m_=_1297.0
# frecuencia_Hz_=_302573.7935885856

Tiempo_(s)	Campo_(V.s)	Magnetizacion_(V.s)	Campo_(kA/m)	Magnetizacion_(A/m)
0.000000e+00	-8.023517e-06	-5.816638e-09	-5.685019e+01	-3.796961e+02
1.000000e-08	-8.020245e-06	-5.816557e-09	-5.682701e+01	-3.794976e+02
2.000000e-08	-8.014268e-06	-5.808427e-09	-5.678466e+01	-3.792142e+02
3.000000e-08	-8.005714e-06	-5.804626e-09	-5.672405e+01	-3.788614e+02
4.000000e-08	-7.994374e-06	-5.803054e-09	-5.664370e+01	-3.784585e+02
5.000000e-08	-7.979959e-06	-5.796569e-09	-5.654156e+01	-3.780266e+02
6.000000e-08	-7.962644e-06	-5.785702e-09	-5.641888e+01	-3.775859e+02
7.000000e-08	-7.943019e-06	-5.771498e-09	-5.627983e+01	-3.771537e+02
8.000000e-08	-7.921029e-06	-5.800930e-09	-5.612402e+01	-3.767418e+02
9.000000e-08	-7.895982e-06	-5.860649e-09	-5.594655e+01	-3.763550e+02
1.000000e-07	-7.867658e-06	-5.815501e-09	-5.574586e+01	-3.759907e+02
1.100000e-07	-7.836367e-06	-5.767768e-09	-5.552415e+01	-3.756392e+02
1.200000e-07	-7.802288e-06	-5.750312e-09	-5.528269e+01	-3.752843e+02
1.300000e-07	-7.765513e-06	-5.698769e-09	-5.502212e+01	-3.749054e+02
1.400000e-07	-7.726439e-06	-5.624626e-09	-5.474526e+01	-3.744795e+02
1.500000e-07	-7.685262e-06	-5.647275e-09	-5.445350e+01	-3.739838e+02
1.600000e-07	-7.641613e-06	-5.807362e-09	-5.414423e+01	-3.733978e+02
1.700000e-07	-7.595222e-06	-5.695677e-09	-5.381553e+01	-3.727053e+02
1.800000e-07	-7.546023e-06	-5.686888e-09	-5.346694e+01	-3.718953e+02
1.900000e-07	-7.493758e-06	-5.685990e-09	-5.309662e+01	-3.709630e+02
2.000000e-07	-7.438569e-06	-5.554203e-09	-5.270557e+01	-3.699093e+02
2.100000e-07	-7.380672e-06	-5.593238e-09	-5.229535e+01	-3.687403e+02
2.200000e-07	-7.320101e-06	-5.580645e-09	-5.186617e+01	-3.674658e+02
2.300000e-07	-7.256980e-06	-5.597375e-09	-5.141893e+01	-3.660977e+02
2.400000e-07	-7.191042e-06	-5.522057e-09	-5.095173e+01	-3.646485e+02
2.500000e-07	-7.122319e-06	-5.480815e-09	-5.046480e+01	-3.631297e+02
2.600000e-07	-7.050986e-06	-5.519774e-09	-4.995938e+01	-3.615506e+02
2.700000e-07	-6.976804e-06	-5.505435e-09	-4.943376e+01	-3.599177e+02
2.800000e-07	-6.899845e-06	-5.470423e-09	-4.888847e+01	-3.582342e+02
2.900000e-07	-6.820048e-06	-5.416146e-09	-4.832308e+01	-3.565001e+02
3.000000e-07	-6.737598e-06	-5.422458e-09	-4.773888e+01	-3.547129e+02
3.100000e-07	-6.652941e-06	-5.383664e-09	-4.713905e+01	-3.528681e+02
3.200000e-07	-6.565999e-06	-5.335386e-09	-4.652303e+01	-3.509603e+02
3.300000e-07	-6.476605e-06	-5.339307e-09	-4.588963e+01	-3.489836e+02
3.400000e-07	-6.384836e-06	-5.282496e-09	-4.523941e+01	-3.469326e+02
3.500000e-07	-6.290868e-06	-5.225058e-09	-4.457360e+01	-3.448027e+02
3.600000e-07	-6.194616e-06	-5.192391e-09	-4.389161e+01	-3.425906e+02
3.700000e-07	-6.096026e-06	-5.195306e-09	-4.319306e+01	-3.402938e+02
3.800000e-07	-5.995299e-06	-5.173142e-09	-4.247937e+01	-3.379114e+02
3.900000e-07	-5.892432e-06	-5.127136e-09	-4.175051e+01	-3.354426e+02
4.000000e-07	-5.787353e-06	-5.075752e-09	-4.100597e+01	-3.328877e+02
4.100000e-07	-5.680212e-06	-5.009523e-09	-4.024683e+01	-3.302468e+02
4.200000e-07	-5.571169e-06	-4.979570e-09	-3.947421e+01	-3.275199e+02
4.300000e-07	-5.460226e-06	-4.954318e-09	-3.868813e+01	-3.247067e+02
4.400000e-07	-5.347200e-06	-4.914807e-09	-3.788730e+01	-3.218066e+02
4.500000e-07	-5.231940e-06	-4.855235e-09	-3.707063e+01	-3.188180e+02
4.600000e-07	-5.114659e-06	-4.803166e-09	-3.623964e+01	-3.157390e+02
4.700000e-07	-4.995647e-06	-4.751031e-09	-3.539639e+01	-3.125670e+02
4.800000e-07	-4.874807e-06	-4.699974e-09	-3.454018e+01	-3.092984e+02
4.900000e-07	-4.752124e-06	-4.662302e-09	-3.367091e+01	-3.059291e+02
5.000000e-07	-4.627751e-06	-4.613330e-09	-3.278967e+01	-3.024545e+02
5.100000e-07	-4.501745e-06	-4.544387e-09	-3.189687e+01	-2.988692e+02
5.200000e-07	-4.374118e-06	-4.481328e-09	-3.099257e+01	-2.951677e+02
5.300000e-07	-4.244823e-06	-4.442512e-09	-3.007646e+01	-2.913442e+02
5.400000e-07	-4.113931e-06	-4.384304e-09	-2.914903e+01	-2.873934e+02
5.500000e-07	-3.981503e-06	-4.300298e-09	-2.821072e+01	-2.833104e+02
5.600000e-07	-3.847638e-06	-4.233137e-09	-2.726223e+01	-2.790915e+02
5.700000e-07	-3.712355e-06	-4.176008e-09	-2.630369e+01	-2.747341e+02
5.800000e-07	-3.575545e-06	-4.101374e-09	-2.533433e+01	-2.702373e+02
5.900000e-07	-3.437287e-06	-4.022684e-09	-2.435471e+01	-2.656013e+02
6.000000e-07	-3.297663e-06	-3.962759e-09	-2.336541e+01	-2.608272e+02
6.100000e-07	-3.156519e-06	-3.892177e-09	-2.236534e+01	-2.559168e+02
6.200000e-07	-3.013913e-06	-3.800964e-09	-2.135491e+01	-2.508714e+02
6.300000e-07	-2.870137e-06	-3.721084e-09	-2.033620e+01	-2.456909e+02
6.400000e-07	-2.725373e-06	-3.656965e-09	-1.931048e+01	-2.403733e+02
6.500000e-07	-2.579723e-06	-3.579718e-09	-1.827849e+01	-2.349134e+02
6.600000e-07	-2.433208e-06	-3.483000e-09	-1.724036e+01	-2.293029e+02
6.700000e-07	-2.285863e-06	-3.389600e-09	-1.619636e+01	-2.235295e+02
6.800000e-07	-2.137839e-06	-3.295719e-09	-1.514754e+01	-2.175783e+02
6.900000e-07	-1.989193e-06	-3.194889e-09	-1.409431e+01	-2.114316e+02
7.000000e-07	-1.839903e-06	-3.093420e-09	-1.303653e+01	-2.050707e+02
7.100000e-07	-1.690052e-06	-2.998051e-09	-1.197477e+01	-1.984774e+02
7.200000e-07	-1.539653e-06	-2.898080e-09	-1.090913e+01	-1.916348e+02
7.300000e-07	-1.388724e-06	-2.788031e-09	-9.839727e+00	-1.845291e+02
7.400000e-07	-1.237265e-06	-2.673104e-09	-8.766570e+00	-1.771503e+02
7.500000e-07	-1.085310e-06	-2.557204e-09	-7.689902e+00	-1.694922e+02
7.600000e-07	-9.329946e-07	-2.440559e-09	-6.610683e+00	-1.615520e+02
7.700000e-07	-7.803676e-07	-2.314161e-09	-5.529252e+00	-1.533290e+02
7.800000e-07	-6.274666e-07	-2.183529e-09	-4.445880e+00	-1.448228e+02
7.900000e-07	-4.742992e-07	-2.050000e-09	-3.360621e+00	-1.360307e+02
8.000000e-07	-3.209301e-07	-1.911471e-09	-2.273932e+00	-1.269458e+02
8.100000e-07	-1.674720e-07	-1.764659e-09	-1.186613e+00	-1.175546e+02
8.200000e-07	-1.388563e-08	-1.611172e-09	-9.838586e-02	-1.078362e+02
8.300000e-07	1.398183e-07	-1.453539e-09	9.906748e-01	-9.776149e+01
8.400000e-07	2.935140e-07	-1.290211e-09	2.079677e+00	-8.729475e+01
8.500000e-07	4.471335e-07	-1.122727e-09	3.168140e+00	-7.639574e+01
8.600000e-07	6.005957e-07	-9.499437e-10	4.255488e+00	-6.502356e+01
8.700000e-07	7.538664e-07	-7.752746e-10	5.341479e+00	-5.314143e+01
8.800000e-07	9.069632e-07	-5.916328e-10	6.426238e+00	-4.072198e+01
8.900000e-07	1.059731e-06	-3.965326e-10	7.508667e+00	-2.775269e+01
9.000000e-07	1.212060e-06	-1.934914e-10	8.587984e+00	-1.424068e+01
9.100000e-07	1.363923e-06	1.541686e-11	9.664002e+00	-2.163423e-01
9.200000e-07	1.515243e-06	2.339438e-10	1.073617e+01	1.426470e+01
9.300000e-07	1.665955e-06	4.629400e-10	1.180403e+01	2.912166e+01
9.400000e-07	1.816030e-06	6.948384e-10	1.286738e+01	4.425089e+01
9.500000e-07	1.965452e-06	9.289720e-10	1.392610e+01	5.953020e+01
9.600000e-07	2.114152e-06	1.165559e-09	1.497971e+01	7.482499e+01
9.700000e-07	2.262108e-06	1.398881e-09	1.602804e+01	8.999559e+01
9.800000e-07	2.409291e-06	1.620905e-09	1.707090e+01	1.049052e+02
9.900000e-07	2.555659e-06	1.836047e-09	1.810798e+01	1.194275e+02
1.000000e-06	2.701108e-06	2.046046e-09	1.913856e+01	1.334535e+02
1.010000e-06	2.845531e-06	2.250379e-09	2.016185e+01	1.468968e+02
1.020000e-06	2.988836e-06	2.442736e-09	2.117723e+01	1.596967e+02
1.030000e-06	3.130904e-06	2.622090e-09	2.218385e+01	1.718193e+02
1.040000e-06	3.271754e-06	2.792915e-09	2.318183e+01	1.832562e+02
1.050000e-06	3.411376e-06	2.956083e-09	2.417112e+01	1.940213e+02
1.060000e-06	3.549682e-06	3.111007e-09	2.515108e+01	2.041462e+02
1.070000e-06	3.686501e-06	3.255937e-09	2.612050e+01	2.136748e+02
1.080000e-06	3.821845e-06	3.394180e-09	2.707947e+01	2.226571e+02
1.090000e-06	3.955855e-06	3.524863e-09	2.802900e+01	2.311443e+02
1.100000e-06	4.088474e-06	3.649071e-09	2.896866e+01	2.391842e+02
1.110000e-06	4.219667e-06	3.769816e-09	2.989822e+01	2.468182e+02
1.120000e-06	4.349399e-06	3.882461e-09	3.081743e+01	2.540797e+02
1.130000e-06	4.477511e-06	3.985727e-09	3.172516e+01	2.609941e+02
1.140000e-06	4.604022e-06	4.080001e-09	3.262154e+01	2.675799e+02
1.150000e-06	4.729049e-06	4.171797e-09	3.350742e+01	2.738507e+02
1.160000e-06	4.852571e-06	4.263350e-09	3.438262e+01	2.798175e+02
1.170000e-06	4.974402e-06	4.349256e-09	3.524585e+01	2.854914e+02
1.180000e-06	5.094322e-06	4.429659e-09	3.609554e+01	2.908852e+02
1.190000e-06	5.212331e-06	4.506669e-09	3.693169e+01	2.960145e+02
1.200000e-06	5.328441e-06	4.583445e-09	3.775438e+01	3.008979e+02
1.210000e-06	5.442454e-06	4.659000e-09	3.856221e+01	3.055563e+02
1.220000e-06	5.554296e-06	4.729959e-09	3.935466e+01	3.100115e+02
1.230000e-06	5.664196e-06	4.792742e-09	4.013335e+01	3.142841e+02
1.240000e-06	5.772206e-06	4.850583e-09	4.089865e+01	3.183916e+02
1.250000e-06	5.878117e-06	4.906733e-09	4.164908e+01	3.223470e+02
1.260000e-06	5.981770e-06	4.963845e-09	4.238351e+01	3.261572e+02
1.270000e-06	6.083211e-06	5.019331e-09	4.310226e+01	3.298231e+02
1.280000e-06	6.182430e-06	5.071181e-09	4.380527e+01	3.333402e+02
1.290000e-06	6.279309e-06	5.120367e-09	4.449170e+01	3.366996e+02
1.300000e-06	6.373881e-06	5.168824e-09	4.516179e+01	3.398908e+02
1.310000e-06	6.466262e-06	5.215280e-09	4.581635e+01	3.429035e+02
1.320000e-06	6.556300e-06	5.255081e-09	4.645430e+01	3.457300e+02
1.330000e-06	6.643911e-06	5.290319e-09	4.707507e+01	3.483673e+02
1.340000e-06	6.729248e-06	5.324590e-09	4.767972e+01	3.508183e+02
1.350000e-06	6.812248e-06	5.359452e-09	4.826781e+01	3.530921e+02
1.360000e-06	6.892797e-06	5.393992e-09	4.883853e+01	3.552033e+02
1.370000e-06	6.970800e-06	5.426209e-09	4.939122e+01	3.571711e+02
1.380000e-06	7.046158e-06	5.455080e-09	4.992517e+01	3.590166e+02
1.390000e-06	7.118849e-06	5.481463e-09	5.044021e+01	3.607611e+02
1.400000e-06	7.189012e-06	5.506409e-09	5.093735e+01	3.624232e+02
1.410000e-06	7.256698e-06	5.530668e-09	5.141694e+01	3.640174e+02
1.420000e-06	7.321681e-06	5.554421e-09	5.187737e+01	3.655522e+02
1.430000e-06	7.384043e-06	5.575286e-09	5.231923e+01	3.670304e+02
1.440000e-06	7.443974e-06	5.595526e-09	5.274387e+01	3.684488e+02
1.450000e-06	7.501270e-06	5.615607e-09	5.314984e+01	3.697999e+02
1.460000e-06	7.555903e-06	5.633418e-09	5.353694e+01	3.710737e+02
1.470000e-06	7.607698e-06	5.648261e-09	5.390393e+01	3.722596e+02
1.480000e-06	7.656331e-06	5.661315e-09	5.424852e+01	3.733488e+02
1.490000e-06	7.702089e-06	5.674272e-09	5.457273e+01	3.743363e+02
1.500000e-06	7.745119e-06	5.687396e-09	5.487762e+01	3.752214e+02
1.510000e-06	7.785302e-06	5.701325e-09	5.516233e+01	3.760086e+02
1.520000e-06	7.822812e-06	5.715861e-09	5.542811e+01	3.767069e+02
1.530000e-06	7.857587e-06	5.729574e-09	5.567450e+01	3.773286e+02
1.540000e-06	7.889496e-06	5.738229e-09	5.590059e+01	3.778874e+02
1.550000e-06	7.918731e-06	5.743301e-09	5.610774e+01	3.783966e+02
1.560000e-06	7.945106e-06	5.748484e-09	5.629461e+01	3.788665e+02
1.570000e-06	7.968443e-06	5.755626e-09	5.645996e+01	3.793036e+02
1.580000e-06	7.989071e-06	5.762763e-09	5.660613e+01	3.797089e+02
1.590000e-06	8.006966e-06	5.766556e-09	5.673292e+01	3.800780e+02
1.600000e-06	8.021820e-06	5.770191e-09	5.683817e+01	3.804019e+02
1.610000e-06	8.033533e-06	5.773831e-09	5.692116e+01	3.806682e+02
1.620000e-06	8.042093e-06	5.776312e-09	5.698181e+01	3.808633e+02
1.630000e-06	8.047744e-06	5.777817e-09	5.702185e+01	3.809745e+02
1.640000e-06	8.050517e-06	5.779927e-09	5.704150e+01	3.809924e+02
1.650000e-06	8.050380e-06	5.781194e-09	5.704053e+01	3.809125e+02
1.660000e-06	8.047636e-06	5.770280e-09	5.702108e+01	3.807365e+02
1.670000e-06	8.042249e-06	5.766654e-09	5.698292e+01	3.804728e+02
1.680000e-06	8.034139e-06	5.761893e-09	5.692545e+01	3.801353e+02
1.690000e-06	8.023311e-06	5.754138e-09	5.684873e+01	3.797425e+02
1.700000e-06	8.009548e-06	5.750227e-09	5.675122e+01	3.793155e+02
1.710000e-06	7.993132e-06	5.753744e-09	5.663490e+01	3.788748e+02
1.720000e-06	7.974501e-06	5.763998e-09	5.650289e+01	3.784388e+02
1.730000e-06	7.953528e-06	5.678061e-09	5.635429e+01	3.780206e+02
1.740000e-06	7.929594e-06	5.638162e-09	5.618471e+01	3.776271e+02
1.750000e-06	7.902013e-06	5.691379e-09	5.598928e+01	3.772575e+02
1.760000e-06	7.870816e-06	5.684563e-09	5.576824e+01	3.769037e+02
1.770000e-06	7.836818e-06	5.673451e-09	5.552735e+01	3.765510e+02
1.780000e-06	7.800531e-06	5.757286e-09	5.527024e+01	3.761798e+02
1.790000e-06	7.761926e-06	5.797021e-09	5.499671e+01	3.757674e+02
1.800000e-06	7.721246e-06	5.629161e-09	5.470847e+01	3.752909e+02
1.810000e-06	7.678254e-06	5.712324e-09	5.440385e+01	3.747288e+02
1.820000e-06	7.632590e-06	5.677312e-09	5.408030e+01	3.740638e+02
1.830000e-06	7.584268e-06	5.635069e-09	5.373791e+01	3.732834e+02
1.840000e-06	7.532906e-06	5.779529e-09	5.337400e+01	3.723814e+02
1.850000e-06	7.478517e-06	5.676560e-09	5.298862e+01	3.713573e+02
1.860000e-06	7.421401e-06	5.729438e-09	5.258393e+01	3.702160e+02
1.870000e-06	7.361638e-06	5.590884e-09	5.216049e+01	3.689664e+02
1.880000e-06	7.299208e-06	5.548371e-09	5.171814e+01	3.676202e+02
1.890000e-06	7.233909e-06	5.642001e-09	5.125546e+01	3.661897e+02
1.900000e-06	7.165838e-06	5.540758e-09	5.077315e+01	3.646869e+02
1.910000e-06	7.094930e-06	5.591025e-09	5.027074e+01	3.631218e+02
1.920000e-06	7.021284e-06	5.491170e-09	4.974893e+01	3.615015e+02
1.930000e-06	6.944956e-06	5.479519e-09	4.920811e+01	3.598301e+02
1.940000e-06	6.865738e-06	5.458398e-09	4.864682e+01	3.581084e+02
1.950000e-06	6.784037e-06	5.431813e-09	4.806792e+01	3.563345e+02
1.960000e-06	6.699864e-06	5.471279e-09	4.747152e+01	3.545042e+02
1.970000e-06	6.613126e-06	5.348618e-09	4.685694e+01	3.526123e+02
1.980000e-06	6.523974e-06	5.347862e-09	4.622526e+01	3.506530e+02
1.990000e-06	6.432593e-06	5.302354e-09	4.557779e+01	3.486206e+02
2.000000e-06	6.338990e-06	5.316818e-09	4.491457e+01	3.465104e+02
2.010000e-06	6.243002e-06	5.278904e-09	4.423445e+01	3.443187e+02
2.020000e-06	6.144902e-06	5.219164e-09	4.353937e+01	3.420429e+02
2.030000e-06	6.044594e-06	5.162237e-09	4.282864e+01	3.396815e+02
2.040000e-06	5.941960e-06	5.096984e-09	4.210143e+01	3.372340e+02
2.050000e-06	5.837255e-06	5.123757e-09	4.135955e+01	3.347002e+02
2.060000e-06	5.730685e-06	5.097896e-09	4.060445e+01	3.320804e+02
2.070000e-06	5.622278e-06	5.066104e-09	3.983635e+01	3.293746e+02
2.080000e-06	5.511810e-06	4.980148e-09	3.905363e+01	3.265827e+02
2.090000e-06	5.399174e-06	4.924796e-09	3.825555e+01	3.237040e+02
2.100000e-06	5.284495e-06	4.869671e-09	3.744300e+01	3.207373e+02
2.110000e-06	5.167808e-06	4.858491e-09	3.661622e+01	3.176807e+02
2.120000e-06	5.049089e-06	4.844583e-09	3.577505e+01	3.145319e+02
2.130000e-06	4.928490e-06	4.778483e-09	3.492055e+01	3.112873e+02
2.140000e-06	4.806137e-06	4.689848e-09	3.405362e+01	3.079433e+02
2.150000e-06	4.682063e-06	4.629315e-09	3.317450e+01	3.044951e+02
2.160000e-06	4.556205e-06	4.608662e-09	3.228274e+01	3.009376e+02
2.170000e-06	4.428649e-06	4.556943e-09	3.137895e+01	2.972653e+02
2.180000e-06	4.299538e-06	4.496480e-09	3.046414e+01	2.934725e+02
2.190000e-06	4.168940e-06	4.426972e-09	2.953880e+01	2.895535e+02
2.200000e-06	4.036742e-06	4.359399e-09	2.860212e+01	2.855036e+02
2.210000e-06	3.902878e-06	4.288019e-09	2.765363e+01	2.813185e+02
2.220000e-06	3.767544e-06	4.248110e-09	2.669473e+01	2.769956e+02
2.230000e-06	3.630861e-06	4.197449e-09	2.572627e+01	2.725333e+02
2.240000e-06	3.492815e-06	4.108614e-09	2.474815e+01	2.679316e+02
2.250000e-06	3.353391e-06	4.014056e-09	2.376027e+01	2.631915e+02
2.260000e-06	3.212706e-06	3.953183e-09	2.276346e+01	2.583146e+02
2.270000e-06	3.070665e-06	3.900402e-09	2.175703e+01	2.533025e+02
2.280000e-06	2.927404e-06	3.820198e-09	2.074196e+01	2.481555e+02
2.290000e-06	2.783137e-06	3.726285e-09	1.971976e+01	2.428721e+02
2.300000e-06	2.637894e-06	3.629624e-09	1.869066e+01	2.374481e+02
2.310000e-06	2.491772e-06	3.539909e-09	1.765532e+01	2.318758e+02
2.320000e-06	2.344831e-06	3.463512e-09	1.661417e+01	2.261441e+02
2.330000e-06	2.197103e-06	3.396669e-09	1.556745e+01	2.202385e+02
2.340000e-06	2.048562e-06	3.310907e-09	1.451498e+01	2.141420e+02
2.350000e-06	1.899262e-06	3.196675e-09	1.345712e+01	2.078360e+02
2.360000e-06	1.749310e-06	3.081197e-09	1.239464e+01	2.013021e+02
2.370000e-06	1.598795e-06	2.983978e-09	1.132817e+01	1.945228e+02
2.380000e-06	1.447780e-06	2.892720e-09	1.025817e+01	1.874836e+02
2.390000e-06	1.296301e-06	2.786459e-09	9.184872e+00	1.801734e+02
2.400000e-06	1.144384e-06	2.661841e-09	8.108470e+00	1.725851e+02
2.410000e-06	9.921250e-07	2.531565e-09	7.029647e+00	1.647152e+02
2.420000e-06	8.396190e-07	2.407514e-09	5.949075e+00	1.565626e+02
2.430000e-06	6.868326e-07	2.290567e-09	4.866515e+00	1.481269e+02
2.440000e-06	5.337963e-07	2.167568e-09	3.782184e+00	1.394063e+02
2.450000e-06	3.806491e-07	2.029516e-09	2.697069e+00	1.303951e+02
2.460000e-06	2.273794e-07	1.880364e-09	1.611084e+00	1.210818e+02
2.470000e-06	7.398805e-08	1.729131e-09	5.242383e-01	1.114472e+02
2.480000e-06	-7.946751e-08	1.577604e-09	-5.630627e-01	1.014643e+02
2.490000e-06	-2.329093e-07	1.424401e-09	-1.650266e+00	9.109888e+01
2.500000e-06	-3.862914e-07	1.261664e-09	-2.737047e+00	8.031143e+01
2.510000e-06	-5.395745e-07	1.085267e-09	-3.823126e+00	6.906085e+01
2.520000e-06	-6.927123e-07	9.017643e-10	-4.908175e+00	5.730884e+01
2.530000e-06	-8.456975e-07	7.180825e-10	-5.992143e+00	4.502517e+01
2.540000e-06	-9.984200e-07	5.307159e-10	-7.074251e+00	3.219313e+01
2.550000e-06	-1.150762e-06	3.283871e-10	-8.153661e+00	1.881451e+01
2.560000e-06	-1.302698e-06	1.113692e-10	-9.230195e+00	4.913653e+00
2.570000e-06	-1.454161e-06	-1.135314e-10	-1.030338e+01	-9.460213e+00
2.580000e-06	-1.605121e-06	-3.411055e-10	-1.137300e+01	-2.423247e+01
2.590000e-06	-1.755506e-06	-5.713030e-10	-1.243855e+01	-3.930484e+01
2.600000e-06	-1.905207e-06	-8.054048e-10	-1.349924e+01	-5.455927e+01
2.610000e-06	-2.054140e-06	-1.041440e-09	-1.455450e+01	-6.986361e+01
2.620000e-06	-2.202296e-06	-1.279247e-09	-1.560425e+01	-8.507873e+01
2.630000e-06	-2.349564e-06	-1.513351e-09	-1.664771e+01	-1.000663e+02
2.640000e-06	-2.495874e-06	-1.737503e-09	-1.768438e+01	-1.146969e+02
2.650000e-06	-2.641307e-06	-1.952267e-09	-1.871484e+01	-1.288564e+02
2.660000e-06	-2.785776e-06	-2.158834e-09	-1.973846e+01	-1.424525e+02
2.670000e-06	-2.929242e-06	-2.357926e-09	-2.075498e+01	-1.554178e+02
2.680000e-06	-3.071596e-06	-2.546213e-09	-2.176363e+01	-1.677119e+02
2.690000e-06	-3.212716e-06	-2.722999e-09	-2.276352e+01	-1.793201e+02
2.700000e-06	-3.352533e-06	-2.889532e-09	-2.375419e+01	-1.902512e+02
2.710000e-06	-3.490962e-06	-3.044748e-09	-2.473502e+01	-2.005328e+02
2.720000e-06	-3.628021e-06	-3.192594e-09	-2.570615e+01	-2.102063e+02
2.730000e-06	-3.763798e-06	-3.335296e-09	-2.666818e+01	-2.193207e+02
2.740000e-06	-3.898289e-06	-3.471936e-09	-2.762111e+01	-2.279274e+02
2.750000e-06	-4.031378e-06	-3.597620e-09	-2.856411e+01	-2.360754e+02
2.760000e-06	-4.162964e-06	-3.713970e-09	-2.949645e+01	-2.438078e+02
2.770000e-06	-4.293100e-06	-3.826468e-09	-3.041853e+01	-2.511601e+02
2.780000e-06	-4.421804e-06	-3.935670e-09	-3.133045e+01	-2.581598e+02
2.790000e-06	-4.549011e-06	-4.039092e-09	-3.223177e+01	-2.648267e+02
2.800000e-06	-4.674696e-06	-4.133973e-09	-3.312231e+01	-2.711755e+02
2.810000e-06	-4.798652e-06	-4.222555e-09	-3.400059e+01	-2.772177e+02
2.820000e-06	-4.920887e-06	-4.306191e-09	-3.486668e+01	-2.829641e+02
2.830000e-06	-5.041435e-06	-4.388289e-09	-3.572082e+01	-2.884270e+02
2.840000e-06	-5.160051e-06	-4.469463e-09	-3.656126e+01	-2.936211e+02
2.850000e-06	-5.276535e-06	-4.547243e-09	-3.738660e+01	-2.985645e+02
2.860000e-06	-5.390865e-06	-4.620748e-09	-3.819668e+01	-3.032775e+02
2.870000e-06	-5.502976e-06	-4.691492e-09	-3.899103e+01	-3.077819e+02
2.880000e-06	-5.612929e-06	-4.762803e-09	-3.977010e+01	-3.120987e+02
2.890000e-06	-5.720921e-06	-4.832728e-09	-4.053527e+01	-3.162465e+02
2.900000e-06	-5.826995e-06	-4.897673e-09	-4.128686e+01	-3.202394e+02
2.910000e-06	-5.931017e-06	-4.956746e-09	-4.202390e+01	-3.240860e+02
2.920000e-06	-6.032804e-06	-5.011035e-09	-4.274511e+01	-3.277886e+02
2.930000e-06	-6.132325e-06	-5.064121e-09	-4.345025e+01	-3.313439e+02
2.940000e-06	-6.229635e-06	-5.116124e-09	-4.413974e+01	-3.347441e+02
