# Temperatura_=_39.31
# Concentracion g/m^3_=_5000.0
# C_Vs_to_Am_M_A/Vsm_=_65563218390.804596
# pendiente_HvsI_1/m_=_3716.3
# ordenada_HvsI_A/m_=_1297.0
# frecuencia_Hz_=_302576.7519532134

Tiempo_(s)	Campo_(V.s)	Magnetizacion_(V.s)	Campo_(kA/m)	Magnetizacion_(A/m)
0.000000e+00	-7.929340e-06	-5.491322e-09	-5.685474e+01	-3.600932e+02
1.000000e-08	-7.926318e-06	-5.487426e-09	-5.683307e+01	-3.598585e+02
2.000000e-08	-7.920653e-06	-5.482138e-09	-5.679246e+01	-3.595672e+02
3.000000e-08	-7.912411e-06	-5.476267e-09	-5.673336e+01	-3.592409e+02
4.000000e-08	-7.901396e-06	-5.470620e-09	-5.665438e+01	-3.589011e+02
5.000000e-08	-7.887407e-06	-5.465441e-09	-5.655407e+01	-3.585656e+02
6.000000e-08	-7.870540e-06	-5.461563e-09	-5.643314e+01	-3.582461e+02
7.000000e-08	-7.851265e-06	-5.457651e-09	-5.629493e+01	-3.579459e+02
8.000000e-08	-7.829702e-06	-5.471007e-09	-5.614032e+01	-3.576593e+02
9.000000e-08	-7.805258e-06	-5.465413e-09	-5.596505e+01	-3.573710e+02
1.000000e-07	-7.777553e-06	-5.473471e-09	-5.576640e+01	-3.570586e+02
1.100000e-07	-7.746842e-06	-5.471470e-09	-5.554620e+01	-3.566945e+02
1.200000e-07	-7.713374e-06	-5.429933e-09	-5.530622e+01	-3.562492e+02
1.300000e-07	-7.677288e-06	-5.374909e-09	-5.504748e+01	-3.556954e+02
1.400000e-07	-7.638886e-06	-5.329127e-09	-5.477213e+01	-3.550107e+02
1.500000e-07	-7.598381e-06	-5.377757e-09	-5.448171e+01	-3.541809e+02
1.600000e-07	-7.555479e-06	-5.401411e-09	-5.417409e+01	-3.532011e+02
1.700000e-07	-7.509878e-06	-5.406315e-09	-5.384712e+01	-3.520768e+02
1.800000e-07	-7.461660e-06	-5.422260e-09	-5.350139e+01	-3.508226e+02
1.900000e-07	-7.410489e-06	-5.331989e-09	-5.313449e+01	-3.494606e+02
2.000000e-07	-7.356225e-06	-5.285052e-09	-5.274541e+01	-3.480174e+02
2.100000e-07	-7.299168e-06	-5.268833e-09	-5.233630e+01	-3.465207e+02
2.200000e-07	-7.239489e-06	-5.265326e-09	-5.190839e+01	-3.449964e+02
2.300000e-07	-7.177308e-06	-5.263206e-09	-5.146254e+01	-3.434653e+02
2.400000e-07	-7.112475e-06	-5.213304e-09	-5.099767e+01	-3.419412e+02
2.500000e-07	-7.044852e-06	-5.217776e-09	-5.051281e+01	-3.404298e+02
2.600000e-07	-6.974545e-06	-5.208587e-09	-5.000869e+01	-3.389284e+02
2.700000e-07	-6.901521e-06	-5.209377e-09	-4.948510e+01	-3.374275e+02
2.800000e-07	-6.825713e-06	-5.176319e-09	-4.894154e+01	-3.359122e+02
2.900000e-07	-6.747141e-06	-5.148729e-09	-4.837817e+01	-3.343644e+02
3.000000e-07	-6.665894e-06	-5.125789e-09	-4.779561e+01	-3.327659e+02
3.100000e-07	-6.582256e-06	-5.073550e-09	-4.719592e+01	-3.311004e+02
3.200000e-07	-6.496421e-06	-5.065998e-09	-4.658046e+01	-3.293550e+02
3.300000e-07	-6.408319e-06	-5.035704e-09	-4.594875e+01	-3.275217e+02
3.400000e-07	-6.317834e-06	-4.984058e-09	-4.529996e+01	-3.255974e+02
3.500000e-07	-6.225061e-06	-4.928671e-09	-4.463477e+01	-3.235833e+02
3.600000e-07	-6.130081e-06	-4.917035e-09	-4.395374e+01	-3.214840e+02
3.700000e-07	-6.032884e-06	-4.903619e-09	-4.325682e+01	-3.193058e+02
3.800000e-07	-5.933447e-06	-4.868504e-09	-4.254384e+01	-3.170550e+02
3.900000e-07	-5.831875e-06	-4.848640e-09	-4.181555e+01	-3.147366e+02
4.000000e-07	-5.728250e-06	-4.805480e-09	-4.107254e+01	-3.123534e+02
4.100000e-07	-5.622580e-06	-4.745770e-09	-4.031487e+01	-3.099050e+02
4.200000e-07	-5.514917e-06	-4.696005e-09	-3.954291e+01	-3.073880e+02
4.300000e-07	-5.405290e-06	-4.685324e-09	-3.875687e+01	-3.047967e+02
4.400000e-07	-5.293828e-06	-4.649748e-09	-3.795767e+01	-3.021239e+02
4.500000e-07	-5.180395e-06	-4.589030e-09	-3.714433e+01	-2.993618e+02
4.600000e-07	-5.064821e-06	-4.536401e-09	-3.631564e+01	-2.965032e+02
4.700000e-07	-4.947285e-06	-4.495888e-09	-3.547289e+01	-2.935425e+02
4.800000e-07	-4.827956e-06	-4.447301e-09	-3.461728e+01	-2.904757e+02
4.900000e-07	-4.706948e-06	-4.395951e-09	-3.374963e+01	-2.873009e+02
5.000000e-07	-4.584169e-06	-4.349785e-09	-3.286929e+01	-2.840181e+02
5.100000e-07	-4.459628e-06	-4.288018e-09	-3.197630e+01	-2.806278e+02
5.200000e-07	-4.333518e-06	-4.232484e-09	-3.107208e+01	-2.771314e+02
5.300000e-07	-4.205881e-06	-4.187358e-09	-3.015689e+01	-2.735293e+02
5.400000e-07	-4.076775e-06	-4.139086e-09	-2.923118e+01	-2.698211e+02
5.500000e-07	-3.946136e-06	-4.069019e-09	-2.829448e+01	-2.660049e+02
5.600000e-07	-3.813902e-06	-4.006306e-09	-2.734633e+01	-2.620774e+02
5.700000e-07	-3.680207e-06	-3.948051e-09	-2.638772e+01	-2.580340e+02
5.800000e-07	-3.545112e-06	-3.874371e-09	-2.541907e+01	-2.538697e+02
5.900000e-07	-3.408705e-06	-3.798967e-09	-2.444100e+01	-2.495792e+02
6.000000e-07	-3.271113e-06	-3.733720e-09	-2.345444e+01	-2.451579e+02
6.100000e-07	-3.132120e-06	-3.668753e-09	-2.245784e+01	-2.406021e+02
6.200000e-07	-2.991669e-06	-3.591739e-09	-2.145079e+01	-2.359089e+02
6.300000e-07	-2.849968e-06	-3.521520e-09	-2.043476e+01	-2.310761e+02
6.400000e-07	-2.707196e-06	-3.455669e-09	-1.941107e+01	-2.261016e+02
6.500000e-07	-2.563436e-06	-3.379644e-09	-1.838028e+01	-2.209824e+02
6.600000e-07	-2.418596e-06	-3.293309e-09	-1.734175e+01	-2.157139e+02
6.700000e-07	-2.272779e-06	-3.207220e-09	-1.629622e+01	-2.102893e+02
6.800000e-07	-2.126222e-06	-3.118744e-09	-1.524538e+01	-2.046989e+02
6.900000e-07	-1.979079e-06	-3.023338e-09	-1.419034e+01	-1.989302e+02
7.000000e-07	-1.831305e-06	-2.929467e-09	-1.313077e+01	-1.929687e+02
7.100000e-07	-1.682947e-06	-2.836464e-09	-1.206702e+01	-1.867983e+02
7.200000e-07	-1.534133e-06	-2.738066e-09	-1.100000e+01	-1.804026e+02
7.300000e-07	-1.384896e-06	-2.633881e-09	-9.929946e+00	-1.737666e+02
7.400000e-07	-1.235298e-06	-2.530320e-09	-8.857300e+00	-1.668774e+02
7.500000e-07	-1.085274e-06	-2.424146e-09	-7.781601e+00	-1.597253e+02
7.600000e-07	-9.348542e-07	-2.313008e-09	-6.703066e+00	-1.523036e+02
7.700000e-07	-7.841000e-07	-2.194758e-09	-5.622132e+00	-1.446080e+02
7.800000e-07	-6.330798e-07	-2.070902e-09	-4.539292e+00	-1.366356e+02
7.900000e-07	-4.818533e-07	-1.941832e-09	-3.454972e+00	-1.283827e+02
8.000000e-07	-3.304161e-07	-1.809077e-09	-2.369141e+00	-1.198427e+02
8.100000e-07	-1.788541e-07	-1.673382e-09	-1.282415e+00	-1.110040e+02
8.200000e-07	-2.720417e-08	-1.531193e-09	-1.950586e-01	-1.018482e+02
8.300000e-07	1.245267e-07	-1.384768e-09	8.928781e-01	-9.234964e+01
8.400000e-07	2.762374e-07	-1.231303e-09	1.980670e+00	-8.247552e+01
8.500000e-07	4.279017e-07	-1.072196e-09	3.068129e+00	-7.218801e+01
8.600000e-07	5.794711e-07	-9.070820e-10	4.154908e+00	-6.144744e+01
8.700000e-07	7.308505e-07	-7.370440e-10	5.240324e+00	-5.021679e+01
8.800000e-07	8.819923e-07	-5.614334e-10	6.324037e+00	-3.846700e+01
8.900000e-07	1.032837e-06	-3.771849e-10	7.405618e+00	-2.618250e+01
9.000000e-07	1.183380e-06	-1.858369e-10	8.485040e+00	-1.336640e+01
9.100000e-07	1.333530e-06	1.297918e-11	9.561644e+00	-4.461205e-02
9.200000e-07	1.483156e-06	2.218749e-10	1.063448e+01	1.373173e+01
9.300000e-07	1.632281e-06	4.421461e-10	1.170373e+01	2.788587e+01
9.400000e-07	1.780906e-06	6.648236e-10	1.276940e+01	4.231733e+01
9.500000e-07	1.928951e-06	8.850933e-10	1.383092e+01	5.690611e+01
9.600000e-07	2.076304e-06	1.108863e-09	1.488746e+01	7.151883e+01
9.700000e-07	2.222781e-06	1.334190e-09	1.593772e+01	8.601624e+01
9.800000e-07	2.368377e-06	1.551533e-09	1.698167e+01	1.002615e+02
9.900000e-07	2.513116e-06	1.758522e-09	1.801948e+01	1.141281e+02
1.000000e-06	2.656874e-06	1.956701e-09	1.905024e+01	1.275074e+02
1.010000e-06	2.799596e-06	2.150062e-09	2.007358e+01	1.403135e+02
1.020000e-06	2.941221e-06	2.334537e-09	2.108906e+01	1.524875e+02
1.030000e-06	3.081660e-06	2.506028e-09	2.209603e+01	1.639978e+02
1.040000e-06	3.220831e-06	2.668197e-09	2.309391e+01	1.748388e+02
1.050000e-06	3.358668e-06	2.820711e-09	2.408223e+01	1.850278e+02
1.060000e-06	3.495258e-06	2.967590e-09	2.506160e+01	1.945996e+02
1.070000e-06	3.630582e-06	3.106370e-09	2.603190e+01	2.036007e+02
1.080000e-06	3.764551e-06	3.239349e-09	2.699248e+01	2.120832e+02
1.090000e-06	3.897233e-06	3.365756e-09	2.794383e+01	2.200991e+02
1.100000e-06	4.028482e-06	3.484509e-09	2.888491e+01	2.276961e+02
1.110000e-06	4.158172e-06	3.599013e-09	2.981481e+01	2.349141e+02
1.120000e-06	4.286446e-06	3.705281e-09	3.073456e+01	2.417847e+02
1.130000e-06	4.413307e-06	3.802637e-09	3.164417e+01	2.483306e+02
1.140000e-06	4.538677e-06	3.891325e-09	3.254310e+01	2.545675e+02
1.150000e-06	4.662501e-06	3.976847e-09	3.343094e+01	2.605068e+02
1.160000e-06	4.784598e-06	4.062175e-09	3.430640e+01	2.661576e+02
1.170000e-06	4.904999e-06	4.143815e-09	3.516969e+01	2.715296e+02
1.180000e-06	5.023687e-06	4.220539e-09	3.602070e+01	2.766351e+02
1.190000e-06	5.140469e-06	4.294650e-09	3.685805e+01	2.814893e+02
1.200000e-06	5.255228e-06	4.368966e-09	3.768090e+01	2.861111e+02
1.210000e-06	5.367958e-06	4.442263e-09	3.848919e+01	2.905211e+02
1.220000e-06	5.478754e-06	4.509682e-09	3.928361e+01	2.947406e+02
1.230000e-06	5.587676e-06	4.568390e-09	4.006460e+01	2.987890e+02
1.240000e-06	5.694651e-06	4.622528e-09	4.083163e+01	3.026820e+02
1.250000e-06	5.799467e-06	4.675939e-09	4.158318e+01	3.064300e+02
1.260000e-06	5.902102e-06	4.728202e-09	4.231909e+01	3.100371e+02
1.270000e-06	6.002581e-06	4.779244e-09	4.303955e+01	3.135013e+02
1.280000e-06	6.100804e-06	4.827188e-09	4.374382e+01	3.168157e+02
1.290000e-06	6.196727e-06	4.872817e-09	4.443161e+01	3.199702e+02
1.300000e-06	6.290465e-06	4.918532e-09	4.510372e+01	3.229541e+02
1.310000e-06	6.382004e-06	4.963005e-09	4.576007e+01	3.257585e+02
1.320000e-06	6.471212e-06	5.003135e-09	4.639971e+01	3.283787e+02
1.330000e-06	6.558076e-06	5.038880e-09	4.702254e+01	3.308157e+02
1.340000e-06	6.642714e-06	5.071294e-09	4.762941e+01	3.330770e+02
1.350000e-06	6.724971e-06	5.103058e-09	4.821920e+01	3.351765e+02
1.360000e-06	6.804694e-06	5.134058e-09	4.879083e+01	3.371331e+02
1.370000e-06	6.881944e-06	5.162706e-09	4.934473e+01	3.389686e+02
1.380000e-06	6.956562e-06	5.190542e-09	4.987976e+01	3.407053e+02
1.390000e-06	7.028591e-06	5.217969e-09	5.039622e+01	3.423632e+02
1.400000e-06	7.098179e-06	5.244137e-09	5.089517e+01	3.439581e+02
1.410000e-06	7.165177e-06	5.269315e-09	5.137556e+01	3.454996e+02
1.420000e-06	7.229577e-06	5.291823e-09	5.183732e+01	3.469903e+02
1.430000e-06	7.291544e-06	5.311169e-09	5.228164e+01	3.484269e+02
1.440000e-06	7.351034e-06	5.329291e-09	5.270819e+01	3.498005e+02
1.450000e-06	7.407943e-06	5.346694e-09	5.311623e+01	3.510993e+02
1.460000e-06	7.462157e-06	5.363120e-09	5.350496e+01	3.523111e+02
1.470000e-06	7.513430e-06	5.377232e-09	5.387259e+01	3.534252e+02
1.480000e-06	7.561680e-06	5.391503e-09	5.421855e+01	3.544352e+02
1.490000e-06	7.607202e-06	5.406239e-09	5.454495e+01	3.553398e+02
1.500000e-06	7.650076e-06	5.420311e-09	5.485237e+01	3.561438e+02
1.510000e-06	7.690149e-06	5.434629e-09	5.513970e+01	3.568568e+02
1.520000e-06	7.727510e-06	5.448225e-09	5.540759e+01	3.574928e+02
1.530000e-06	7.762144e-06	5.459222e-09	5.565592e+01	3.580671e+02
1.540000e-06	7.793919e-06	5.466161e-09	5.588375e+01	3.585944e+02
1.550000e-06	7.823001e-06	5.470674e-09	5.609227e+01	3.590863e+02
1.560000e-06	7.849278e-06	5.475880e-09	5.628068e+01	3.595495e+02
1.570000e-06	7.872612e-06	5.483298e-09	5.644799e+01	3.599847e+02
1.580000e-06	7.893231e-06	5.490394e-09	5.659583e+01	3.603865e+02
1.590000e-06	7.911095e-06	5.494897e-09	5.672392e+01	3.607443e+02
1.600000e-06	7.925994e-06	5.499390e-09	5.683075e+01	3.610443e+02
1.610000e-06	7.937779e-06	5.503938e-09	5.691525e+01	3.612719e+02
1.620000e-06	7.946413e-06	5.506543e-09	5.697716e+01	3.614141e+02
1.630000e-06	7.952157e-06	5.507725e-09	5.701834e+01	3.614626e+02
1.640000e-06	7.955170e-06	5.508744e-09	5.703995e+01	3.614149e+02
1.650000e-06	7.955387e-06	5.505770e-09	5.704150e+01	3.612761e+02
1.660000e-06	7.952965e-06	5.502890e-09	5.702413e+01	3.610581e+02
1.670000e-06	7.947940e-06	5.498286e-09	5.698810e+01	3.607784e+02
1.680000e-06	7.940211e-06	5.494630e-09	5.693269e+01	3.604583e+02
1.690000e-06	7.929868e-06	5.491402e-09	5.685853e+01	3.601194e+02
1.700000e-06	7.916682e-06	5.488382e-09	5.676398e+01	3.597809e+02
1.710000e-06	7.900733e-06	5.485970e-09	5.664962e+01	3.594562e+02
1.720000e-06	7.882505e-06	5.480615e-09	5.651892e+01	3.591508e+02
1.730000e-06	7.862024e-06	5.452613e-09	5.637207e+01	3.588613e+02
1.740000e-06	7.838686e-06	5.445877e-09	5.620474e+01	3.585748e+02
1.750000e-06	7.811782e-06	5.421673e-09	5.601183e+01	3.582703e+02
1.760000e-06	7.781273e-06	5.416239e-09	5.579307e+01	3.579213e+02
1.770000e-06	7.747857e-06	5.443176e-09	5.555348e+01	3.574985e+02
1.780000e-06	7.712223e-06	5.493509e-09	5.529797e+01	3.569736e+02
1.790000e-06	7.674309e-06	5.459944e-09	5.502612e+01	3.563228e+02
1.800000e-06	7.634319e-06	5.443192e-09	5.473939e+01	3.555295e+02
1.810000e-06	7.592093e-06	5.437974e-09	5.443662e+01	3.545865e+02
1.820000e-06	7.547181e-06	5.335932e-09	5.411460e+01	3.534968e+02
1.830000e-06	7.499682e-06	5.400649e-09	5.377402e+01	3.522727e+02
1.840000e-06	7.449310e-06	5.377992e-09	5.341284e+01	3.509347e+02
1.850000e-06	7.395952e-06	5.359407e-09	5.303025e+01	3.495086e+02
1.860000e-06	7.339755e-06	5.329769e-09	5.262731e+01	3.480222e+02
1.870000e-06	7.280860e-06	5.226843e-09	5.220502e+01	3.465021e+02
1.880000e-06	7.219429e-06	5.234962e-09	5.176456e+01	3.449705e+02
1.890000e-06	7.155240e-06	5.175377e-09	5.130431e+01	3.434433e+02
1.900000e-06	7.088284e-06	5.185150e-09	5.082422e+01	3.419280e+02
1.910000e-06	7.018546e-06	5.176720e-09	5.032419e+01	3.404243e+02
1.920000e-06	6.946046e-06	5.135026e-09	4.980435e+01	3.389240e+02
1.930000e-06	6.870907e-06	5.100366e-09	4.926559e+01	3.374133e+02
1.940000e-06	6.792958e-06	5.058591e-09	4.870668e+01	3.358748e+02
1.950000e-06	6.712373e-06	5.099331e-09	4.812888e+01	3.342901e+02
1.960000e-06	6.629377e-06	5.053374e-09	4.753378e+01	3.326421e+02
1.970000e-06	6.543965e-06	5.008159e-09	4.692136e+01	3.309171e+02
1.980000e-06	6.456049e-06	4.976753e-09	4.629099e+01	3.291057e+02
1.990000e-06	6.365831e-06	4.959815e-09	4.564411e+01	3.272037e+02
2.000000e-06	6.273554e-06	4.933525e-09	4.498247e+01	3.252111e+02
2.010000e-06	6.178953e-06	4.897946e-09	4.430416e+01	3.231320e+02
2.020000e-06	6.082005e-06	4.887115e-09	4.360903e+01	3.209723e+02
2.030000e-06	5.982975e-06	4.821164e-09	4.289897e+01	3.187386e+02
2.040000e-06	5.881937e-06	4.779163e-09	4.217451e+01	3.164362e+02
2.050000e-06	5.778732e-06	4.768434e-09	4.143451e+01	3.140686e+02
2.060000e-06	5.673426e-06	4.770494e-09	4.067945e+01	3.116361e+02
2.070000e-06	5.566248e-06	4.707877e-09	3.991096e+01	3.091362e+02
2.080000e-06	5.457201e-06	4.639887e-09	3.912907e+01	3.065635e+02
2.090000e-06	5.346161e-06	4.592352e-09	3.833290e+01	3.039113e+02
2.100000e-06	5.233060e-06	4.551725e-09	3.752194e+01	3.011717e+02
2.110000e-06	5.118033e-06	4.526088e-09	3.669718e+01	2.983373e+02
2.120000e-06	5.001087e-06	4.504223e-09	3.585866e+01	2.954019e+02
2.130000e-06	4.882118e-06	4.465462e-09	3.500563e+01	2.923614e+02
2.140000e-06	4.761243e-06	4.391193e-09	3.413894e+01	2.892131e+02
2.150000e-06	4.638729e-06	4.337817e-09	3.326049e+01	2.859567e+02
2.160000e-06	4.514563e-06	4.301417e-09	3.237020e+01	2.825926e+02
2.170000e-06	4.388676e-06	4.262026e-09	3.146757e+01	2.791221e+02
2.180000e-06	4.261076e-06	4.194124e-09	3.055265e+01	2.755459e+02
2.190000e-06	4.131971e-06	4.128116e-09	2.962695e+01	2.718638e+02
2.200000e-06	4.001469e-06	4.061820e-09	2.869123e+01	2.680743e+02
2.210000e-06	3.869443e-06	4.006098e-09	2.774457e+01	2.641744e+02
2.220000e-06	3.736025e-06	3.967851e-09	2.678794e+01	2.601599e+02
2.230000e-06	3.601148e-06	3.924380e-09	2.582085e+01	2.560258e+02
2.240000e-06	3.464783e-06	3.853433e-09	2.484310e+01	2.517667e+02
2.250000e-06	3.327122e-06	3.772014e-09	2.385604e+01	2.473780e+02
2.260000e-06	3.188283e-06	3.706930e-09	2.286054e+01	2.428556e+02
2.270000e-06	3.048211e-06	3.642241e-09	2.185620e+01	2.381964e+02
2.280000e-06	2.906958e-06	3.563589e-09	2.084339e+01	2.333982e+02
2.290000e-06	2.764533e-06	3.477475e-09	1.982218e+01	2.284588e+02
2.300000e-06	2.620886e-06	3.394068e-09	1.879221e+01	2.233755e+02
2.310000e-06	2.476329e-06	3.313105e-09	1.775571e+01	2.181443e+02
2.320000e-06	2.331061e-06	3.243910e-09	1.671411e+01	2.127590e+02
2.330000e-06	2.185045e-06	3.180737e-09	1.566715e+01	2.072105e+02
2.340000e-06	2.038289e-06	3.102105e-09	1.461489e+01	2.014872e+02
2.350000e-06	1.890845e-06	2.998929e-09	1.355768e+01	1.955748e+02
2.360000e-06	1.742757e-06	2.896559e-09	1.249587e+01	1.894576e+02
2.370000e-06	1.594147e-06	2.802702e-09	1.143031e+01	1.831191e+02
2.380000e-06	1.445112e-06	2.705325e-09	1.036170e+01	1.765440e+02
2.390000e-06	1.295732e-06	2.599806e-09	9.290620e+00	1.697186e+02
2.400000e-06	1.146017e-06	2.488232e-09	8.217139e+00	1.626325e+02
2.410000e-06	9.958442e-07	2.375652e-09	7.140375e+00	1.552780e+02
2.420000e-06	8.452065e-07	2.262974e-09	6.060277e+00	1.476507e+02
2.430000e-06	6.941944e-07	2.154532e-09	4.977494e+00	1.397472e+02
2.440000e-06	5.428412e-07	2.041281e-09	3.892265e+00	1.315643e+02
2.450000e-06	3.912260e-07	1.911753e-09	2.805158e+00	1.230964e+02
2.460000e-06	2.394516e-07	1.770694e-09	1.716910e+00	1.143333e+02
2.470000e-06	8.756575e-08	1.625291e-09	6.278616e-01	1.052583e+02
2.480000e-06	-6.440066e-08	1.481031e-09	-4.617638e-01	9.584773e+01
2.490000e-06	-2.163464e-07	1.334870e-09	-1.551241e+00	8.607034e+01
2.500000e-06	-3.682337e-07	1.182775e-09	-2.640299e+00	7.588934e+01
2.510000e-06	-5.200137e-07	1.022286e-09	-3.728588e+00	6.526515e+01
2.520000e-06	-6.715753e-07	8.536343e-10	-4.815311e+00	5.415960e+01
2.530000e-06	-8.229012e-07	6.794828e-10	-5.900344e+00	4.254111e+01
2.540000e-06	-9.738967e-07	4.994897e-10	-6.983008e+00	3.039026e+01
2.550000e-06	-1.124480e-06	3.084775e-10	-8.062715e+00	1.770503e+01
2.560000e-06	-1.274568e-06	1.031839e-10	-9.138876e+00	4.505328e+00
2.570000e-06	-1.424131e-06	-1.101607e-10	-1.021126e+01	-9.164141e+00
2.580000e-06	-1.573259e-06	-3.261645e-10	-1.128054e+01	-2.323293e+01
2.590000e-06	-1.721894e-06	-5.449343e-10	-1.234628e+01	-3.760618e+01
2.600000e-06	-1.869874e-06	-7.689148e-10	-1.340732e+01	-5.216829e+01
2.610000e-06	-2.017160e-06	-9.934365e-10	-1.446339e+01	-6.678854e+01
2.620000e-06	-2.163751e-06	-1.217887e-09	-1.551447e+01	-8.132840e+01
2.630000e-06	-2.309519e-06	-1.440664e-09	-1.655965e+01	-9.564962e+01
2.640000e-06	-2.454434e-06	-1.655228e-09	-1.759872e+01	-1.096225e+02
2.650000e-06	-2.598561e-06	-1.860563e-09	-1.863213e+01	-1.231331e+02
2.660000e-06	-2.741591e-06	-2.059184e-09	-1.965768e+01	-1.360897e+02
2.670000e-06	-2.883273e-06	-2.251336e-09	-2.067357e+01	-1.484263e+02
2.680000e-06	-3.023775e-06	-2.430428e-09	-2.168099e+01	-1.601046e+02
2.690000e-06	-3.163116e-06	-2.595322e-09	-2.268009e+01	-1.711126e+02
2.700000e-06	-3.301222e-06	-2.749522e-09	-2.367033e+01	-1.814625e+02
2.710000e-06	-3.438187e-06	-2.894993e-09	-2.465239e+01	-1.911852e+02
2.720000e-06	-3.573895e-06	-3.034151e-09	-2.562544e+01	-2.003247e+02
2.730000e-06	-3.708131e-06	-3.167334e-09	-2.658794e+01	-2.089325e+02
2.740000e-06	-3.841061e-06	-3.296257e-09	-2.754107e+01	-2.170609e+02
2.750000e-06	-3.972684e-06	-3.418380e-09	-2.848483e+01	-2.247590e+02
2.760000e-06	-4.102870e-06	-3.531768e-09	-2.941829e+01	-2.320691e+02
2.770000e-06	-4.231754e-06	-3.638973e-09	-3.034241e+01	-2.390246e+02
2.780000e-06	-4.359188e-06	-3.738393e-09	-3.125613e+01	-2.456505e+02
2.790000e-06	-4.485008e-06	-3.831308e-09	-3.215828e+01	-2.519641e+02
2.800000e-06	-4.609384e-06	-3.917663e-09	-3.305008e+01	-2.579774e+02
2.810000e-06	-4.732159e-06	-4.000550e-09	-3.393040e+01	-2.637000e+02
2.820000e-06	-4.853204e-06	-4.081207e-09	-3.479831e+01	-2.691413e+02
2.830000e-06	-4.972407e-06	-4.161038e-09	-3.565302e+01	-2.743126e+02
2.840000e-06	-5.089603e-06	-4.239618e-09	-3.649333e+01	-2.792286e+02
2.850000e-06	-5.204774e-06	-4.313046e-09	-3.731913e+01	-2.839071e+02
2.860000e-06	-5.317734e-06	-4.382624e-09	-3.812907e+01	-2.883686e+02
2.870000e-06	-5.428587e-06	-4.451061e-09	-3.892391e+01	-2.926343e+02
2.880000e-06	-5.537570e-06	-4.519059e-09	-3.970534e+01	-2.967244e+02
2.890000e-06	-5.644682e-06	-4.582717e-09	-4.047335e+01	-3.006556e+02
2.900000e-06	-5.749822e-06	-4.641400e-09	-4.122722e+01	-3.044398e+02
2.910000e-06	-5.852845e-06	-4.695757e-09	-4.196591e+01	-3.080826e+02
2.920000e-06	-5.953610e-06	-4.747642e-09	-4.268842e+01	-3.115836e+02
2.930000e-06	-6.052183e-06	-4.797968e-09	-4.339520e+01	-3.149368e+02
2.940000e-06	-6.148714e-06	-4.846315e-09	-4.408735e+01	-3.181329e+02
