# Temperatura_=_43.13
# Concentracion g/m^3_=_5000.0
# C_Vs_to_Am_M_A/Vsm_=_65563218390.804596
# pendiente_HvsI_1/m_=_3716.3
# ordenada_HvsI_A/m_=_1297.0
# frecuencia_Hz_=_302573.52520533866

Tiempo_(s)	Campo_(V.s)	Magnetizacion_(V.s)	Campo_(kA/m)	Magnetizacion_(A/m)
0.000000e+00	-7.962695e-06	-5.742803e-09	-5.685532e+01	-3.756846e+02
1.000000e-08	-7.959460e-06	-5.742168e-09	-5.683222e+01	-3.754484e+02
2.000000e-08	-7.953634e-06	-5.735563e-09	-5.679062e+01	-3.751319e+02
3.000000e-08	-7.945188e-06	-5.729567e-09	-5.673032e+01	-3.747551e+02
4.000000e-08	-7.933830e-06	-5.724855e-09	-5.664922e+01	-3.743405e+02
5.000000e-08	-7.919497e-06	-5.717746e-09	-5.654688e+01	-3.739098e+02
6.000000e-08	-7.902335e-06	-5.708084e-09	-5.642433e+01	-3.734816e+02
7.000000e-08	-7.882774e-06	-5.693976e-09	-5.628467e+01	-3.730686e+02
8.000000e-08	-7.860941e-06	-5.709485e-09	-5.612877e+01	-3.726756e+02
9.000000e-08	-7.836153e-06	-5.739755e-09	-5.595178e+01	-3.722990e+02
1.000000e-07	-7.808052e-06	-5.732498e-09	-5.575113e+01	-3.719266e+02
1.100000e-07	-7.776987e-06	-5.708822e-09	-5.552932e+01	-3.715391e+02
1.200000e-07	-7.743203e-06	-5.676313e-09	-5.528810e+01	-3.711122e+02
1.300000e-07	-7.706797e-06	-5.619822e-09	-5.502815e+01	-3.706191e+02
1.400000e-07	-7.668074e-06	-5.548186e-09	-5.475166e+01	-3.700338e+02
1.500000e-07	-7.627230e-06	-5.566962e-09	-5.446003e+01	-3.693337e+02
1.600000e-07	-7.583996e-06	-5.667653e-09	-5.415132e+01	-3.685019e+02
1.700000e-07	-7.538024e-06	-5.633514e-09	-5.382308e+01	-3.675294e+02
1.800000e-07	-7.489316e-06	-5.618458e-09	-5.347529e+01	-3.664148e+02
1.900000e-07	-7.437627e-06	-5.583332e-09	-5.310623e+01	-3.651648e+02
2.000000e-07	-7.382936e-06	-5.501805e-09	-5.271571e+01	-3.637926e+02
2.100000e-07	-7.325538e-06	-5.495500e-09	-5.230588e+01	-3.623161e+02
2.200000e-07	-7.265429e-06	-5.497394e-09	-5.187669e+01	-3.607555e+02
2.300000e-07	-7.202712e-06	-5.502047e-09	-5.142888e+01	-3.591308e+02
2.400000e-07	-7.137368e-06	-5.427863e-09	-5.096231e+01	-3.574597e+02
2.500000e-07	-7.069293e-06	-5.400895e-09	-5.047624e+01	-3.557553e+02
2.600000e-07	-6.998507e-06	-5.423582e-09	-4.997081e+01	-3.540258e+02
2.700000e-07	-6.924942e-06	-5.419259e-09	-4.944554e+01	-3.522733e+02
2.800000e-07	-6.848538e-06	-5.377606e-09	-4.890000e+01	-3.504944e+02
2.900000e-07	-6.769378e-06	-5.335727e-09	-4.833478e+01	-3.486812e+02
3.000000e-07	-6.687616e-06	-5.317872e-09	-4.775099e+01	-3.468229e+02
3.100000e-07	-6.603506e-06	-5.275476e-09	-4.715042e+01	-3.449067e+02
3.200000e-07	-6.517185e-06	-5.252344e-09	-4.653407e+01	-3.429203e+02
3.300000e-07	-6.428530e-06	-5.232779e-09	-4.590106e+01	-3.408525e+02
3.400000e-07	-6.337536e-06	-5.175042e-09	-4.525134e+01	-3.386947e+02
3.500000e-07	-6.244284e-06	-5.115166e-09	-4.458550e+01	-3.364414e+02
3.600000e-07	-6.148765e-06	-5.088625e-09	-4.390348e+01	-3.340903e+02
3.700000e-07	-6.050970e-06	-5.078843e-09	-4.320520e+01	-3.316418e+02
3.800000e-07	-5.950982e-06	-5.051633e-09	-4.249127e+01	-3.290987e+02
3.900000e-07	-5.848851e-06	-5.016657e-09	-4.176203e+01	-3.264651e+02
4.000000e-07	-5.744605e-06	-4.960174e-09	-4.101769e+01	-3.237456e+02
4.100000e-07	-5.638353e-06	-4.890663e-09	-4.025903e+01	-3.209444e+02
4.200000e-07	-5.530149e-06	-4.850018e-09	-3.948643e+01	-3.180648e+02
4.300000e-07	-5.420017e-06	-4.834009e-09	-3.870006e+01	-3.151085e+02
4.400000e-07	-5.307870e-06	-4.789293e-09	-3.789931e+01	-3.120756e+02
4.500000e-07	-5.193668e-06	-4.722427e-09	-3.708388e+01	-3.089645e+02
4.600000e-07	-5.077438e-06	-4.669080e-09	-3.625398e+01	-3.057719e+02
4.700000e-07	-4.959288e-06	-4.618484e-09	-3.541036e+01	-3.024935e+02
4.800000e-07	-4.839321e-06	-4.561752e-09	-3.455377e+01	-2.991238e+02
4.900000e-07	-4.717602e-06	-4.516060e-09	-3.368467e+01	-2.956570e+02
5.000000e-07	-4.594157e-06	-4.469849e-09	-3.280324e+01	-2.920871e+02
5.100000e-07	-4.469050e-06	-4.398965e-09	-3.190995e+01	-2.884083e+02
5.200000e-07	-4.342362e-06	-4.334517e-09	-3.100538e+01	-2.846151e+02
5.300000e-07	-4.214060e-06	-4.293899e-09	-3.008927e+01	-2.807031e+02
5.400000e-07	-4.084266e-06	-4.240191e-09	-2.916252e+01	-2.766684e+02
5.500000e-07	-3.952934e-06	-4.157514e-09	-2.822478e+01	-2.725086e+02
5.600000e-07	-3.820078e-06	-4.086478e-09	-2.727616e+01	-2.682222e+02
5.700000e-07	-3.685783e-06	-4.026480e-09	-2.631727e+01	-2.638090e+02
5.800000e-07	-3.550036e-06	-3.949160e-09	-2.534801e+01	-2.592697e+02
5.900000e-07	-3.412959e-06	-3.867420e-09	-2.436925e+01	-2.546058e+02
6.000000e-07	-3.274638e-06	-3.804035e-09	-2.338161e+01	-2.498189e+02
6.100000e-07	-3.134890e-06	-3.736150e-09	-2.238377e+01	-2.449100e+02
6.200000e-07	-2.993612e-06	-3.648869e-09	-2.137502e+01	-2.398791e+02
6.300000e-07	-2.851093e-06	-3.570510e-09	-2.035740e+01	-2.347242e+02
6.400000e-07	-2.707567e-06	-3.505088e-09	-1.933260e+01	-2.294407e+02
6.500000e-07	-2.563104e-06	-3.426076e-09	-1.830110e+01	-2.240210e+02
6.600000e-07	-2.417645e-06	-3.329672e-09	-1.726249e+01	-2.184543e+02
6.700000e-07	-2.271301e-06	-3.236672e-09	-1.621757e+01	-2.127268e+02
6.800000e-07	-2.124268e-06	-3.143729e-09	-1.516772e+01	-2.068222e+02
6.900000e-07	-1.976544e-06	-3.044502e-09	-1.411294e+01	-2.007231e+02
7.000000e-07	-1.828203e-06	-2.944766e-09	-1.305375e+01	-1.944117e+02
7.100000e-07	-1.679300e-06	-2.848876e-09	-1.199056e+01	-1.878715e+02
7.200000e-07	-1.529924e-06	-2.747815e-09	-1.092398e+01	-1.810884e+02
7.300000e-07	-1.380081e-06	-2.636659e-09	-9.854071e+00	-1.740516e+02
7.400000e-07	-1.229768e-06	-2.524132e-09	-8.780801e+00	-1.667540e+02
7.500000e-07	-1.079066e-06	-2.412375e-09	-7.704755e+00	-1.591921e+02
7.600000e-07	-9.279535e-07	-2.299108e-09	-6.625784e+00	-1.513650e+02
7.700000e-07	-7.764657e-07	-2.176315e-09	-5.544128e+00	-1.432727e+02
7.800000e-07	-6.247076e-07	-2.045990e-09	-4.460543e+00	-1.349140e+02
7.900000e-07	-4.726903e-07	-1.911948e-09	-3.375108e+00	-1.262844e+02
8.000000e-07	-3.204903e-07	-1.774005e-09	-2.288368e+00	-1.173736e+02
8.100000e-07	-1.682183e-07	-1.630429e-09	-1.201114e+00	-1.081640e+02
8.200000e-07	-1.585397e-08	-1.480936e-09	-1.132007e-01	-9.862972e+01
8.300000e-07	1.365470e-07	-1.327024e-09	9.749743e-01	-8.873714e+01
8.400000e-07	2.889707e-07	-1.167478e-09	2.063311e+00	-7.844633e+01
8.500000e-07	4.413559e-07	-1.002005e-09	3.151374e+00	-6.771425e+01
8.600000e-07	5.935969e-07	-8.311117e-10	4.238407e+00	-5.649897e+01
8.700000e-07	7.456628e-07	-6.571412e-10	5.324190e+00	-4.476480e+01
8.800000e-07	8.975254e-07	-4.751602e-10	6.408520e+00	-3.248778e+01
8.900000e-07	1.049094e-06	-2.822496e-10	7.490755e+00	-1.966101e+01
9.000000e-07	1.200236e-06	-8.052091e-11	8.569936e+00	-6.299135e+00
9.100000e-07	1.350937e-06	1.257877e-10	9.645971e+00	7.558592e+00
9.200000e-07	1.501149e-06	3.409140e-10	1.071852e+01	2.184708e+01
9.300000e-07	1.650802e-06	5.672419e-10	1.178707e+01	3.647634e+01
9.400000e-07	1.799907e-06	7.973279e-10	1.285172e+01	5.133460e+01
9.500000e-07	1.948403e-06	1.029035e-09	1.391200e+01	6.629352e+01
9.600000e-07	2.096208e-06	1.259851e-09	1.496736e+01	8.121489e+01
9.700000e-07	2.243217e-06	1.484420e-09	1.601704e+01	9.595847e+01
9.800000e-07	2.389345e-06	1.698286e-09	1.706043e+01	1.103900e+02
9.900000e-07	2.534578e-06	1.906520e-09	1.809742e+01	1.243890e+02
1.000000e-06	2.678873e-06	2.110555e-09	1.912772e+01	1.378546e+02
1.010000e-06	2.822181e-06	2.307187e-09	2.015097e+01	1.507107e+02
1.020000e-06	2.964386e-06	2.491590e-09	2.116634e+01	1.629083e+02
1.030000e-06	3.105369e-06	2.662869e-09	2.217299e+01	1.744252e+02
1.040000e-06	3.245056e-06	2.826230e-09	2.317038e+01	1.852645e+02
1.050000e-06	3.383402e-06	2.980249e-09	2.415820e+01	1.954500e+02
1.060000e-06	3.520464e-06	3.127261e-09	2.513685e+01	2.050218e+02
1.070000e-06	3.656222e-06	3.264310e-09	2.610620e+01	2.140295e+02
1.080000e-06	3.790606e-06	3.395264e-09	2.706573e+01	2.225271e+02
1.090000e-06	3.923655e-06	3.521388e-09	2.801572e+01	2.305672e+02
1.100000e-06	4.055292e-06	3.641707e-09	2.895564e+01	2.381973e+02
1.110000e-06	4.185416e-06	3.757732e-09	2.988475e+01	2.454572e+02
1.120000e-06	4.314137e-06	3.864283e-09	3.080385e+01	2.523778e+02
1.130000e-06	4.441384e-06	3.961951e-09	3.171242e+01	2.589815e+02
1.140000e-06	4.567097e-06	4.053452e-09	3.261003e+01	2.652839e+02
1.150000e-06	4.691311e-06	4.142834e-09	3.349695e+01	2.712964e+02
1.160000e-06	4.813864e-06	4.228771e-09	3.437200e+01	2.770281e+02
1.170000e-06	4.934615e-06	4.308895e-09	3.523419e+01	2.824889e+02
1.180000e-06	5.053526e-06	4.384559e-09	3.608324e+01	2.876904e+02
1.190000e-06	5.170662e-06	4.460070e-09	3.691961e+01	2.926477e+02
1.200000e-06	5.285815e-06	4.537811e-09	3.774183e+01	2.973785e+02
1.210000e-06	5.398899e-06	4.614913e-09	3.854928e+01	3.019027e+02
1.220000e-06	5.510003e-06	4.684677e-09	3.934258e+01	3.062402e+02
1.230000e-06	5.619190e-06	4.744622e-09	4.012220e+01	3.104096e+02
1.240000e-06	5.726442e-06	4.799189e-09	4.088800e+01	3.144258e+02
1.250000e-06	5.831539e-06	4.852972e-09	4.163841e+01	3.182987e+02
1.260000e-06	5.934437e-06	4.908355e-09	4.237313e+01	3.220325e+02
1.270000e-06	6.035168e-06	4.962564e-09	4.309237e+01	3.256256e+02
1.280000e-06	6.133584e-06	5.013410e-09	4.379508e+01	3.290715e+02
1.290000e-06	6.229682e-06	5.061434e-09	4.448124e+01	3.323607e+02
1.300000e-06	6.323625e-06	5.108731e-09	4.515202e+01	3.354829e+02
1.310000e-06	6.415392e-06	5.155590e-09	4.580725e+01	3.384291e+02
1.320000e-06	6.504830e-06	5.197428e-09	4.644585e+01	3.411939e+02
1.330000e-06	6.591847e-06	5.233108e-09	4.706718e+01	3.437770e+02
1.340000e-06	6.676584e-06	5.266576e-09	4.767222e+01	3.461845e+02
1.350000e-06	6.759070e-06	5.301428e-09	4.826118e+01	3.484279e+02
1.360000e-06	6.839076e-06	5.335440e-09	4.883245e+01	3.505239e+02
1.370000e-06	6.916545e-06	5.365662e-09	4.938559e+01	3.524924e+02
1.380000e-06	6.991352e-06	5.393562e-09	4.991972e+01	3.543540e+02
1.390000e-06	7.063460e-06	5.422400e-09	5.043459e+01	3.561282e+02
1.400000e-06	7.133099e-06	5.451275e-09	5.093183e+01	3.578304e+02
1.410000e-06	7.200244e-06	5.477734e-09	5.141125e+01	3.594711e+02
1.420000e-06	7.264776e-06	5.500521e-09	5.187203e+01	3.610547e+02
1.430000e-06	7.326769e-06	5.520756e-09	5.231467e+01	3.625796e+02
1.440000e-06	7.386373e-06	5.540005e-09	5.274026e+01	3.640393e+02
1.450000e-06	7.443396e-06	5.558452e-09	5.314741e+01	3.654238e+02
1.460000e-06	7.497629e-06	5.576005e-09	5.353465e+01	3.667222e+02
1.470000e-06	7.548872e-06	5.592312e-09	5.390053e+01	3.679246e+02
1.480000e-06	7.597013e-06	5.608930e-09	5.424427e+01	3.690244e+02
1.490000e-06	7.642430e-06	5.624146e-09	5.456856e+01	3.700192e+02
1.500000e-06	7.685192e-06	5.637027e-09	5.487389e+01	3.709123e+02
1.510000e-06	7.725153e-06	5.650828e-09	5.515922e+01	3.717117e+02
1.520000e-06	7.762419e-06	5.665960e-09	5.542530e+01	3.724295e+02
1.530000e-06	7.796964e-06	5.678143e-09	5.567197e+01	3.730797e+02
1.540000e-06	7.828676e-06	5.685997e-09	5.589840e+01	3.736765e+02
1.550000e-06	7.857681e-06	5.692316e-09	5.610549e+01	3.742318e+02
1.560000e-06	7.883844e-06	5.699525e-09	5.629231e+01	3.747534e+02
1.570000e-06	7.907057e-06	5.707525e-09	5.645805e+01	3.752435e+02
1.580000e-06	7.927559e-06	5.714662e-09	5.660444e+01	3.756985e+02
1.590000e-06	7.945286e-06	5.720684e-09	5.673101e+01	3.761094e+02
1.600000e-06	7.960031e-06	5.725689e-09	5.683630e+01	3.764630e+02
1.610000e-06	7.971704e-06	5.729845e-09	5.691964e+01	3.767442e+02
1.620000e-06	7.980259e-06	5.732897e-09	5.698073e+01	3.769384e+02
1.630000e-06	7.985917e-06	5.734850e-09	5.702113e+01	3.770337e+02
1.640000e-06	7.988755e-06	5.735613e-09	5.704139e+01	3.770236e+02
1.650000e-06	7.988770e-06	5.733984e-09	5.704150e+01	3.769080e+02
1.660000e-06	7.986149e-06	5.727836e-09	5.702278e+01	3.766940e+02
1.670000e-06	7.980839e-06	5.724045e-09	5.698487e+01	3.763953e+02
1.680000e-06	7.972845e-06	5.719717e-09	5.692779e+01	3.760311e+02
1.690000e-06	7.962212e-06	5.713945e-09	5.685187e+01	3.756233e+02
1.700000e-06	7.948727e-06	5.710942e-09	5.675558e+01	3.751942e+02
1.710000e-06	7.932541e-06	5.711775e-09	5.664001e+01	3.747634e+02
1.720000e-06	7.914070e-06	5.714315e-09	5.650812e+01	3.743453e+02
1.730000e-06	7.893311e-06	5.653845e-09	5.635990e+01	3.739468e+02
1.740000e-06	7.869618e-06	5.626941e-09	5.619073e+01	3.735664e+02
1.750000e-06	7.842343e-06	5.639963e-09	5.599598e+01	3.731940e+02
1.760000e-06	7.811512e-06	5.631742e-09	5.577584e+01	3.728119e+02
1.770000e-06	7.777812e-06	5.636118e-09	5.553522e+01	3.723968e+02
1.780000e-06	7.741856e-06	5.712668e-09	5.527848e+01	3.719223e+02
1.790000e-06	7.703605e-06	5.727602e-09	5.500536e+01	3.713618e+02
1.800000e-06	7.663287e-06	5.625310e-09	5.471748e+01	3.706917e+02
1.810000e-06	7.620675e-06	5.666152e-09	5.441323e+01	3.698936e+02
1.820000e-06	7.575351e-06	5.595409e-09	5.408960e+01	3.689561e+02
1.830000e-06	7.527439e-06	5.599135e-09	5.374750e+01	3.678762e+02
1.840000e-06	7.476541e-06	5.664072e-09	5.338408e+01	3.666585e+02
1.850000e-06	7.422655e-06	5.608572e-09	5.299932e+01	3.653149e+02
1.860000e-06	7.366068e-06	5.620209e-09	5.259527e+01	3.638621e+02
1.870000e-06	7.306789e-06	5.482336e-09	5.217201e+01	3.623201e+02
1.880000e-06	7.244825e-06	5.461258e-09	5.172958e+01	3.607092e+02
1.890000e-06	7.180068e-06	5.484133e-09	5.126720e+01	3.590477e+02
1.900000e-06	7.112579e-06	5.430183e-09	5.078531e+01	3.573502e+02
1.910000e-06	7.042291e-06	5.450012e-09	5.028344e+01	3.556260e+02
1.920000e-06	6.969251e-06	5.376894e-09	4.976192e+01	3.538788e+02
1.930000e-06	6.893562e-06	5.340672e-09	4.922148e+01	3.521066e+02
1.940000e-06	6.815089e-06	5.311326e-09	4.866117e+01	3.503024e+02
1.950000e-06	6.734037e-06	5.322783e-09	4.808244e+01	3.484560e+02
1.960000e-06	6.650552e-06	5.317848e-09	4.748634e+01	3.465550e+02
1.970000e-06	6.564622e-06	5.229899e-09	4.687278e+01	3.445868e+02
1.980000e-06	6.476215e-06	5.204498e-09	4.624154e+01	3.425397e+02
1.990000e-06	6.385465e-06	5.169509e-09	4.559357e+01	3.404045e+02
2.000000e-06	6.292608e-06	5.164292e-09	4.493055e+01	3.381750e+02
2.010000e-06	6.197440e-06	5.130333e-09	4.425102e+01	3.358478e+02
2.020000e-06	6.100011e-06	5.090871e-09	4.355537e+01	3.334230e+02
2.030000e-06	6.000432e-06	5.016605e-09	4.284435e+01	3.309028e+02
2.040000e-06	5.898754e-06	4.954764e-09	4.211835e+01	3.282908e+02
2.050000e-06	5.794968e-06	4.964104e-09	4.137729e+01	3.255919e+02
2.060000e-06	5.689142e-06	4.957043e-09	4.062167e+01	3.228102e+02
2.070000e-06	5.581438e-06	4.905492e-09	3.985264e+01	3.199495e+02
2.080000e-06	5.471757e-06	4.823949e-09	3.906950e+01	3.170118e+02
2.090000e-06	5.360053e-06	4.768083e-09	3.827191e+01	3.139976e+02
2.100000e-06	5.246354e-06	4.716014e-09	3.746007e+01	3.109058e+02
2.110000e-06	5.130631e-06	4.695946e-09	3.663379e+01	3.077335e+02
2.120000e-06	5.012923e-06	4.678579e-09	3.579332e+01	3.044764e+02
2.130000e-06	4.893234e-06	4.618897e-09	3.493872e+01	3.011296e+02
2.140000e-06	4.771669e-06	4.524441e-09	3.407072e+01	2.976871e+02
2.150000e-06	4.648425e-06	4.463844e-09	3.319074e+01	2.941431e+02
2.160000e-06	4.523521e-06	4.438915e-09	3.229889e+01	2.904915e+02
2.170000e-06	4.397042e-06	4.394108e-09	3.139581e+01	2.867269e+02
2.180000e-06	4.268941e-06	4.324526e-09	3.048114e+01	2.828444e+02
2.190000e-06	4.139249e-06	4.252059e-09	2.955511e+01	2.788402e+02
2.200000e-06	4.008004e-06	4.179694e-09	2.861799e+01	2.747113e+02
2.210000e-06	3.875259e-06	4.111771e-09	2.767017e+01	2.704561e+02
2.220000e-06	3.741129e-06	4.070153e-09	2.671245e+01	2.660741e+02
2.230000e-06	3.605539e-06	4.022465e-09	2.574431e+01	2.615657e+02
2.240000e-06	3.468581e-06	3.937551e-09	2.476640e+01	2.569323e+02
2.250000e-06	3.330288e-06	3.842074e-09	2.377896e+01	2.521755e+02
2.260000e-06	3.190715e-06	3.778239e-09	2.278238e+01	2.472965e+02
2.270000e-06	3.049924e-06	3.722444e-09	2.177710e+01	2.422957e+02
2.280000e-06	2.907978e-06	3.643253e-09	2.076357e+01	2.371717e+02
2.290000e-06	2.764853e-06	3.549967e-09	1.974163e+01	2.319204e+02
2.300000e-06	2.620607e-06	3.455783e-09	1.871168e+01	2.265352e+02
2.310000e-06	2.475474e-06	3.365536e-09	1.767540e+01	2.210059e+02
2.320000e-06	2.329611e-06	3.289074e-09	1.663391e+01	2.153195e+02
2.330000e-06	2.183004e-06	3.221065e-09	1.558710e+01	2.094603e+02
2.340000e-06	2.035530e-06	3.135383e-09	1.453411e+01	2.034110e+02
2.350000e-06	1.887349e-06	3.023873e-09	1.347607e+01	1.971538e+02
2.360000e-06	1.738582e-06	2.912736e-09	1.241384e+01	1.906717e+02
2.370000e-06	1.589238e-06	2.819465e-09	1.134749e+01	1.839500e+02
2.380000e-06	1.439443e-06	2.728538e-09	1.027792e+01	1.769769e+02
2.390000e-06	1.289321e-06	2.621314e-09	9.206023e+00	1.697444e+02
2.400000e-06	1.138871e-06	2.496989e-09	8.131779e+00	1.622483e+02
2.410000e-06	9.880470e-07	2.366812e-09	7.054864e+00	1.544870e+02
2.420000e-06	8.367634e-07	2.243633e-09	5.974667e+00	1.464605e+02
2.430000e-06	6.851363e-07	2.129005e-09	4.892017e+00	1.381681e+02
2.440000e-06	5.332725e-07	2.011128e-09	3.807678e+00	1.296064e+02
2.450000e-06	3.811496e-07	1.878242e-09	2.721488e+00	1.207668e+02
2.460000e-06	2.288578e-07	1.732391e-09	1.634093e+00	1.116335e+02
2.470000e-06	7.645838e-08	1.583571e-09	5.459289e-01	1.021827e+02
2.480000e-06	-7.601970e-08	1.434481e-09	-5.427966e-01	9.238277e+01
2.490000e-06	-2.284870e-07	1.281201e-09	-1.631445e+00	8.219499e+01
2.500000e-06	-3.809040e-07	1.118292e-09	-2.719735e+00	7.157678e+01
2.510000e-06	-5.332076e-07	9.452701e-10	-3.807215e+00	6.048548e+01
2.520000e-06	-6.852889e-07	7.662258e-10	-4.893107e+00	4.888332e+01
2.530000e-06	-8.371523e-07	5.865456e-10	-5.977444e+00	3.674290e+01
2.540000e-06	-9.886546e-07	4.045842e-10	-7.059202e+00	2.405260e+01
2.550000e-06	-1.139706e-06	2.071070e-10	-8.137740e+00	1.082132e+01
2.560000e-06	-1.290337e-06	-7.453361e-12	-9.213276e+00	-2.918046e+00
2.570000e-06	-1.440523e-06	-2.308397e-10	-1.028564e+01	-1.710685e+01
2.580000e-06	-1.590332e-06	-4.560566e-10	-1.135531e+01	-3.166112e+01
2.590000e-06	-1.739590e-06	-6.816368e-10	-1.242104e+01	-4.647413e+01
2.600000e-06	-1.888155e-06	-9.124960e-10	-1.348183e+01	-6.142109e+01
2.610000e-06	-2.035996e-06	-1.145198e-09	-1.453744e+01	-7.636556e+01
2.620000e-06	-2.183046e-06	-1.377671e-09	-1.558741e+01	-9.116705e+01
2.630000e-06	-2.329276e-06	-1.604150e-09	-1.663152e+01	-1.056891e+02
2.640000e-06	-2.474689e-06	-1.819950e-09	-1.766980e+01	-1.198070e+02
2.650000e-06	-2.619213e-06	-2.023941e-09	-1.870173e+01	-1.334146e+02
2.660000e-06	-2.762624e-06	-2.219833e-09	-1.972571e+01	-1.464293e+02
2.670000e-06	-2.904841e-06	-2.409530e-09	-2.074118e+01	-1.587951e+02
2.680000e-06	-3.045922e-06	-2.586257e-09	-2.174853e+01	-1.704834e+02
2.690000e-06	-3.185873e-06	-2.752943e-09	-2.274781e+01	-1.814910e+02
2.700000e-06	-3.324509e-06	-2.909768e-09	-2.373769e+01	-1.918373e+02
2.710000e-06	-3.461860e-06	-3.057484e-09	-2.471841e+01	-2.015586e+02
2.720000e-06	-3.598024e-06	-3.199443e-09	-2.569065e+01	-2.107029e+02
2.730000e-06	-3.732852e-06	-3.336145e-09	-2.665335e+01	-2.193234e+02
2.740000e-06	-3.866293e-06	-3.466597e-09	-2.760615e+01	-2.274737e+02
2.750000e-06	-3.998375e-06	-3.585536e-09	-2.854924e+01	-2.352028e+02
2.760000e-06	-4.129011e-06	-3.695794e-09	-2.948201e+01	-2.425525e+02
2.770000e-06	-4.258261e-06	-3.802145e-09	-3.040488e+01	-2.495560e+02
2.780000e-06	-4.386105e-06	-3.904885e-09	-3.131771e+01	-2.562377e+02
2.790000e-06	-4.512365e-06	-4.001191e-09	-3.221924e+01	-2.626148e+02
2.800000e-06	-4.637056e-06	-4.090572e-09	-3.310956e+01	-2.686994e+02
2.810000e-06	-4.760154e-06	-4.174943e-09	-3.398850e+01	-2.745009e+02
2.820000e-06	-4.881626e-06	-4.256519e-09	-3.485584e+01	-2.800289e+02
2.830000e-06	-5.001251e-06	-4.338849e-09	-3.570999e+01	-2.852945e+02
2.840000e-06	-5.118855e-06	-4.418367e-09	-3.654970e+01	-2.903118e+02
2.850000e-06	-5.234428e-06	-4.492475e-09	-3.737492e+01	-2.950979e+02
2.860000e-06	-5.347892e-06	-4.562552e-09	-3.818508e+01	-2.996723e+02
2.870000e-06	-5.459239e-06	-4.632033e-09	-3.898011e+01	-3.040552e+02
2.880000e-06	-5.568548e-06	-4.701814e-09	-3.976061e+01	-3.082656e+02
2.890000e-06	-5.675920e-06	-4.768725e-09	-4.052726e+01	-3.123194e+02
2.900000e-06	-5.781363e-06	-4.831719e-09	-4.128015e+01	-3.162281e+02
2.910000e-06	-5.884634e-06	-4.889861e-09	-4.201753e+01	-3.199971e+02
2.920000e-06	-5.985636e-06	-4.944760e-09	-4.273870e+01	-3.236263e+02
2.930000e-06	-6.084524e-06	-4.998258e-09	-4.344478e+01	-3.271103e+02
2.940000e-06	-6.181333e-06	-5.049435e-09	-4.413602e+01	-3.304401e+02
