# Temperatura_=_41.98
# Concentracion g/m^3_=_5000.0
# C_Vs_to_Am_M_A/Vsm_=_65563218390.804596
# pendiente_HvsI_1/m_=_3716.3
# ordenada_HvsI_A/m_=_1297.0
# frecuencia_Hz_=_302573.3175214565

Tiempo_(s)	Campo_(V.s)	Magnetizacion_(V.s)	Campo_(kA/m)	Magnetizacion_(A/m)
0.000000e+00	-7.966244e-06	-5.738364e-09	-5.685046e+01	-3.752235e+02
1.000000e-08	-7.963193e-06	-5.737117e-09	-5.682869e+01	-3.749834e+02
2.000000e-08	-7.957520e-06	-5.731889e-09	-5.678821e+01	-3.746643e+02
3.000000e-08	-7.949227e-06	-5.723932e-09	-5.672902e+01	-3.742859e+02
4.000000e-08	-7.938130e-06	-5.715507e-09	-5.664983e+01	-3.738704e+02
5.000000e-08	-7.924086e-06	-5.709360e-09	-5.654961e+01	-3.734395e+02
6.000000e-08	-7.907069e-06	-5.703538e-09	-5.642817e+01	-3.730114e+02
7.000000e-08	-7.887624e-06	-5.695308e-09	-5.628940e+01	-3.725987e+02
8.000000e-08	-7.865951e-06	-5.702205e-09	-5.613473e+01	-3.722063e+02
9.000000e-08	-7.841409e-06	-5.711500e-09	-5.595959e+01	-3.718308e+02
1.000000e-07	-7.813616e-06	-5.723476e-09	-5.576125e+01	-3.714608e+02
1.100000e-07	-7.782744e-06	-5.712713e-09	-5.554093e+01	-3.710780e+02
1.200000e-07	-7.749071e-06	-5.673757e-09	-5.530063e+01	-3.706595e+02
1.300000e-07	-7.712808e-06	-5.618494e-09	-5.504183e+01	-3.701804e+02
1.400000e-07	-7.674239e-06	-5.557639e-09	-5.476659e+01	-3.696165e+02
1.500000e-07	-7.633547e-06	-5.573697e-09	-5.447620e+01	-3.689470e+02
1.600000e-07	-7.590461e-06	-5.638057e-09	-5.416871e+01	-3.681570e+02
1.700000e-07	-7.544613e-06	-5.667935e-09	-5.384153e+01	-3.672382e+02
1.800000e-07	-7.496121e-06	-5.635290e-09	-5.349547e+01	-3.661898e+02
1.900000e-07	-7.444714e-06	-5.571736e-09	-5.312861e+01	-3.650177e+02
2.000000e-07	-7.390269e-06	-5.522161e-09	-5.274006e+01	-3.637334e+02
2.100000e-07	-7.333098e-06	-5.480953e-09	-5.233206e+01	-3.623519e+02
2.200000e-07	-7.273244e-06	-5.492675e-09	-5.190492e+01	-3.608898e+02
2.300000e-07	-7.210765e-06	-5.493089e-09	-5.145904e+01	-3.593628e+02
2.400000e-07	-7.145553e-06	-5.434248e-09	-5.099367e+01	-3.577838e+02
2.500000e-07	-7.077595e-06	-5.410037e-09	-5.050869e+01	-3.561616e+02
2.600000e-07	-7.006988e-06	-5.423384e-09	-5.000481e+01	-3.545005e+02
2.700000e-07	-6.933610e-06	-5.428020e-09	-4.948115e+01	-3.527998e+02
2.800000e-07	-6.857443e-06	-5.387174e-09	-4.893759e+01	-3.510548e+02
2.900000e-07	-6.778491e-06	-5.352198e-09	-4.837416e+01	-3.492575e+02
3.000000e-07	-6.696834e-06	-5.315107e-09	-4.779142e+01	-3.473986e+02
3.100000e-07	-6.612857e-06	-5.270847e-09	-4.719212e+01	-3.454686e+02
3.200000e-07	-6.526699e-06	-5.261773e-09	-4.657726e+01	-3.434589e+02
3.300000e-07	-6.438219e-06	-5.235508e-09	-4.594583e+01	-3.413633e+02
3.400000e-07	-6.347358e-06	-5.177552e-09	-4.529741e+01	-3.391777e+02
3.500000e-07	-6.254249e-06	-5.114012e-09	-4.463294e+01	-3.369013e+02
3.600000e-07	-6.158907e-06	-5.087788e-09	-4.395254e+01	-3.345351e+02
3.700000e-07	-6.061249e-06	-5.069877e-09	-4.325562e+01	-3.320820e+02
3.800000e-07	-5.961363e-06	-5.044694e-09	-4.254279e+01	-3.295457e+02
3.900000e-07	-5.859339e-06	-5.026418e-09	-4.181471e+01	-3.269299e+02
4.000000e-07	-5.755259e-06	-4.974980e-09	-4.107195e+01	-3.242375e+02
4.100000e-07	-5.649169e-06	-4.898900e-09	-4.031484e+01	-3.214703e+02
4.200000e-07	-5.541114e-06	-4.846672e-09	-3.954371e+01	-3.186285e+02
4.300000e-07	-5.431087e-06	-4.836235e-09	-3.875852e+01	-3.157107e+02
4.400000e-07	-5.319074e-06	-4.793079e-09	-3.795915e+01	-3.127143e+02
4.500000e-07	-5.205034e-06	-4.724186e-09	-3.714531e+01	-3.096359e+02
4.600000e-07	-5.088909e-06	-4.675070e-09	-3.631659e+01	-3.064713e+02
4.700000e-07	-4.970874e-06	-4.629011e-09	-3.547425e+01	-3.032163e+02
4.800000e-07	-4.851010e-06	-4.566872e-09	-3.461884e+01	-2.998667e+02
4.900000e-07	-4.729363e-06	-4.515907e-09	-3.375072e+01	-2.964184e+02
5.000000e-07	-4.605998e-06	-4.475000e-09	-3.287034e+01	-2.928677e+02
5.100000e-07	-4.480966e-06	-4.407106e-09	-3.197805e+01	-2.892109e+02
5.200000e-07	-4.354344e-06	-4.340628e-09	-3.107443e+01	-2.854444e+02
5.300000e-07	-4.226080e-06	-4.298812e-09	-3.015908e+01	-2.815646e+02
5.400000e-07	-4.096328e-06	-4.249604e-09	-2.923311e+01	-2.775679e+02
5.500000e-07	-3.965080e-06	-4.167488e-09	-2.829647e+01	-2.734505e+02
5.600000e-07	-3.832218e-06	-4.093810e-09	-2.734832e+01	-2.692092e+02
5.700000e-07	-3.697898e-06	-4.035387e-09	-2.638975e+01	-2.648413e+02
5.800000e-07	-3.562193e-06	-3.958636e-09	-2.542131e+01	-2.603445e+02
5.900000e-07	-3.425155e-06	-3.875312e-09	-2.444335e+01	-2.557177e+02
6.000000e-07	-3.286812e-06	-3.809651e-09	-2.345607e+01	-2.509601e+02
6.100000e-07	-3.147020e-06	-3.743200e-09	-2.245846e+01	-2.460718e+02
6.200000e-07	-3.005825e-06	-3.655356e-09	-2.145083e+01	-2.410526e+02
6.300000e-07	-2.863462e-06	-3.574405e-09	-2.043487e+01	-2.359014e+02
6.400000e-07	-2.719970e-06	-3.510360e-09	-1.941085e+01	-2.306158e+02
6.500000e-07	-2.575453e-06	-3.437238e-09	-1.837951e+01	-2.251913e+02
6.600000e-07	-2.429986e-06	-3.345515e-09	-1.734140e+01	-2.196206e+02
6.700000e-07	-2.283625e-06	-3.252945e-09	-1.629691e+01	-2.138931e+02
6.800000e-07	-2.136554e-06	-3.159629e-09	-1.524734e+01	-2.079960e+02
6.900000e-07	-1.988848e-06	-3.056471e-09	-1.419325e+01	-2.019138e+02
7.000000e-07	-1.840516e-06	-2.953227e-09	-1.313469e+01	-1.956300e+02
7.100000e-07	-1.691625e-06	-2.857646e-09	-1.207215e+01	-1.891279e+02
7.200000e-07	-1.542217e-06	-2.759669e-09	-1.100591e+01	-1.823922e+02
7.300000e-07	-1.392319e-06	-2.652219e-09	-9.936176e+00	-1.754098e+02
7.400000e-07	-1.241949e-06	-2.541924e-09	-8.863068e+00	-1.681708e+02
7.500000e-07	-1.091118e-06	-2.430192e-09	-7.786674e+00	-1.606685e+02
7.600000e-07	-9.398743e-07	-2.317729e-09	-6.707338e+00	-1.528990e+02
7.700000e-07	-7.883416e-07	-2.198386e-09	-5.625937e+00	-1.448601e+02
7.800000e-07	-6.366229e-07	-2.070719e-09	-4.543208e+00	-1.365491e+02
7.900000e-07	-4.846547e-07	-1.936739e-09	-3.458699e+00	-1.279613e+02
8.000000e-07	-3.324658e-07	-1.796700e-09	-2.372615e+00	-1.190871e+02
8.100000e-07	-1.801854e-07	-1.652752e-09	-1.285879e+00	-1.099105e+02
8.200000e-07	-2.787475e-08	-1.503877e-09	-1.989259e-01	-1.004079e+02
8.300000e-07	1.244862e-07	-1.352145e-09	8.883858e-01	-9.054828e+01
8.400000e-07	2.768602e-07	-1.193814e-09	1.975791e+00	-8.029396e+01
8.500000e-07	4.291897e-07	-1.029279e-09	3.062878e+00	-6.960368e+01
8.600000e-07	5.814236e-07	-8.591932e-10	4.149283e+00	-5.843633e+01
8.700000e-07	7.334929e-07	-6.829079e-10	5.234513e+00	-4.675593e+01
8.800000e-07	8.853927e-07	-5.017325e-10	6.318534e+00	-3.453709e+01
8.900000e-07	1.037053e-06	-3.099955e-10	7.400847e+00	-2.177040e+01
9.000000e-07	1.188346e-06	-1.104347e-10	8.480537e+00	-8.467204e+00
9.100000e-07	1.339204e-06	9.562687e-11	9.557123e+00	5.337022e+00
9.200000e-07	1.489546e-06	3.109056e-10	1.063003e+01	1.958101e+01
9.300000e-07	1.639330e-06	5.344553e-10	1.169894e+01	3.417825e+01
9.400000e-07	1.788535e-06	7.628889e-10	1.276373e+01	4.901974e+01
9.500000e-07	1.937132e-06	9.902092e-10	1.382419e+01	6.397892e+01
9.600000e-07	2.085052e-06	1.219957e-09	1.487980e+01	7.891826e+01
9.700000e-07	2.232183e-06	1.448698e-09	1.592980e+01	9.369705e+01
9.800000e-07	2.378431e-06	1.668441e-09	1.697348e+01	1.081796e+02
9.900000e-07	2.523756e-06	1.879209e-09	1.801058e+01	1.222429e+02
1.000000e-06	2.668169e-06	2.078619e-09	1.904117e+01	1.357836e+02
1.010000e-06	2.811591e-06	2.272848e-09	2.006470e+01	1.487224e+02
1.020000e-06	2.953953e-06	2.457430e-09	2.108065e+01	1.610072e+02
1.030000e-06	3.095222e-06	2.630580e-09	2.208881e+01	1.726133e+02
1.040000e-06	3.235182e-06	2.796586e-09	2.308762e+01	1.835414e+02
1.050000e-06	3.373728e-06	2.950953e-09	2.407634e+01	1.938140e+02
1.060000e-06	3.510972e-06	3.096806e-09	2.505577e+01	2.034696e+02
1.070000e-06	3.646927e-06	3.235009e-09	2.602600e+01	2.125573e+02
1.080000e-06	3.781459e-06	3.369259e-09	2.698608e+01	2.211308e+02
1.090000e-06	3.914658e-06	3.495644e-09	2.793665e+01	2.292424e+02
1.100000e-06	4.046519e-06	3.615483e-09	2.887766e+01	2.369396e+02
1.110000e-06	4.176877e-06	3.732907e-09	2.980795e+01	2.442619e+02
1.120000e-06	4.305764e-06	3.841307e-09	3.072774e+01	2.512402e+02
1.130000e-06	4.433142e-06	3.938936e-09	3.163676e+01	2.578966e+02
1.140000e-06	4.559034e-06	4.028271e-09	3.253518e+01	2.642468e+02
1.150000e-06	4.683424e-06	4.115330e-09	3.342288e+01	2.703018e+02
1.160000e-06	4.806149e-06	4.202534e-09	3.429870e+01	2.760712e+02
1.170000e-06	4.927140e-06	4.286010e-09	3.516214e+01	2.815652e+02
1.180000e-06	5.046362e-06	4.364226e-09	3.601296e+01	2.867962e+02
1.190000e-06	5.163779e-06	4.440628e-09	3.685089e+01	2.917804e+02
1.200000e-06	5.279196e-06	4.517376e-09	3.767456e+01	2.965367e+02
1.210000e-06	5.392487e-06	4.593071e-09	3.848305e+01	3.010863e+02
1.220000e-06	5.503755e-06	4.662918e-09	3.927710e+01	3.054504e+02
1.230000e-06	5.613161e-06	4.723712e-09	4.005788e+01	3.096487e+02
1.240000e-06	5.720622e-06	4.778435e-09	4.082476e+01	3.136966e+02
1.250000e-06	5.825911e-06	4.833439e-09	4.157615e+01	3.176043e+02
1.260000e-06	5.929049e-06	4.889545e-09	4.231218e+01	3.213756e+02
1.270000e-06	6.030109e-06	4.944994e-09	4.303339e+01	3.250080e+02
1.280000e-06	6.128926e-06	4.995973e-09	4.373859e+01	3.284939e+02
1.290000e-06	6.225309e-06	5.042933e-09	4.442642e+01	3.318224e+02
1.300000e-06	6.319479e-06	5.090747e-09	4.509845e+01	3.349816e+02
1.310000e-06	6.411453e-06	5.138275e-09	4.575482e+01	3.379611e+02
1.320000e-06	6.501083e-06	5.181130e-09	4.639446e+01	3.407548e+02
1.330000e-06	6.588354e-06	5.218179e-09	4.701726e+01	3.433617e+02
1.340000e-06	6.673302e-06	5.251978e-09	4.762348e+01	3.457878e+02
1.350000e-06	6.755967e-06	5.286308e-09	4.821342e+01	3.480452e+02
1.360000e-06	6.836210e-06	5.320403e-09	4.878606e+01	3.501517e+02
1.370000e-06	6.913888e-06	5.351325e-09	4.934041e+01	3.521282e+02
1.380000e-06	6.988917e-06	5.379780e-09	4.987584e+01	3.539969e+02
1.390000e-06	7.061317e-06	5.407857e-09	5.039252e+01	3.557782e+02
1.400000e-06	7.131259e-06	5.434559e-09	5.089166e+01	3.574887e+02
1.410000e-06	7.198672e-06	5.459531e-09	5.137275e+01	3.591395e+02
1.420000e-06	7.263457e-06	5.483561e-09	5.183508e+01	3.607350e+02
1.430000e-06	7.325695e-06	5.506264e-09	5.227923e+01	3.622733e+02
1.440000e-06	7.385460e-06	5.528012e-09	5.270574e+01	3.637471e+02
1.450000e-06	7.442627e-06	5.547598e-09	5.311371e+01	3.651453e+02
1.460000e-06	7.497090e-06	5.565495e-09	5.350238e+01	3.664558e+02
1.470000e-06	7.548598e-06	5.582129e-09	5.386997e+01	3.676675e+02
1.480000e-06	7.597000e-06	5.596837e-09	5.421538e+01	3.687727e+02
1.490000e-06	7.642672e-06	5.610482e-09	5.454132e+01	3.697686e+02
1.500000e-06	7.685755e-06	5.624485e-09	5.484877e+01	3.706579e+02
1.510000e-06	7.725997e-06	5.640380e-09	5.513596e+01	3.714490e+02
1.520000e-06	7.763473e-06	5.656693e-09	5.540340e+01	3.721542e+02
1.530000e-06	7.798329e-06	5.669408e-09	5.565215e+01	3.727885e+02
1.540000e-06	7.830337e-06	5.677325e-09	5.588057e+01	3.733672e+02
1.550000e-06	7.859594e-06	5.682929e-09	5.608937e+01	3.739031e+02
1.560000e-06	7.886055e-06	5.689368e-09	5.627820e+01	3.744049e+02
1.570000e-06	7.909508e-06	5.697676e-09	5.644557e+01	3.748758e+02
1.580000e-06	7.930242e-06	5.705458e-09	5.659353e+01	3.753129e+02
1.590000e-06	7.948247e-06	5.710846e-09	5.672203e+01	3.757076e+02
1.600000e-06	7.963240e-06	5.714697e-09	5.682903e+01	3.760469e+02
1.610000e-06	7.975105e-06	5.718185e-09	5.691370e+01	3.763157e+02
1.620000e-06	7.983864e-06	5.720875e-09	5.697620e+01	3.764994e+02
1.630000e-06	7.989716e-06	5.722794e-09	5.701797e+01	3.765861e+02
1.640000e-06	7.992793e-06	5.724673e-09	5.703993e+01	3.765689e+02
1.650000e-06	7.993013e-06	5.724178e-09	5.704150e+01	3.764478e+02
1.660000e-06	7.990543e-06	5.720642e-09	5.702387e+01	3.762296e+02
1.670000e-06	7.985479e-06	5.714554e-09	5.698773e+01	3.759281e+02
1.680000e-06	7.977704e-06	5.708783e-09	5.693224e+01	3.755619e+02
1.690000e-06	7.967294e-06	5.702673e-09	5.685795e+01	3.751531e+02
1.700000e-06	7.954028e-06	5.698291e-09	5.676328e+01	3.747236e+02
1.710000e-06	7.937989e-06	5.697380e-09	5.664882e+01	3.742928e+02
1.720000e-06	7.919620e-06	5.693117e-09	5.651774e+01	3.738750e+02
1.730000e-06	7.898992e-06	5.658709e-09	5.637052e+01	3.734770e+02
1.740000e-06	7.875514e-06	5.636220e-09	5.620297e+01	3.730975e+02
1.750000e-06	7.848453e-06	5.625603e-09	5.600986e+01	3.727271e+02
1.760000e-06	7.817810e-06	5.621868e-09	5.579118e+01	3.723490e+02
1.770000e-06	7.784249e-06	5.635280e-09	5.555167e+01	3.719412e+02
1.780000e-06	7.748387e-06	5.690904e-09	5.529575e+01	3.714791e+02
1.790000e-06	7.710214e-06	5.702070e-09	5.502332e+01	3.709379e+02
1.800000e-06	7.669958e-06	5.657761e-09	5.473604e+01	3.702960e+02
1.810000e-06	7.627544e-06	5.625984e-09	5.443336e+01	3.695367e+02
1.820000e-06	7.582441e-06	5.567522e-09	5.411148e+01	3.686499e+02
1.830000e-06	7.534711e-06	5.609876e-09	5.377086e+01	3.676331e+02
1.840000e-06	7.484081e-06	5.624673e-09	5.340954e+01	3.664905e+02
1.850000e-06	7.430400e-06	5.628492e-09	5.302646e+01	3.652324e+02
1.860000e-06	7.373972e-06	5.614266e-09	5.262376e+01	3.638732e+02
1.870000e-06	7.314889e-06	5.503803e-09	5.220212e+01	3.624292e+02
1.880000e-06	7.253198e-06	5.478116e-09	5.176187e+01	3.609165e+02
1.890000e-06	7.188676e-06	5.460468e-09	5.130141e+01	3.593490e+02
1.900000e-06	7.121429e-06	5.444893e-09	5.082151e+01	3.577365e+02
1.910000e-06	7.051389e-06	5.440517e-09	5.032167e+01	3.560845e+02
1.920000e-06	6.978463e-06	5.395708e-09	4.980124e+01	3.543935e+02
1.930000e-06	6.902937e-06	5.338300e-09	4.926226e+01	3.526596e+02
1.940000e-06	6.824654e-06	5.318981e-09	4.870360e+01	3.508757e+02
1.950000e-06	6.743784e-06	5.350513e-09	4.812647e+01	3.490327e+02
1.960000e-06	6.660532e-06	5.315335e-09	4.753236e+01	3.471208e+02
1.970000e-06	6.574729e-06	5.248826e-09	4.692003e+01	3.451312e+02
1.980000e-06	6.486429e-06	5.206595e-09	4.628988e+01	3.430569e+02
1.990000e-06	6.395890e-06	5.181590e-09	4.564376e+01	3.408936e+02
2.000000e-06	6.303135e-06	5.162996e-09	4.498182e+01	3.386393e+02
2.010000e-06	6.208035e-06	5.144116e-09	4.430314e+01	3.362948e+02
2.020000e-06	6.110689e-06	5.114138e-09	4.360844e+01	3.338626e+02
2.030000e-06	6.011203e-06	5.027760e-09	4.289847e+01	3.313462e+02
2.040000e-06	5.909638e-06	4.958217e-09	4.217366e+01	3.287494e+02
2.050000e-06	5.805956e-06	4.957882e-09	4.143374e+01	3.260755e+02
2.060000e-06	5.700235e-06	4.970995e-09	4.067927e+01	3.233264e+02
2.070000e-06	5.592627e-06	4.915982e-09	3.991134e+01	3.205028e+02
2.080000e-06	5.483107e-06	4.842404e-09	3.912975e+01	3.176036e+02
2.090000e-06	5.371524e-06	4.778872e-09	3.833345e+01	3.146267e+02
2.100000e-06	5.257879e-06	4.719405e-09	3.752244e+01	3.115686e+02
2.110000e-06	5.142261e-06	4.691466e-09	3.669734e+01	3.084255e+02
2.120000e-06	5.024622e-06	4.688912e-09	3.585781e+01	3.051929e+02
2.130000e-06	4.905000e-06	4.644546e-09	3.500414e+01	3.018668e+02
2.140000e-06	4.783503e-06	4.547001e-09	3.413709e+01	2.984430e+02
2.150000e-06	4.660363e-06	4.477685e-09	3.325831e+01	2.949178e+02
2.160000e-06	4.535602e-06	4.446092e-09	3.236796e+01	2.912873e+02
2.170000e-06	4.409189e-06	4.404352e-09	3.146582e+01	2.875481e+02
2.180000e-06	4.281125e-06	4.333911e-09	3.055190e+01	2.836964e+02
2.190000e-06	4.151471e-06	4.269050e-09	2.962664e+01	2.797287e+02
2.200000e-06	4.020323e-06	4.199105e-09	2.869072e+01	2.756413e+02
2.210000e-06	3.887652e-06	4.132273e-09	2.774391e+01	2.714308e+02
2.220000e-06	3.753524e-06	4.088129e-09	2.678673e+01	2.670942e+02
2.230000e-06	3.617943e-06	4.044660e-09	2.581916e+01	2.626293e+02
2.240000e-06	3.480936e-06	3.961808e-09	2.484142e+01	2.580345e+02
2.250000e-06	3.342604e-06	3.863007e-09	2.385423e+01	2.533092e+02
2.260000e-06	3.203082e-06	3.796194e-09	2.285853e+01	2.484530e+02
2.270000e-06	3.062338e-06	3.744148e-09	2.185413e+01	2.434660e+02
2.280000e-06	2.920401e-06	3.669531e-09	2.084121e+01	2.383474e+02
2.290000e-06	2.777320e-06	3.575563e-09	1.982012e+01	2.330953e+02
2.300000e-06	2.633145e-06	3.478226e-09	1.879123e+01	2.277056e+02
2.310000e-06	2.488033e-06	3.381891e-09	1.775565e+01	2.221717e+02
2.320000e-06	2.342141e-06	3.304354e-09	1.671450e+01	2.164841e+02
2.330000e-06	2.195467e-06	3.241476e-09	1.566777e+01	2.106302e+02
2.340000e-06	2.047966e-06	3.164129e-09	1.461515e+01	2.045953e+02
2.350000e-06	1.899797e-06	3.054754e-09	1.355775e+01	1.983629e+02
2.360000e-06	1.751031e-06	2.940780e-09	1.249610e+01	1.919164e+02
2.370000e-06	1.601736e-06	2.843948e-09	1.143066e+01	1.852399e+02
2.380000e-06	1.451973e-06	2.751689e-09	1.036189e+01	1.783198e+02
2.390000e-06	1.301813e-06	2.645538e-09	9.290283e+00	1.711451e+02
2.400000e-06	1.151288e-06	2.523467e-09	8.216072e+00	1.637086e+02
2.410000e-06	1.000357e-06	2.395733e-09	7.138966e+00	1.560056e+02
2.420000e-06	8.489985e-07	2.271812e-09	6.058810e+00	1.480337e+02
2.430000e-06	6.972851e-07	2.157750e-09	4.976119e+00	1.397906e+02
2.440000e-06	5.452073e-07	2.042347e-09	3.890828e+00	1.312721e+02
2.450000e-06	3.928928e-07	1.910112e-09	2.803848e+00	1.224702e+02
2.460000e-06	2.404774e-07	1.763499e-09	1.716147e+00	1.133706e+02
2.470000e-06	8.795022e-08	1.614513e-09	6.276497e-01	1.039516e+02
2.480000e-06	-6.463477e-08	1.466572e-09	-4.612609e-01	9.418403e+01
2.490000e-06	-2.172418e-07	1.314987e-09	-1.550329e+00	8.403165e+01
2.500000e-06	-3.697943e-07	1.153842e-09	-2.639008e+00	7.345378e+01
2.510000e-06	-5.221801e-07	9.816994e-10	-3.726496e+00	6.240884e+01
2.520000e-06	-6.744074e-07	8.027594e-10	-4.812855e+00	5.085907e+01
2.530000e-06	-8.264432e-07	6.240977e-10	-5.897846e+00	3.877591e+01
2.540000e-06	-9.780590e-07	4.418199e-10	-6.979839e+00	2.614548e+01
2.550000e-06	-1.129278e-06	2.438535e-10	-8.058999e+00	1.297355e+01
2.560000e-06	-1.280076e-06	2.792802e-11	-9.135159e+00	-7.106637e-01
2.570000e-06	-1.430373e-06	-1.952424e-10	-1.020774e+01	-1.485239e+01
2.580000e-06	-1.580227e-06	-4.184674e-10	-1.127716e+01	-2.937124e+01
2.590000e-06	-1.729486e-06	-6.430555e-10	-1.234234e+01	-4.416347e+01
2.600000e-06	-1.878074e-06	-8.714684e-10	-1.340272e+01	-5.910634e+01
2.610000e-06	-2.026051e-06	-1.102353e-09	-1.445875e+01	-7.406437e+01
2.620000e-06	-2.173315e-06	-1.335435e-09	-1.550969e+01	-8.889687e+01
2.630000e-06	-2.319709e-06	-1.564858e-09	-1.655442e+01	-1.034661e+02
2.640000e-06	-2.465248e-06	-1.782116e-09	-1.759304e+01	-1.176454e+02
2.650000e-06	-2.609945e-06	-1.989103e-09	-1.862566e+01	-1.313256e+02
2.660000e-06	-2.753598e-06	-2.187882e-09	-1.965083e+01	-1.444214e+02
2.670000e-06	-2.896097e-06	-2.378140e-09	-2.066776e+01	-1.568736e+02
2.680000e-06	-3.037417e-06	-2.556053e-09	-2.167628e+01	-1.686508e+02
2.690000e-06	-3.177447e-06	-2.723253e-09	-2.267560e+01	-1.797476e+02
2.700000e-06	-3.316204e-06	-2.881975e-09	-2.366582e+01	-1.901815e+02
2.710000e-06	-3.453764e-06	-3.030192e-09	-2.464751e+01	-1.999875e+02
2.720000e-06	-3.590071e-06	-3.172005e-09	-2.562026e+01	-2.092128e+02
2.730000e-06	-3.725010e-06	-3.310236e-09	-2.658324e+01	-2.179103e+02
2.740000e-06	-3.858582e-06	-3.441896e-09	-2.753646e+01	-2.261332e+02
2.750000e-06	-3.990810e-06	-3.563114e-09	-2.848010e+01	-2.339305e+02
2.760000e-06	-4.121549e-06	-3.675872e-09	-2.941310e+01	-2.413438e+02
2.770000e-06	-4.250913e-06	-3.783497e-09	-3.033630e+01	-2.484062e+02
2.780000e-06	-4.378945e-06	-3.886892e-09	-3.124999e+01	-2.551420e+02
2.790000e-06	-4.505403e-06	-3.983695e-09	-3.215245e+01	-2.615680e+02
2.800000e-06	-4.630329e-06	-4.072975e-09	-3.304397e+01	-2.676965e+02
2.810000e-06	-4.753640e-06	-4.157902e-09	-3.392397e+01	-2.735369e+02
2.820000e-06	-4.875204e-06	-4.240983e-09	-3.479150e+01	-2.790992e+02
2.830000e-06	-4.994893e-06	-4.324204e-09	-3.564565e+01	-2.843951e+02
2.840000e-06	-5.112681e-06	-4.406144e-09	-3.648624e+01	-2.894399e+02
2.850000e-06	-5.228475e-06	-4.482172e-09	-3.731259e+01	-2.942517e+02
2.860000e-06	-5.342006e-06	-4.551234e-09	-3.812280e+01	-2.988515e+02
2.870000e-06	-5.453378e-06	-4.618627e-09	-3.891759e+01	-3.032606e+02
2.880000e-06	-5.562766e-06	-4.686994e-09	-3.969824e+01	-3.074992e+02
2.890000e-06	-5.670294e-06	-4.755036e-09	-4.046560e+01	-3.115840e+02
2.900000e-06	-5.775989e-06	-4.819927e-09	-4.121988e+01	-3.155267e+02
2.910000e-06	-5.879560e-06	-4.879134e-09	-4.195901e+01	-3.193326e+02
2.920000e-06	-5.980808e-06	-4.934776e-09	-4.268156e+01	-3.230008e+02
2.930000e-06	-6.079837e-06	-4.989144e-09	-4.338827e+01	-3.265248e+02
2.940000e-06	-6.176798e-06	-5.042210e-09	-4.408023e+01	-3.298942e+02
