# Temperatura_=_42.19
# Concentracion g/m^3_=_5000.0
# C_Vs_to_Am_M_A/Vsm_=_65563218390.804596
# pendiente_HvsI_1/m_=_3716.3
# ordenada_HvsI_A/m_=_1297.0
# frecuencia_Hz_=_302574.7666768057

Tiempo_(s)	Campo_(V.s)	Magnetizacion_(V.s)	Campo_(kA/m)	Magnetizacion_(A/m)
0.000000e+00	-8.009764e-06	-5.761579e-09	-5.685614e+01	-3.784818e+02
1.000000e-08	-8.006677e-06	-5.757836e-09	-5.683423e+01	-3.781989e+02
2.000000e-08	-8.000909e-06	-5.752116e-09	-5.679328e+01	-3.778538e+02
3.000000e-08	-7.992615e-06	-5.747023e-09	-5.673441e+01	-3.774680e+02
4.000000e-08	-7.981501e-06	-5.743417e-09	-5.665552e+01	-3.770621e+02
5.000000e-08	-7.967337e-06	-5.739323e-09	-5.655498e+01	-3.766529e+02
6.000000e-08	-7.950295e-06	-5.733582e-09	-5.643401e+01	-3.762509e+02
7.000000e-08	-7.930830e-06	-5.725818e-09	-5.629584e+01	-3.758587e+02
8.000000e-08	-7.909041e-06	-5.740218e-09	-5.614117e+01	-3.754706e+02
9.000000e-08	-7.884315e-06	-5.743592e-09	-5.596566e+01	-3.750728e+02
1.000000e-07	-7.856302e-06	-5.742803e-09	-5.576682e+01	-3.746453e+02
1.100000e-07	-7.825314e-06	-5.732692e-09	-5.554685e+01	-3.741643e+02
1.200000e-07	-7.791540e-06	-5.696592e-09	-5.530711e+01	-3.736049e+02
1.300000e-07	-7.755097e-06	-5.641705e-09	-5.504842e+01	-3.729446e+02
1.400000e-07	-7.716370e-06	-5.587824e-09	-5.477352e+01	-3.721654e+02
1.500000e-07	-7.675473e-06	-5.614112e-09	-5.448323e+01	-3.712564e+02
1.600000e-07	-7.632114e-06	-5.648587e-09	-5.417545e+01	-3.702147e+02
1.700000e-07	-7.586051e-06	-5.678140e-09	-5.384848e+01	-3.690451e+02
1.800000e-07	-7.537244e-06	-5.652029e-09	-5.350203e+01	-3.677598e+02
1.900000e-07	-7.485406e-06	-5.565873e-09	-5.313406e+01	-3.663758e+02
2.000000e-07	-7.430585e-06	-5.541002e-09	-5.274492e+01	-3.649131e+02
2.100000e-07	-7.373062e-06	-5.511985e-09	-5.233660e+01	-3.633917e+02
2.200000e-07	-7.312857e-06	-5.525145e-09	-5.190925e+01	-3.618294e+02
2.300000e-07	-7.250018e-06	-5.533780e-09	-5.146319e+01	-3.602394e+02
2.400000e-07	-7.184392e-06	-5.462825e-09	-5.099736e+01	-3.586293e+02
2.500000e-07	-7.115999e-06	-5.428723e-09	-5.051188e+01	-3.570005e+02
2.600000e-07	-7.045035e-06	-5.432423e-09	-5.000815e+01	-3.553488e+02
2.700000e-07	-6.971228e-06	-5.442338e-09	-4.948424e+01	-3.536650e+02
2.800000e-07	-6.894561e-06	-5.403467e-09	-4.894003e+01	-3.519371e+02
2.900000e-07	-6.815109e-06	-5.365582e-09	-4.837606e+01	-3.501517e+02
3.000000e-07	-6.733022e-06	-5.330858e-09	-4.779337e+01	-3.482963e+02
3.100000e-07	-6.648681e-06	-5.279769e-09	-4.719469e+01	-3.463603e+02
3.200000e-07	-6.562115e-06	-5.275791e-09	-4.658021e+01	-3.443363e+02
3.300000e-07	-6.473143e-06	-5.251669e-09	-4.594866e+01	-3.422203e+02
3.400000e-07	-6.381770e-06	-5.199102e-09	-4.530007e+01	-3.400120e+02
3.500000e-07	-6.288184e-06	-5.141331e-09	-4.463576e+01	-3.377137e+02
3.600000e-07	-6.192247e-06	-5.115958e-09	-4.395476e+01	-3.353292e+02
3.700000e-07	-6.093939e-06	-5.097507e-09	-4.325694e+01	-3.328632e+02
3.800000e-07	-5.993462e-06	-5.066026e-09	-4.254371e+01	-3.303197e+02
3.900000e-07	-5.890895e-06	-5.047343e-09	-4.181566e+01	-3.277015e+02
4.000000e-07	-5.786201e-06	-4.992057e-09	-4.107250e+01	-3.250093e+02
4.100000e-07	-5.679467e-06	-4.916420e-09	-4.031487e+01	-3.222422e+02
4.200000e-07	-5.570805e-06	-4.866188e-09	-3.954354e+01	-3.193975e+02
4.300000e-07	-5.460212e-06	-4.859985e-09	-3.875852e+01	-3.164712e+02
4.400000e-07	-5.347609e-06	-4.817347e-09	-3.795922e+01	-3.134589e+02
4.500000e-07	-5.232878e-06	-4.742700e-09	-3.714482e+01	-3.103563e+02
4.600000e-07	-5.116008e-06	-4.688399e-09	-3.631524e+01	-3.071597e+02
4.700000e-07	-4.997249e-06	-4.643259e-09	-3.547225e+01	-3.038661e+02
4.800000e-07	-4.876721e-06	-4.587738e-09	-3.461669e+01	-3.004734e+02
4.900000e-07	-4.754423e-06	-4.540992e-09	-3.374858e+01	-2.969797e+02
5.000000e-07	-4.630412e-06	-4.503533e-09	-3.286831e+01	-2.933837e+02
5.100000e-07	-4.504736e-06	-4.433163e-09	-3.197621e+01	-2.896832e+02
5.200000e-07	-4.377454e-06	-4.361502e-09	-3.107272e+01	-2.858756e+02
5.300000e-07	-4.248476e-06	-4.314862e-09	-3.015719e+01	-2.819570e+02
5.400000e-07	-4.117952e-06	-4.265930e-09	-2.923068e+01	-2.779228e+02
5.500000e-07	-3.985904e-06	-4.185148e-09	-2.829336e+01	-2.737677e+02
5.600000e-07	-3.852354e-06	-4.110401e-09	-2.734537e+01	-2.694863e+02
5.700000e-07	-3.717458e-06	-4.051289e-09	-2.638783e+01	-2.650736e+02
5.800000e-07	-3.581115e-06	-3.976080e-09	-2.542002e+01	-2.605259e+02
5.900000e-07	-3.443260e-06	-3.895236e-09	-2.444148e+01	-2.558409e+02
6.000000e-07	-3.304003e-06	-3.829866e-09	-2.345298e+01	-2.510177e+02
6.100000e-07	-3.163325e-06	-3.762814e-09	-2.245440e+01	-2.460572e+02
6.200000e-07	-3.021173e-06	-3.672841e-09	-2.144535e+01	-2.409606e+02
6.300000e-07	-2.877752e-06	-3.589370e-09	-2.042730e+01	-2.357291e+02
6.400000e-07	-2.733274e-06	-3.522027e-09	-1.940175e+01	-2.303623e+02
6.500000e-07	-2.587842e-06	-3.446619e-09	-1.836942e+01	-2.248577e+02
6.600000e-07	-2.441563e-06	-3.351672e-09	-1.733108e+01	-2.192093e+02
6.700000e-07	-2.294558e-06	-3.256008e-09	-1.628758e+01	-2.134074e+02
6.800000e-07	-2.146889e-06	-3.163429e-09	-1.523938e+01	-2.074388e+02
6.900000e-07	-1.998497e-06	-3.062383e-09	-1.418604e+01	-2.012871e+02
7.000000e-07	-1.849426e-06	-2.960534e-09	-1.312788e+01	-1.949341e+02
7.100000e-07	-1.699809e-06	-2.862509e-09	-1.206585e+01	-1.883616e+02
7.200000e-07	-1.549704e-06	-2.762943e-09	-1.100035e+01	-1.815525e+02
7.300000e-07	-1.399184e-06	-2.654471e-09	-9.931901e+00	-1.744925e+02
7.400000e-07	-1.248184e-06	-2.542095e-09	-8.860054e+00	-1.671713e+02
7.500000e-07	-1.096624e-06	-2.427574e-09	-7.784228e+00	-1.595826e+02
7.600000e-07	-9.445979e-07	-2.312547e-09	-6.705091e+00	-1.517237e+02
7.700000e-07	-7.922509e-07	-2.191451e-09	-5.623678e+00	-1.435941e+02
7.800000e-07	-6.396347e-07	-2.061639e-09	-4.540354e+00	-1.351931e+02
7.900000e-07	-4.867686e-07	-1.926837e-09	-3.455256e+00	-1.265176e+02
8.000000e-07	-3.337407e-07	-1.786403e-09	-2.369010e+00	-1.175593e+02
8.100000e-07	-1.806214e-07	-1.642256e-09	-1.282115e+00	-1.083024e+02
8.200000e-07	-2.736369e-08	-1.492488e-09	-1.942372e-01	-9.872258e+01
8.300000e-07	1.260408e-07	-1.338259e-09	8.946819e-01	-8.878651e+01
8.400000e-07	2.793939e-07	-1.177575e-09	1.983237e+00	-7.845375e+01
8.500000e-07	4.326050e-07	-1.011419e-09	3.070783e+00	-6.767955e+01
8.600000e-07	5.857414e-07	-8.400250e-10	4.157800e+00	-5.641935e+01
8.700000e-07	7.387478e-07	-6.634403e-10	5.243893e+00	-4.463432e+01
8.800000e-07	8.915044e-07	-4.803228e-10	6.328214e+00	-3.229738e+01
8.900000e-07	1.043997e-06	-2.862757e-10	7.410658e+00	-1.939900e+01
9.000000e-07	1.196155e-06	-8.334782e-11	8.490730e+00	-5.952234e+00
9.100000e-07	1.347823e-06	1.265553e-10	9.567327e+00	8.003910e+00
9.200000e-07	1.498928e-06	3.443365e-10	1.063992e+01	2.240308e+01
9.300000e-07	1.649398e-06	5.709953e-10	1.170801e+01	3.715259e+01
9.400000e-07	1.799278e-06	8.025416e-10	1.277191e+01	5.213693e+01
9.500000e-07	1.948536e-06	1.033472e-09	1.383140e+01	6.722333e+01
9.600000e-07	2.097091e-06	1.264856e-09	1.488589e+01	8.226917e+01
9.700000e-07	2.244950e-06	1.493122e-09	1.593545e+01	9.713034e+01
9.800000e-07	2.392042e-06	1.712100e-09	1.697956e+01	1.116698e+02
9.900000e-07	2.538251e-06	1.922152e-09	1.801740e+01	1.257656e+02
1.000000e-06	2.683493e-06	2.123038e-09	1.904839e+01	1.393171e+02
1.010000e-06	2.827695e-06	2.318246e-09	2.007198e+01	1.522497e+02
1.020000e-06	2.970768e-06	2.503698e-09	2.108756e+01	1.645169e+02
1.030000e-06	3.112690e-06	2.676495e-09	2.209497e+01	1.761000e+02
1.040000e-06	3.253392e-06	2.841057e-09	2.309373e+01	1.870049e+02
1.050000e-06	3.392794e-06	2.996375e-09	2.408325e+01	1.972583e+02
1.060000e-06	3.530885e-06	3.143713e-09	2.506347e+01	2.069017e+02
1.070000e-06	3.667631e-06	3.281699e-09	2.603414e+01	2.159852e+02
1.080000e-06	3.802916e-06	3.414230e-09	2.699445e+01	2.245615e+02
1.090000e-06	3.936841e-06	3.541443e-09	2.794509e+01	2.326812e+02
1.100000e-06	4.069417e-06	3.661392e-09	2.888616e+01	2.403887e+02
1.110000e-06	4.200453e-06	3.776739e-09	2.981630e+01	2.477207e+02
1.120000e-06	4.329996e-06	3.884540e-09	3.073585e+01	2.547052e+02
1.130000e-06	4.458007e-06	3.983843e-09	3.164451e+01	2.613629e+02
1.140000e-06	4.584463e-06	4.075129e-09	3.254214e+01	2.677087e+02
1.150000e-06	4.709435e-06	4.163523e-09	3.342924e+01	2.737548e+02
1.160000e-06	4.832836e-06	4.250927e-09	3.430518e+01	2.795129e+02
1.170000e-06	4.954495e-06	4.334370e-09	3.516876e+01	2.849962e+02
1.180000e-06	5.074293e-06	4.413154e-09	3.601913e+01	2.902206e+02
1.190000e-06	5.192266e-06	4.489309e-09	3.685654e+01	2.952052e+02
1.200000e-06	5.308354e-06	4.566245e-09	3.768058e+01	2.999714e+02
1.210000e-06	5.422340e-06	4.642500e-09	3.848969e+01	3.045413e+02
1.220000e-06	5.534200e-06	4.713053e-09	3.928371e+01	3.089359e+02
1.230000e-06	5.644133e-06	4.776329e-09	4.006406e+01	3.131727e+02
1.240000e-06	5.752120e-06	4.834246e-09	4.083058e+01	3.172643e+02
1.250000e-06	5.858004e-06	4.889941e-09	4.158219e+01	3.212170e+02
1.260000e-06	5.961686e-06	4.945554e-09	4.231816e+01	3.250305e+02
1.270000e-06	6.063194e-06	5.000434e-09	4.303870e+01	3.286988e+02
1.280000e-06	6.162458e-06	5.051776e-09	4.374331e+01	3.322120e+02
1.290000e-06	6.259367e-06	5.100229e-09	4.443120e+01	3.355579e+02
1.300000e-06	6.353969e-06	5.149047e-09	4.510272e+01	3.387253e+02
1.310000e-06	6.446344e-06	5.197177e-09	4.575843e+01	3.417058e+02
1.320000e-06	6.536454e-06	5.240655e-09	4.639807e+01	3.444964e+02
1.330000e-06	6.624162e-06	5.279262e-09	4.702065e+01	3.470999e+02
1.340000e-06	6.709520e-06	5.315076e-09	4.762655e+01	3.495259e+02
1.350000e-06	6.792603e-06	5.348961e-09	4.821630e+01	3.517895e+02
1.360000e-06	6.873271e-06	5.381147e-09	4.878891e+01	3.539101e+02
1.370000e-06	6.951387e-06	5.412486e-09	4.934340e+01	3.559086e+02
1.380000e-06	7.026885e-06	5.443337e-09	4.987932e+01	3.578053e+02
1.390000e-06	7.099632e-06	5.473013e-09	5.039570e+01	3.596173e+02
1.400000e-06	7.169775e-06	5.501029e-09	5.089360e+01	3.613569e+02
1.410000e-06	7.237485e-06	5.528210e-09	5.137423e+01	3.630300e+02
1.420000e-06	7.302589e-06	5.553394e-09	5.183636e+01	3.646367e+02
1.430000e-06	7.365152e-06	5.575034e-09	5.228046e+01	3.661716e+02
1.440000e-06	7.425291e-06	5.594996e-09	5.270735e+01	3.676256e+02
1.450000e-06	7.482746e-06	5.613422e-09	5.311518e+01	3.689881e+02
1.460000e-06	7.537473e-06	5.630195e-09	5.350365e+01	3.702494e+02
1.470000e-06	7.589291e-06	5.645545e-09	5.387148e+01	3.714029e+02
1.480000e-06	7.637987e-06	5.661281e-09	5.421714e+01	3.724464e+02
1.490000e-06	7.683859e-06	5.677153e-09	5.454275e+01	3.733834e+02
1.500000e-06	7.727057e-06	5.691410e-09	5.484939e+01	3.742225e+02
1.510000e-06	7.767493e-06	5.705629e-09	5.513642e+01	3.749765e+02
1.520000e-06	7.805174e-06	5.719555e-09	5.540389e+01	3.756605e+02
1.530000e-06	7.840108e-06	5.731437e-09	5.565186e+01	3.762898e+02
1.540000e-06	7.872227e-06	5.740713e-09	5.587985e+01	3.768773e+02
1.550000e-06	7.901603e-06	5.748031e-09	5.608838e+01	3.774317e+02
1.560000e-06	7.928184e-06	5.755134e-09	5.627706e+01	3.779559e+02
1.570000e-06	7.951840e-06	5.763339e-09	5.644498e+01	3.784465e+02
1.580000e-06	7.972722e-06	5.771172e-09	5.659320e+01	3.788944e+02
1.590000e-06	7.990861e-06	5.777091e-09	5.672196e+01	3.792861e+02
1.600000e-06	8.005999e-06	5.782380e-09	5.682941e+01	3.796061e+02
1.610000e-06	8.017931e-06	5.787593e-09	5.691411e+01	3.798390e+02
1.620000e-06	8.026712e-06	5.791897e-09	5.697644e+01	3.799728e+02
1.630000e-06	8.032609e-06	5.794850e-09	5.701830e+01	3.800002e+02
1.640000e-06	8.035666e-06	5.795579e-09	5.704000e+01	3.799211e+02
1.650000e-06	8.035877e-06	5.793005e-09	5.704150e+01	3.797424e+02
1.660000e-06	8.033453e-06	5.789760e-09	5.702429e+01	3.794776e+02
1.670000e-06	8.028363e-06	5.783703e-09	5.698816e+01	3.791454e+02
1.680000e-06	8.020568e-06	5.777458e-09	5.693283e+01	3.787670e+02
1.690000e-06	8.010116e-06	5.772026e-09	5.685864e+01	3.783637e+02
1.700000e-06	7.996815e-06	5.768402e-09	5.676423e+01	3.779533e+02
1.710000e-06	7.980774e-06	5.765527e-09	5.665036e+01	3.775483e+02
1.720000e-06	7.962390e-06	5.757446e-09	5.651986e+01	3.771532e+02
1.730000e-06	7.941616e-06	5.711438e-09	5.637240e+01	3.767644e+02
1.740000e-06	7.917897e-06	5.699462e-09	5.620404e+01	3.763700e+02
1.750000e-06	7.890715e-06	5.695113e-09	5.601109e+01	3.759514e+02
1.760000e-06	7.859938e-06	5.686373e-09	5.579262e+01	3.754854e+02
1.770000e-06	7.826207e-06	5.698255e-09	5.555319e+01	3.749472e+02
1.780000e-06	7.790177e-06	5.746825e-09	5.529743e+01	3.743133e+02
1.790000e-06	7.751837e-06	5.741326e-09	5.502529e+01	3.735645e+02
1.800000e-06	7.711417e-06	5.704764e-09	5.473837e+01	3.726879e+02
1.810000e-06	7.668745e-06	5.670525e-09	5.443547e+01	3.716785e+02
1.820000e-06	7.623358e-06	5.601965e-09	5.411330e+01	3.705393e+02
1.830000e-06	7.575400e-06	5.663778e-09	5.377287e+01	3.692808e+02
1.840000e-06	7.524521e-06	5.638824e-09	5.341171e+01	3.679189e+02
1.850000e-06	7.470528e-06	5.623489e-09	5.302846e+01	3.664733e+02
1.860000e-06	7.413788e-06	5.607668e-09	5.262569e+01	3.649642e+02
1.870000e-06	7.354380e-06	5.484157e-09	5.220399e+01	3.634099e+02
1.880000e-06	7.292308e-06	5.485609e-09	5.176338e+01	3.618252e+02
1.890000e-06	7.227417e-06	5.470807e-09	5.130277e+01	3.602191e+02
1.900000e-06	7.159772e-06	5.470159e-09	5.082260e+01	3.585945e+02
1.910000e-06	7.089335e-06	5.467843e-09	5.032261e+01	3.569485e+02
1.920000e-06	7.016074e-06	5.402765e-09	4.980257e+01	3.552731e+02
1.930000e-06	6.940077e-06	5.351762e-09	4.926312e+01	3.535568e+02
1.940000e-06	6.861279e-06	5.312345e-09	4.870379e+01	3.517863e+02
1.950000e-06	6.779947e-06	5.356025e-09	4.812646e+01	3.499489e+02
1.960000e-06	6.696171e-06	5.327498e-09	4.753180e+01	3.480331e+02
1.970000e-06	6.609854e-06	5.263940e-09	4.691908e+01	3.460309e+02
1.980000e-06	6.521077e-06	5.228268e-09	4.628891e+01	3.439374e+02
1.990000e-06	6.430073e-06	5.182416e-09	4.564293e+01	3.417514e+02
2.000000e-06	6.336884e-06	5.166138e-09	4.498145e+01	3.394746e+02
2.010000e-06	6.241367e-06	5.141165e-09	4.430343e+01	3.371105e+02
2.020000e-06	6.143655e-06	5.121761e-09	4.360984e+01	3.346638e+02
2.030000e-06	6.043668e-06	5.036973e-09	4.290010e+01	3.321387e+02
2.040000e-06	5.941449e-06	4.968871e-09	4.217451e+01	3.295383e+02
2.050000e-06	5.837152e-06	4.967206e-09	4.143417e+01	3.268639e+02
2.060000e-06	5.730895e-06	4.970035e-09	4.067992e+01	3.241151e+02
2.070000e-06	5.622759e-06	4.916746e-09	3.991233e+01	3.212894e+02
2.080000e-06	5.512602e-06	4.840094e-09	3.913040e+01	3.183832e+02
2.090000e-06	5.400397e-06	4.786243e-09	3.833393e+01	3.153922e+02
2.100000e-06	5.286154e-06	4.726128e-09	3.752299e+01	3.123119e+02
2.110000e-06	5.169787e-06	4.701741e-09	3.669698e+01	3.091384e+02
2.120000e-06	5.051325e-06	4.694573e-09	3.585609e+01	3.058686e+02
2.130000e-06	4.931011e-06	4.646633e-09	3.500207e+01	3.025001e+02
2.140000e-06	4.808966e-06	4.542698e-09	3.413574e+01	2.990312e+02
2.150000e-06	4.685250e-06	4.470574e-09	3.325756e+01	2.954602e+02
2.160000e-06	4.559794e-06	4.443223e-09	3.236703e+01	2.917854e+02
2.170000e-06	4.432596e-06	4.406214e-09	3.146414e+01	2.880042e+02
2.180000e-06	4.303744e-06	4.340300e-09	3.054950e+01	2.841131e+02
2.190000e-06	4.173437e-06	4.271950e-09	2.962454e+01	2.801076e+02
2.200000e-06	4.041704e-06	4.199181e-09	2.868945e+01	2.759825e+02
2.210000e-06	3.908361e-06	4.126827e-09	2.774293e+01	2.717325e+02
2.220000e-06	3.773522e-06	4.084075e-09	2.678580e+01	2.673523e+02
2.230000e-06	3.637196e-06	4.041845e-09	2.581811e+01	2.628380e+02
2.240000e-06	3.499537e-06	3.960043e-09	2.484095e+01	2.581867e+02
2.250000e-06	3.360558e-06	3.855883e-09	2.385443e+01	2.533974e+02
2.260000e-06	3.220152e-06	3.783201e-09	2.285778e+01	2.484705e+02
2.270000e-06	3.078431e-06	3.727226e-09	2.185180e+01	2.434071e+02
2.280000e-06	2.935536e-06	3.654104e-09	2.083748e+01	2.382085e+02
2.290000e-06	2.791520e-06	3.563746e-09	1.981520e+01	2.328750e+02
2.300000e-06	2.646503e-06	3.470839e-09	1.878582e+01	2.274046e+02
2.310000e-06	2.500679e-06	3.377809e-09	1.775070e+01	2.217922e+02
2.320000e-06	2.354118e-06	3.297328e-09	1.671036e+01	2.160292e+02
2.330000e-06	2.206783e-06	3.228578e-09	1.566453e+01	2.101030e+02
2.340000e-06	2.058661e-06	3.145927e-09	1.461311e+01	2.039980e+02
2.350000e-06	1.909802e-06	3.034834e-09	1.355645e+01	1.976964e+02
2.360000e-06	1.760288e-06	2.917503e-09	1.249515e+01	1.911798e+02
2.370000e-06	1.610168e-06	2.817354e-09	1.142954e+01	1.844306e+02
2.380000e-06	1.459493e-06	2.724471e-09	1.036000e+01	1.774338e+02
2.390000e-06	1.308416e-06	2.621369e-09	9.287598e+00	1.701779e+02
2.400000e-06	1.156936e-06	2.501485e-09	8.212344e+00	1.626558e+02
2.410000e-06	1.005060e-06	2.372124e-09	7.134274e+00	1.548639e+02
2.420000e-06	8.528166e-07	2.245609e-09	6.053594e+00	1.468013e+02
2.430000e-06	7.002497e-07	2.128646e-09	4.970620e+00	1.384676e+02
2.440000e-06	5.474014e-07	2.010820e-09	3.885649e+00	1.298606e+02
2.450000e-06	3.943221e-07	1.878523e-09	2.799038e+00	1.209734e+02
2.460000e-06	2.410999e-07	1.731050e-09	1.711412e+00	1.117925e+02
2.470000e-06	8.777479e-08	1.579664e-09	6.230565e-01	1.022955e+02
2.480000e-06	-6.561969e-08	1.429649e-09	-4.657918e-01	9.245131e+01
2.490000e-06	-2.190237e-07	1.278057e-09	-1.554708e+00	8.222114e+01
2.500000e-06	-3.723157e-07	1.118840e-09	-2.642829e+00	7.156089e+01
2.510000e-06	-5.254437e-07	9.463846e-10	-3.729785e+00	6.042547e+01
2.520000e-06	-6.784910e-07	7.626550e-10	-4.816169e+00	4.877407e+01
2.530000e-06	-8.313553e-07	5.775385e-10	-5.901254e+00	3.657609e+01
2.540000e-06	-9.838937e-07	3.920693e-10	-6.984025e+00	2.381712e+01
2.550000e-06	-1.136059e-06	1.939805e-10	-8.064147e+00	1.050417e+01
2.560000e-06	-1.287711e-06	-2.071111e-11	-9.140628e+00	-3.330468e+00
2.570000e-06	-1.438911e-06	-2.433724e-10	-1.021390e+01	-1.762726e+01
2.580000e-06	-1.589639e-06	-4.679868e-10	-1.128382e+01	-3.229989e+01
2.590000e-06	-1.739695e-06	-6.960027e-10	-1.234897e+01	-4.723810e+01
2.600000e-06	-1.889070e-06	-9.285659e-10	-1.340929e+01	-6.231278e+01
2.610000e-06	-2.037782e-06	-1.162063e-09	-1.446490e+01	-7.738305e+01
2.620000e-06	-2.185743e-06	-1.394974e-09	-1.551518e+01	-9.230434e+01
2.630000e-06	-2.332796e-06	-1.623947e-09	-1.655901e+01	-1.069371e+02
2.640000e-06	-2.478899e-06	-1.842062e-09	-1.759610e+01	-1.211548e+02
2.650000e-06	-2.624171e-06	-2.047505e-09	-1.862730e+01	-1.348511e+02
2.660000e-06	-2.768554e-06	-2.245478e-09	-1.965218e+01	-1.479446e+02
2.670000e-06	-2.911862e-06	-2.437744e-09	-2.066942e+01	-1.603817e+02
2.680000e-06	-3.054012e-06	-2.617018e-09	-2.167846e+01	-1.721368e+02
2.690000e-06	-3.194873e-06	-2.782546e-09	-2.267834e+01	-1.832101e+02
2.700000e-06	-3.334472e-06	-2.938371e-09	-2.366926e+01	-1.936237e+02
2.710000e-06	-3.472783e-06	-3.086516e-09	-2.465104e+01	-2.034158e+02
2.720000e-06	-3.609709e-06	-3.229156e-09	-2.562299e+01	-2.126350e+02
2.730000e-06	-3.745344e-06	-3.365722e-09	-2.658577e+01	-2.213339e+02
2.740000e-06	-3.879652e-06	-3.496248e-09	-2.753914e+01	-2.295640e+02
2.750000e-06	-4.012562e-06	-3.618491e-09	-2.848258e+01	-2.373715e+02
2.760000e-06	-4.144063e-06	-3.732193e-09	-2.941603e+01	-2.447951e+02
2.770000e-06	-4.274127e-06	-3.841062e-09	-3.033927e+01	-2.518650e+02
2.780000e-06	-4.402750e-06	-3.943908e-09	-3.125228e+01	-2.586034e+02
2.790000e-06	-4.529884e-06	-4.038031e-09	-3.215472e+01	-2.650267e+02
2.800000e-06	-4.655425e-06	-4.124984e-09	-3.304586e+01	-2.711474e+02
2.810000e-06	-4.779294e-06	-4.207693e-09	-3.392512e+01	-2.769770e+02
2.820000e-06	-4.901495e-06	-4.289685e-09	-3.479255e+01	-2.825283e+02
2.830000e-06	-5.021933e-06	-4.372948e-09	-3.564746e+01	-2.878164e+02
2.840000e-06	-5.140448e-06	-4.454157e-09	-3.648872e+01	-2.928597e+02
2.850000e-06	-5.256913e-06	-4.529291e-09	-3.731543e+01	-2.976791e+02
2.860000e-06	-5.371219e-06	-4.598901e-09	-3.812681e+01	-3.022967e+02
2.870000e-06	-5.483329e-06	-4.669321e-09	-3.892261e+01	-3.067340e+02
2.880000e-06	-5.593316e-06	-4.739215e-09	-3.970334e+01	-3.110095e+02
2.890000e-06	-5.701351e-06	-4.805298e-09	-4.047021e+01	-3.151373e+02
2.900000e-06	-5.807482e-06	-4.866787e-09	-4.122356e+01	-3.191252e+02
2.910000e-06	-5.911562e-06	-4.924016e-09	-4.196236e+01	-3.229745e+02
2.920000e-06	-6.013410e-06	-4.978499e-09	-4.268532e+01	-3.266806e+02
2.930000e-06	-6.112958e-06	-5.031559e-09	-4.339194e+01	-3.302344e+02
2.940000e-06	-6.210346e-06	-5.085124e-09	-4.408323e+01	-3.336239e+02
