# Temperatura_=_38.89
# Concentracion g/m^3_=_5000.0
# C_Vs_to_Am_M_A/Vsm_=_65563218390.804596
# pendiente_HvsI_1/m_=_3716.3
# ordenada_HvsI_A/m_=_1297.0
# frecuencia_Hz_=_302579.6025558574

Tiempo_(s)	Campo_(V.s)	Magnetizacion_(V.s)	Campo_(kA/m)	Magnetizacion_(A/m)
0.000000e+00	-8.016229e-06	-5.652375e-09	-5.685172e+01	-3.696369e+02
1.000000e-08	-8.013079e-06	-5.650670e-09	-5.682938e+01	-3.694121e+02
2.000000e-08	-8.007230e-06	-5.646806e-09	-5.678790e+01	-3.690968e+02
3.000000e-08	-7.998812e-06	-5.643577e-09	-5.672820e+01	-3.687111e+02
4.000000e-08	-7.987563e-06	-5.640088e-09	-5.664842e+01	-3.682795e+02
5.000000e-08	-7.973318e-06	-5.635857e-09	-5.654740e+01	-3.678287e+02
6.000000e-08	-7.956213e-06	-5.631062e-09	-5.642608e+01	-3.673839e+02
7.000000e-08	-7.936667e-06	-5.624017e-09	-5.628746e+01	-3.669655e+02
8.000000e-08	-7.914780e-06	-5.645935e-09	-5.613224e+01	-3.665869e+02
9.000000e-08	-7.889935e-06	-5.671393e-09	-5.595603e+01	-3.662524e+02
1.000000e-07	-7.861774e-06	-5.644714e-09	-5.575631e+01	-3.659562e+02
1.100000e-07	-7.830601e-06	-5.611533e-09	-5.553523e+01	-3.656833e+02
1.200000e-07	-7.796661e-06	-5.586282e-09	-5.529453e+01	-3.654106e+02
1.300000e-07	-7.760089e-06	-5.539194e-09	-5.503516e+01	-3.651096e+02
1.400000e-07	-7.721243e-06	-5.485183e-09	-5.475966e+01	-3.647495e+02
1.500000e-07	-7.680268e-06	-5.523707e-09	-5.446906e+01	-3.643002e+02
1.600000e-07	-7.636801e-06	-5.609307e-09	-5.416079e+01	-3.637356e+02
1.700000e-07	-7.590582e-06	-5.568344e-09	-5.383300e+01	-3.630361e+02
1.800000e-07	-7.541581e-06	-5.554402e-09	-5.348549e+01	-3.621902e+02
1.900000e-07	-7.489561e-06	-5.512936e-09	-5.311655e+01	-3.611950e+02
2.000000e-07	-7.434578e-06	-5.428609e-09	-5.272661e+01	-3.600560e+02
2.100000e-07	-7.376861e-06	-5.417206e-09	-5.231727e+01	-3.587857e+02
2.200000e-07	-7.316422e-06	-5.428657e-09	-5.188864e+01	-3.574015e+02
2.300000e-07	-7.253424e-06	-5.447944e-09	-5.144185e+01	-3.559235e+02
2.400000e-07	-7.187694e-06	-5.377778e-09	-5.097569e+01	-3.543715e+02
2.500000e-07	-7.119166e-06	-5.348344e-09	-5.048968e+01	-3.527634e+02
2.600000e-07	-7.048023e-06	-5.372869e-09	-4.998513e+01	-3.511128e+02
2.700000e-07	-6.974042e-06	-5.356295e-09	-4.946045e+01	-3.494283e+02
2.800000e-07	-6.897237e-06	-5.317257e-09	-4.891575e+01	-3.477130e+02
2.900000e-07	-6.817620e-06	-5.290727e-09	-4.835109e+01	-3.459649e+02
3.000000e-07	-6.735351e-06	-5.279957e-09	-4.776763e+01	-3.441777e+02
3.100000e-07	-6.650827e-06	-5.227443e-09	-4.716818e+01	-3.423424e+02
3.200000e-07	-6.564079e-06	-5.197766e-09	-4.655296e+01	-3.404487e+02
3.300000e-07	-6.474917e-06	-5.179893e-09	-4.592062e+01	-3.384866e+02
3.400000e-07	-6.383357e-06	-5.124121e-09	-4.527127e+01	-3.364472e+02
3.500000e-07	-6.289546e-06	-5.074755e-09	-4.460595e+01	-3.343242e+02
3.600000e-07	-6.193396e-06	-5.054153e-09	-4.392405e+01	-3.321138e+02
3.700000e-07	-6.094945e-06	-5.048096e-09	-4.322582e+01	-3.298149e+02
3.800000e-07	-5.994335e-06	-5.015780e-09	-4.251229e+01	-3.274286e+02
3.900000e-07	-5.891620e-06	-4.978378e-09	-4.178383e+01	-3.249576e+02
4.000000e-07	-5.786751e-06	-4.927668e-09	-4.104009e+01	-3.224051e+02
4.100000e-07	-5.679842e-06	-4.864664e-09	-4.028188e+01	-3.197744e+02
4.200000e-07	-5.571001e-06	-4.825344e-09	-3.950997e+01	-3.170679e+02
4.300000e-07	-5.460205e-06	-4.809858e-09	-3.872420e+01	-3.142867e+02
4.400000e-07	-5.347356e-06	-4.774052e-09	-3.792387e+01	-3.114304e+02
4.500000e-07	-5.232316e-06	-4.711299e-09	-3.710799e+01	-3.084968e+02
4.600000e-07	-5.115253e-06	-4.660011e-09	-3.627777e+01	-3.054822e+02
4.700000e-07	-4.996391e-06	-4.612214e-09	-3.543480e+01	-3.023819e+02
4.800000e-07	-4.875744e-06	-4.559179e-09	-3.457915e+01	-2.991900e+02
4.900000e-07	-4.753276e-06	-4.515761e-09	-3.371060e+01	-2.959004e+02
5.000000e-07	-4.629065e-06	-4.473011e-09	-3.282969e+01	-2.925068e+02
5.100000e-07	-4.503233e-06	-4.407075e-09	-3.193728e+01	-2.890031e+02
5.200000e-07	-4.375813e-06	-4.344272e-09	-3.103361e+01	-2.853836e+02
5.300000e-07	-4.246730e-06	-4.300982e-09	-3.011814e+01	-2.816432e+02
5.400000e-07	-4.116008e-06	-4.246159e-09	-2.919105e+01	-2.777777e+02
5.500000e-07	-3.983718e-06	-4.169223e-09	-2.825284e+01	-2.737835e+02
5.600000e-07	-3.849952e-06	-4.103542e-09	-2.730416e+01	-2.696583e+02
5.700000e-07	-3.714831e-06	-4.048050e-09	-2.634587e+01	-2.654006e+02
5.800000e-07	-3.578301e-06	-3.975425e-09	-2.537759e+01	-2.610097e+02
5.900000e-07	-3.440272e-06	-3.897438e-09	-2.439868e+01	-2.564859e+02
6.000000e-07	-3.300815e-06	-3.833228e-09	-2.340964e+01	-2.518299e+02
6.100000e-07	-3.159950e-06	-3.764624e-09	-2.241061e+01	-2.470424e+02
6.200000e-07	-3.017695e-06	-3.679782e-09	-2.140173e+01	-2.421236e+02
6.300000e-07	-2.874181e-06	-3.603278e-09	-2.038392e+01	-2.370727e+02
6.400000e-07	-2.729577e-06	-3.537624e-09	-1.935837e+01	-2.318869e+02
6.500000e-07	-2.584077e-06	-3.460969e-09	-1.832648e+01	-2.265611e+02
6.600000e-07	-2.437751e-06	-3.368956e-09	-1.728872e+01	-2.210877e+02
6.700000e-07	-2.290600e-06	-3.279317e-09	-1.624511e+01	-2.154560e+02
6.800000e-07	-2.142715e-06	-3.189748e-09	-1.519630e+01	-2.096528e+02
6.900000e-07	-1.994192e-06	-3.092171e-09	-1.414296e+01	-2.036626e+02
7.000000e-07	-1.844998e-06	-2.994282e-09	-1.308487e+01	-1.974691e+02
7.100000e-07	-1.695238e-06	-2.898549e-09	-1.202276e+01	-1.910557e+02
7.200000e-07	-1.545027e-06	-2.797317e-09	-1.095745e+01	-1.844068e+02
7.300000e-07	-1.394304e-06	-2.689051e-09	-9.888515e+00	-1.775089e+02
7.400000e-07	-1.243009e-06	-2.580125e-09	-8.815515e+00	-1.703515e+02
7.500000e-07	-1.091194e-06	-2.471088e-09	-7.738833e+00	-1.629268e+02
7.600000e-07	-9.389769e-07	-2.358922e-09	-6.659298e+00	-1.552297e+02
7.700000e-07	-7.864802e-07	-2.238186e-09	-5.577779e+00	-1.472568e+02
7.800000e-07	-6.337460e-07	-2.110317e-09	-4.494577e+00	-1.390046e+02
7.900000e-07	-4.807781e-07	-1.976886e-09	-3.409716e+00	-1.304679e+02
8.000000e-07	-3.276530e-07	-1.837379e-09	-2.323740e+00	-1.216378e+02
8.100000e-07	-1.744284e-07	-1.693801e-09	-1.237060e+00	-1.124994e+02
8.200000e-07	-2.102546e-08	-1.545540e-09	-1.491142e-01	-1.030317e+02
8.300000e-07	1.324837e-07	-1.391918e-09	9.395849e-01	-9.320639e+01
8.400000e-07	2.859139e-07	-1.233646e-09	2.027724e+00	-8.298922e+01
8.500000e-07	4.392419e-07	-1.071527e-09	3.115138e+00	-7.234228e+01
8.600000e-07	5.924524e-07	-9.047957e-10	4.201719e+00	-6.122726e+01
8.700000e-07	7.455272e-07	-7.328109e-10	5.287337e+00	-4.960993e+01
8.800000e-07	8.984029e-07	-5.505279e-10	6.371544e+00	-3.746522e+01
8.900000e-07	1.051048e-06	-3.567670e-10	7.454115e+00	-2.478232e+01
9.000000e-07	1.203414e-06	-1.566929e-10	8.534709e+00	-1.156939e+01
9.100000e-07	1.355252e-06	4.843040e-11	9.611555e+00	2.142862e+00
9.200000e-07	1.506487e-06	2.616961e-10	1.068412e+01	1.629908e+01
9.300000e-07	1.657146e-06	4.833393e-10	1.175261e+01	3.081923e+01
9.400000e-07	1.807175e-06	7.088822e-10	1.281663e+01	4.560063e+01
9.500000e-07	1.956555e-06	9.366582e-10	1.387604e+01	6.052204e+01
9.600000e-07	2.105269e-06	1.166526e-09	1.493073e+01	7.544967e+01
9.700000e-07	2.253269e-06	1.393487e-09	1.598036e+01	9.024437e+01
9.800000e-07	2.400405e-06	1.612149e-09	1.702386e+01	1.047695e+02
9.900000e-07	2.546600e-06	1.823880e-09	1.806069e+01	1.188988e+02
1.000000e-06	2.691912e-06	2.029371e-09	1.909125e+01	1.325234e+02
1.010000e-06	2.836273e-06	2.228836e-09	2.011507e+01	1.455571e+02
1.020000e-06	2.979480e-06	2.415299e-09	2.113071e+01	1.579399e+02
1.030000e-06	3.121532e-06	2.588872e-09	2.213815e+01	1.696396e+02
1.040000e-06	3.262341e-06	2.754550e-09	2.313678e+01	1.806500e+02
1.050000e-06	3.401770e-06	2.910773e-09	2.412562e+01	1.909884e+02
1.060000e-06	3.539888e-06	3.057786e-09	2.510516e+01	2.006907e+02
1.070000e-06	3.676671e-06	3.196473e-09	2.607524e+01	2.098053e+02
1.080000e-06	3.812007e-06	3.330156e-09	2.703505e+01	2.183874e+02
1.090000e-06	3.946006e-06	3.457737e-09	2.798538e+01	2.264929e+02
1.100000e-06	4.078589e-06	3.577889e-09	2.892567e+01	2.341739e+02
1.110000e-06	4.209636e-06	3.693691e-09	2.985507e+01	2.414752e+02
1.120000e-06	4.339297e-06	3.801522e-09	3.077464e+01	2.484321e+02
1.130000e-06	4.467455e-06	3.898922e-09	3.168354e+01	2.550706e+02
1.140000e-06	4.594057e-06	3.988293e-09	3.258141e+01	2.614081e+02
1.150000e-06	4.719110e-06	4.075093e-09	3.346830e+01	2.674559e+02
1.160000e-06	4.842487e-06	4.162156e-09	3.434330e+01	2.732217e+02
1.170000e-06	4.964191e-06	4.245672e-09	3.520643e+01	2.787124e+02
1.180000e-06	5.084144e-06	4.324631e-09	3.605715e+01	2.839363e+02
1.190000e-06	5.202247e-06	4.400778e-09	3.689474e+01	2.889049e+02
1.200000e-06	5.318355e-06	4.477187e-09	3.771819e+01	2.936330e+02
1.210000e-06	5.432330e-06	4.551303e-09	3.852651e+01	2.981387e+02
1.220000e-06	5.544195e-06	4.618438e-09	3.931987e+01	3.024418e+02
1.230000e-06	5.654085e-06	4.676789e-09	4.009921e+01	3.065622e+02
1.240000e-06	5.762007e-06	4.730334e-09	4.086461e+01	3.105177e+02
1.250000e-06	5.867873e-06	4.783975e-09	4.161541e+01	3.143220e+02
1.260000e-06	5.971545e-06	4.838478e-09	4.235066e+01	3.179834e+02
1.270000e-06	6.072978e-06	4.890690e-09	4.307004e+01	3.215047e+02
1.280000e-06	6.172180e-06	4.939208e-09	4.377358e+01	3.248827e+02
1.290000e-06	6.269012e-06	4.985432e-09	4.446032e+01	3.281103e+02
1.300000e-06	6.363565e-06	5.032331e-09	4.513090e+01	3.311779e+02
1.310000e-06	6.455901e-06	5.078813e-09	4.578575e+01	3.340758e+02
1.320000e-06	6.545938e-06	5.120604e-09	4.642430e+01	3.367965e+02
1.330000e-06	6.633624e-06	5.156865e-09	4.704618e+01	3.393370e+02
1.340000e-06	6.718992e-06	5.190055e-09	4.765162e+01	3.416997e+02
1.350000e-06	6.802104e-06	5.222530e-09	4.824105e+01	3.438931e+02
1.360000e-06	6.882749e-06	5.252959e-09	4.881299e+01	3.459314e+02
1.370000e-06	6.960786e-06	5.281478e-09	4.936644e+01	3.478330e+02
1.380000e-06	7.036234e-06	5.308935e-09	4.990152e+01	3.496185e+02
1.390000e-06	7.109009e-06	5.335888e-09	5.041765e+01	3.513085e+02
1.400000e-06	7.179245e-06	5.361720e-09	5.091577e+01	3.529207e+02
1.410000e-06	7.246965e-06	5.387236e-09	5.139604e+01	3.544687e+02
1.420000e-06	7.312017e-06	5.410697e-09	5.185740e+01	3.559600e+02
1.430000e-06	7.374534e-06	5.430655e-09	5.230077e+01	3.573962e+02
1.440000e-06	7.434637e-06	5.449467e-09	5.272702e+01	3.587727e+02
1.450000e-06	7.492076e-06	5.467322e-09	5.313439e+01	3.600809e+02
1.460000e-06	7.546717e-06	5.483220e-09	5.352191e+01	3.613099e+02
1.470000e-06	7.598380e-06	5.497365e-09	5.388831e+01	3.624486e+02
1.480000e-06	7.646949e-06	5.510949e-09	5.423276e+01	3.634883e+02
1.490000e-06	7.692727e-06	5.524088e-09	5.455742e+01	3.644247e+02
1.500000e-06	7.735874e-06	5.537345e-09	5.486343e+01	3.652586e+02
1.510000e-06	7.776246e-06	5.551787e-09	5.514975e+01	3.659964e+02
1.520000e-06	7.813822e-06	5.565736e-09	5.541624e+01	3.666496e+02
1.530000e-06	7.848694e-06	5.577395e-09	5.566355e+01	3.672329e+02
1.540000e-06	7.880810e-06	5.585612e-09	5.589132e+01	3.677622e+02
1.550000e-06	7.910191e-06	5.591463e-09	5.609969e+01	3.682522e+02
1.560000e-06	7.936676e-06	5.597472e-09	5.628753e+01	3.687141e+02
1.570000e-06	7.960155e-06	5.603939e-09	5.645404e+01	3.691539e+02
1.580000e-06	7.980901e-06	5.610563e-09	5.660118e+01	3.695707e+02
1.590000e-06	7.998880e-06	5.615529e-09	5.672868e+01	3.699577e+02
1.600000e-06	8.013811e-06	5.619257e-09	5.683458e+01	3.703021e+02
1.610000e-06	8.025591e-06	5.623507e-09	5.691812e+01	3.705877e+02
1.620000e-06	8.034234e-06	5.628377e-09	5.697942e+01	3.707970e+02
1.630000e-06	8.039980e-06	5.631586e-09	5.702016e+01	3.709143e+02
1.640000e-06	8.042905e-06	5.631340e-09	5.704091e+01	3.709280e+02
1.650000e-06	8.042988e-06	5.627855e-09	5.704150e+01	3.708332e+02
1.660000e-06	8.040404e-06	5.621396e-09	5.702317e+01	3.706329e+02
1.670000e-06	8.035152e-06	5.618152e-09	5.698593e+01	3.703382e+02
1.680000e-06	8.027166e-06	5.614350e-09	5.692929e+01	3.699674e+02
1.690000e-06	8.016474e-06	5.607953e-09	5.685346e+01	3.695444e+02
1.700000e-06	8.002907e-06	5.605746e-09	5.675724e+01	3.690955e+02
1.710000e-06	7.986640e-06	5.607074e-09	5.664188e+01	3.686465e+02
1.720000e-06	7.968129e-06	5.605402e-09	5.651059e+01	3.682195e+02
1.730000e-06	7.947315e-06	5.543134e-09	5.636298e+01	3.678297e+02
1.740000e-06	7.923546e-06	5.513214e-09	5.619440e+01	3.674839e+02
1.750000e-06	7.896192e-06	5.535605e-09	5.600041e+01	3.671788e+02
1.760000e-06	7.865216e-06	5.532927e-09	5.578073e+01	3.669015e+02
1.770000e-06	7.831331e-06	5.539674e-09	5.554041e+01	3.666308e+02
1.780000e-06	7.795164e-06	5.606348e-09	5.528391e+01	3.663393e+02
1.790000e-06	7.756765e-06	5.617927e-09	5.501158e+01	3.659964e+02
1.800000e-06	7.716286e-06	5.535690e-09	5.472450e+01	3.655716e+02
1.810000e-06	7.673478e-06	5.576285e-09	5.442091e+01	3.650375e+02
1.820000e-06	7.627928e-06	5.540790e-09	5.409786e+01	3.643727e+02
1.830000e-06	7.579709e-06	5.547487e-09	5.375589e+01	3.635635e+02
1.840000e-06	7.528553e-06	5.603100e-09	5.339309e+01	3.626050e+02
1.850000e-06	7.474351e-06	5.564590e-09	5.300868e+01	3.615006e+02
1.860000e-06	7.417400e-06	5.568888e-09	5.260478e+01	3.602612e+02
1.870000e-06	7.357804e-06	5.432154e-09	5.218212e+01	3.589032e+02
1.880000e-06	7.295555e-06	5.413498e-09	5.174065e+01	3.574462e+02
1.890000e-06	7.230431e-06	5.448255e-09	5.127879e+01	3.559105e+02
1.900000e-06	7.162500e-06	5.393052e-09	5.079701e+01	3.543145e+02
1.910000e-06	7.091796e-06	5.414995e-09	5.029557e+01	3.526731e+02
1.920000e-06	7.018333e-06	5.348270e-09	4.977456e+01	3.509961e+02
1.930000e-06	6.942158e-06	5.307202e-09	4.923433e+01	3.492881e+02
1.940000e-06	6.863193e-06	5.271042e-09	4.867430e+01	3.475481e+02
1.950000e-06	6.781715e-06	5.281206e-09	4.809645e+01	3.457710e+02
1.960000e-06	6.697761e-06	5.285763e-09	4.750104e+01	3.439482e+02
1.970000e-06	6.611275e-06	5.203026e-09	4.688768e+01	3.420697e+02
1.980000e-06	6.522360e-06	5.184011e-09	4.625709e+01	3.401251e+02
1.990000e-06	6.431160e-06	5.144490e-09	4.561029e+01	3.381053e+02
2.000000e-06	6.337725e-06	5.136086e-09	4.494764e+01	3.360032e+02
2.010000e-06	6.241930e-06	5.098480e-09	4.426826e+01	3.338144e+02
2.020000e-06	6.143898e-06	5.064489e-09	4.357300e+01	3.315372e+02
2.030000e-06	6.043659e-06	5.009788e-09	4.286210e+01	3.291721e+02
2.040000e-06	5.941266e-06	4.955449e-09	4.213593e+01	3.267214e+02
2.050000e-06	5.836806e-06	4.959275e-09	4.139508e+01	3.241885e+02
2.060000e-06	5.730390e-06	4.938054e-09	4.064037e+01	3.215767e+02
2.070000e-06	5.622050e-06	4.884852e-09	3.987202e+01	3.188885e+02
2.080000e-06	5.511665e-06	4.804455e-09	3.908916e+01	3.161256e+02
2.090000e-06	5.399281e-06	4.759995e-09	3.829212e+01	3.132877e+02
2.100000e-06	5.284867e-06	4.717962e-09	3.748069e+01	3.103733e+02
2.110000e-06	5.168335e-06	4.701148e-09	3.665423e+01	3.073789e+02
2.120000e-06	5.049735e-06	4.680308e-09	3.581312e+01	3.043000e+02
2.130000e-06	4.929267e-06	4.620490e-09	3.495875e+01	3.011311e+02
2.140000e-06	4.807024e-06	4.531318e-09	3.409179e+01	2.978661e+02
2.150000e-06	4.683092e-06	4.472765e-09	3.321285e+01	2.944987e+02
2.160000e-06	4.557420e-06	4.448386e-09	3.232158e+01	2.910226e+02
2.170000e-06	4.430031e-06	4.404581e-09	3.141813e+01	2.874321e+02
2.180000e-06	4.301049e-06	4.342475e-09	3.050338e+01	2.837219e+02
2.190000e-06	4.170571e-06	4.273770e-09	2.957801e+01	2.798876e+02
2.200000e-06	4.038636e-06	4.206725e-09	2.864232e+01	2.759254e+02
2.210000e-06	3.905078e-06	4.138583e-09	2.769512e+01	2.718327e+02
2.220000e-06	3.770001e-06	4.094924e-09	2.673714e+01	2.676077e+02
2.230000e-06	3.633539e-06	4.046773e-09	2.576934e+01	2.632496e+02
2.240000e-06	3.495734e-06	3.969622e-09	2.479202e+01	2.587586e+02
2.250000e-06	3.356528e-06	3.881069e-09	2.380476e+01	2.541351e+02
2.260000e-06	3.215960e-06	3.816759e-09	2.280784e+01	2.493800e+02
2.270000e-06	3.074094e-06	3.756379e-09	2.180171e+01	2.444936e+02
2.280000e-06	2.931039e-06	3.674358e-09	2.078715e+01	2.394754e+02
2.290000e-06	2.786940e-06	3.583658e-09	1.976520e+01	2.343232e+02
2.300000e-06	2.641837e-06	3.495500e-09	1.873612e+01	2.290327e+02
2.310000e-06	2.495884e-06	3.412442e-09	1.770100e+01	2.235966e+02
2.320000e-06	2.349158e-06	3.338167e-09	1.666041e+01	2.180052e+02
2.330000e-06	2.201594e-06	3.270171e-09	1.561388e+01	2.122457e+02
2.340000e-06	2.053213e-06	3.183993e-09	1.456155e+01	2.063034e+02
2.350000e-06	1.904168e-06	3.074157e-09	1.350451e+01	2.001618e+02
2.360000e-06	1.754504e-06	2.965454e-09	1.244308e+01	1.938044e+02
2.370000e-06	1.604261e-06	2.871125e-09	1.137755e+01	1.872153e+02
2.380000e-06	1.453479e-06	2.779875e-09	1.030818e+01	1.803804e+02
2.390000e-06	1.302187e-06	2.674803e-09	9.235210e+00	1.732882e+02
2.400000e-06	1.150466e-06	2.554429e-09	8.159195e+00	1.659305e+02
2.410000e-06	9.984287e-07	2.430491e-09	7.080935e+00	1.583014e+02
2.420000e-06	8.460799e-07	2.312251e-09	6.000465e+00	1.503973e+02
2.430000e-06	6.934400e-07	2.200427e-09	4.917931e+00	1.422148e+02
2.440000e-06	5.406109e-07	2.083647e-09	3.834055e+00	1.337495e+02
2.450000e-06	3.875749e-07	1.951105e-09	2.748711e+00	1.249934e+02
2.460000e-06	2.343528e-07	1.804901e-09	1.662049e+00	1.159334e+02
2.470000e-06	8.101598e-08	1.654750e-09	5.745717e-01	1.065499e+02
2.480000e-06	-7.236959e-08	1.505011e-09	-5.132508e-01	9.681653e+01
2.490000e-06	-2.257371e-07	1.353398e-09	-1.600945e+00	8.670033e+01
2.500000e-06	-3.790423e-07	1.194951e-09	-2.688198e+00	7.616403e+01
2.510000e-06	-5.322005e-07	1.027971e-09	-3.774408e+00	6.516902e+01
2.520000e-06	-6.851943e-07	8.520283e-10	-4.859452e+00	5.367962e+01
2.530000e-06	-8.380109e-07	6.726535e-10	-5.943239e+00	4.166796e+01
2.540000e-06	-9.905632e-07	4.890389e-10	-7.025152e+00	2.911921e+01
2.550000e-06	-1.142727e-06	2.924886e-10	-8.104311e+00	1.603638e+01
2.560000e-06	-1.294449e-06	7.961582e-11	-9.180334e+00	2.444297e+00
2.570000e-06	-1.445747e-06	-1.416519e-10	-1.025335e+01	-1.160794e+01
2.580000e-06	-1.596548e-06	-3.642604e-10	-1.132284e+01	-2.604636e+01
2.590000e-06	-1.746737e-06	-5.896872e-10	-1.238800e+01	-4.077362e+01
2.600000e-06	-1.896258e-06	-8.197500e-10	-1.344841e+01	-5.567265e+01
2.610000e-06	-2.045099e-06	-1.052133e-09	-1.450400e+01	-7.061214e+01
2.620000e-06	-2.193240e-06	-1.282703e-09	-1.555463e+01	-8.545357e+01
2.630000e-06	-2.340493e-06	-1.508347e-09	-1.659896e+01	-1.000589e+02
2.640000e-06	-2.486760e-06	-1.725439e-09	-1.763629e+01	-1.142987e+02
2.650000e-06	-2.632150e-06	-1.934125e-09	-1.866741e+01	-1.280589e+02
2.660000e-06	-2.776560e-06	-2.135787e-09	-1.969158e+01	-1.412474e+02
2.670000e-06	-2.919878e-06	-2.330306e-09	-2.070801e+01	-1.537976e+02
2.680000e-06	-3.061990e-06	-2.511901e-09	-2.171587e+01	-1.656700e+02
2.690000e-06	-3.202894e-06	-2.679280e-09	-2.271518e+01	-1.768524e+02
2.700000e-06	-3.342603e-06	-2.835923e-09	-2.370600e+01	-1.873566e+02
2.710000e-06	-3.481000e-06	-2.983869e-09	-2.468752e+01	-1.972142e+02
2.720000e-06	-3.618121e-06	-3.126447e-09	-2.566000e+01	-2.064711e+02
2.730000e-06	-3.753872e-06	-3.263586e-09	-2.662275e+01	-2.151815e+02
2.740000e-06	-3.888239e-06	-3.394044e-09	-2.757569e+01	-2.234015e+02
2.750000e-06	-4.021284e-06	-3.515122e-09	-2.851926e+01	-2.311846e+02
2.760000e-06	-4.152852e-06	-3.628096e-09	-2.945235e+01	-2.385775e+02
2.770000e-06	-4.282940e-06	-3.736906e-09	-3.037495e+01	-2.456182e+02
2.780000e-06	-4.411572e-06	-3.841018e-09	-3.128721e+01	-2.523348e+02
2.790000e-06	-4.538652e-06	-3.937918e-09	-3.218848e+01	-2.587467e+02
2.800000e-06	-4.664201e-06	-4.027118e-09	-3.307888e+01	-2.648666e+02
2.810000e-06	-4.788117e-06	-4.112500e-09	-3.395770e+01	-2.707027e+02
2.820000e-06	-4.910340e-06	-4.195820e-09	-3.482451e+01	-2.762619e+02
2.830000e-06	-5.030821e-06	-4.277537e-09	-3.567898e+01	-2.815521e+02
2.840000e-06	-5.149377e-06	-4.356294e-09	-3.651978e+01	-2.865837e+02
2.850000e-06	-5.265908e-06	-4.430327e-09	-3.734623e+01	-2.913708e+02
2.860000e-06	-5.380289e-06	-4.501564e-09	-3.815743e+01	-2.959307e+02
2.870000e-06	-5.492474e-06	-4.572105e-09	-3.895306e+01	-3.002830e+02
2.880000e-06	-5.602500e-06	-4.640091e-09	-3.973337e+01	-3.044478e+02
2.890000e-06	-5.710531e-06	-4.704547e-09	-4.049953e+01	-3.084435e+02
2.900000e-06	-5.816660e-06	-4.765822e-09	-4.125221e+01	-3.122850e+02
2.910000e-06	-5.920621e-06	-4.822752e-09	-4.198951e+01	-3.159821e+02
2.920000e-06	-6.022382e-06	-4.877303e-09	-4.271120e+01	-3.195389e+02
2.930000e-06	-6.122008e-06	-4.931609e-09	-4.341776e+01	-3.229538e+02
2.940000e-06	-6.219434e-06	-4.984058e-09	-4.410872e+01	-3.262203e+02
