# Temperatura_=_35.67
# Concentracion g/m^3_=_5000.0
# C_Vs_to_Am_M_A/Vsm_=_65563218390.804596
# pendiente_HvsI_1/m_=_3716.3
# ordenada_HvsI_A/m_=_1297.0
# frecuencia_Hz_=_302567.68058286805

Tiempo_(s)	Campo_(V.s)	Magnetizacion_(V.s)	Campo_(kA/m)	Magnetizacion_(A/m)
0.000000e+00	-7.929849e-06	-5.893507e-09	-5.685871e+01	-3.853716e+02
1.000000e-08	-7.926937e-06	-5.889039e-09	-5.683783e+01	-3.851788e+02
2.000000e-08	-7.921343e-06	-5.884101e-09	-5.679772e+01	-3.849034e+02
3.000000e-08	-7.913135e-06	-5.878905e-09	-5.673887e+01	-3.845647e+02
4.000000e-08	-7.902143e-06	-5.875161e-09	-5.666005e+01	-3.841859e+02
5.000000e-08	-7.888299e-06	-5.870787e-09	-5.656079e+01	-3.837907e+02
6.000000e-08	-7.871522e-06	-5.865814e-09	-5.644049e+01	-3.834001e+02
7.000000e-08	-7.852283e-06	-5.864172e-09	-5.630255e+01	-3.830301e+02
8.000000e-08	-7.830838e-06	-5.864867e-09	-5.614878e+01	-3.826885e+02
9.000000e-08	-7.806522e-06	-5.845517e-09	-5.597443e+01	-3.823742e+02
1.000000e-07	-7.778935e-06	-5.877664e-09	-5.577662e+01	-3.820766e+02
1.100000e-07	-7.748294e-06	-5.879869e-09	-5.555692e+01	-3.817768e+02
1.200000e-07	-7.714878e-06	-5.831095e-09	-5.531732e+01	-3.814496e+02
1.300000e-07	-7.678842e-06	-5.771456e-09	-5.505894e+01	-3.810662e+02
1.400000e-07	-7.640482e-06	-5.722194e-09	-5.478389e+01	-3.805976e+02
1.500000e-07	-7.600070e-06	-5.756469e-09	-5.449413e+01	-3.800179e+02
1.600000e-07	-7.557266e-06	-5.767991e-09	-5.418721e+01	-3.793067e+02
1.700000e-07	-7.511715e-06	-5.854989e-09	-5.386060e+01	-3.784519e+02
1.800000e-07	-7.463548e-06	-5.812808e-09	-5.351523e+01	-3.774500e+02
1.900000e-07	-7.412422e-06	-5.709067e-09	-5.314865e+01	-3.763062e+02
2.000000e-07	-7.358257e-06	-5.703412e-09	-5.276028e+01	-3.750335e+02
2.100000e-07	-7.301384e-06	-5.639947e-09	-5.235248e+01	-3.736507e+02
2.200000e-07	-7.241790e-06	-5.674412e-09	-5.192518e+01	-3.721795e+02
2.300000e-07	-7.179641e-06	-5.667324e-09	-5.147955e+01	-3.706419e+02
2.400000e-07	-7.114830e-06	-5.603384e-09	-5.101485e+01	-3.690578e+02
2.500000e-07	-7.047242e-06	-5.578796e-09	-5.053023e+01	-3.674425e+02
2.600000e-07	-6.977085e-06	-5.583183e-09	-5.002719e+01	-3.658057e+02
2.700000e-07	-6.904223e-06	-5.603929e-09	-4.950475e+01	-3.641503e+02
2.800000e-07	-6.828563e-06	-5.565625e-09	-4.896225e+01	-3.624734e+02
2.900000e-07	-6.750144e-06	-5.545204e-09	-4.839997e+01	-3.607668e+02
3.000000e-07	-6.668974e-06	-5.491125e-09	-4.781796e+01	-3.590189e+02
3.100000e-07	-6.585404e-06	-5.441391e-09	-4.721875e+01	-3.572162e+02
3.200000e-07	-6.499694e-06	-5.451477e-09	-4.660419e+01	-3.553453e+02
3.300000e-07	-6.411629e-06	-5.413910e-09	-4.597275e+01	-3.533948e+02
3.400000e-07	-6.321156e-06	-5.360862e-09	-4.532404e+01	-3.513557e+02
3.500000e-07	-6.228471e-06	-5.304222e-09	-4.465947e+01	-3.492229e+02
3.600000e-07	-6.133555e-06	-5.292029e-09	-4.397890e+01	-3.469947e+02
3.700000e-07	-6.036360e-06	-5.272197e-09	-4.328199e+01	-3.446724e+02
3.800000e-07	-5.936944e-06	-5.241580e-09	-4.256916e+01	-3.422594e+02
3.900000e-07	-5.835475e-06	-5.226294e-09	-4.184160e+01	-3.397605e+02
4.000000e-07	-5.731998e-06	-5.167619e-09	-4.109965e+01	-3.371805e+02
4.100000e-07	-5.626432e-06	-5.089006e-09	-4.034272e+01	-3.345231e+02
4.200000e-07	-5.518802e-06	-5.035192e-09	-3.957099e+01	-3.317907e+02
4.300000e-07	-5.409311e-06	-5.043102e-09	-3.878591e+01	-3.289835e+02
4.400000e-07	-5.297955e-06	-5.006354e-09	-3.798747e+01	-3.260995e+02
4.500000e-07	-5.184519e-06	-4.933827e-09	-3.717411e+01	-3.231352e+02
4.600000e-07	-5.068917e-06	-4.883174e-09	-3.634521e+01	-3.200854e+02
4.700000e-07	-4.951429e-06	-4.842212e-09	-3.550280e+01	-3.169438e+02
4.800000e-07	-4.832226e-06	-4.783718e-09	-3.464809e+01	-3.137041e+02
4.900000e-07	-4.711221e-06	-4.729704e-09	-3.378046e+01	-3.103597e+02
5.000000e-07	-4.588460e-06	-4.692324e-09	-3.290024e+01	-3.069045e+02
5.100000e-07	-4.463975e-06	-4.625985e-09	-3.200766e+01	-3.033329e+02
5.200000e-07	-4.337917e-06	-4.558781e-09	-3.110379e+01	-2.996401e+02
5.300000e-07	-4.210321e-06	-4.514123e-09	-3.018890e+01	-2.958220e+02
5.400000e-07	-4.081226e-06	-4.467586e-09	-2.926326e+01	-2.918749e+02
5.500000e-07	-3.950667e-06	-4.389620e-09	-2.832712e+01	-2.877960e+02
5.600000e-07	-3.818501e-06	-4.316356e-09	-2.737947e+01	-2.835831e+02
5.700000e-07	-3.684835e-06	-4.258652e-09	-2.642106e+01	-2.792345e+02
5.800000e-07	-3.549822e-06	-4.183970e-09	-2.545298e+01	-2.747494e+02
5.900000e-07	-3.413467e-06	-4.103105e-09	-2.447529e+01	-2.701274e+02
6.000000e-07	-3.275817e-06	-4.036427e-09	-2.348830e+01	-2.653686e+02
6.100000e-07	-3.136778e-06	-3.968729e-09	-2.249136e+01	-2.604732e+02
6.200000e-07	-2.996339e-06	-3.880045e-09	-2.148439e+01	-2.554410e+02
6.300000e-07	-2.854625e-06	-3.799172e-09	-2.046827e+01	-2.502708e+02
6.400000e-07	-2.711753e-06	-3.733664e-09	-1.944385e+01	-2.449596e+02
6.500000e-07	-2.567902e-06	-3.658837e-09	-1.841241e+01	-2.395024e+02
6.600000e-07	-2.423075e-06	-3.566922e-09	-1.737397e+01	-2.338910e+02
6.700000e-07	-2.277340e-06	-3.472363e-09	-1.632901e+01	-2.281144e+02
6.800000e-07	-2.130955e-06	-3.377456e-09	-1.527940e+01	-2.221584e+02
6.900000e-07	-1.983900e-06	-3.273321e-09	-1.422498e+01	-2.160067e+02
7.000000e-07	-1.836172e-06	-3.171439e-09	-1.316574e+01	-2.096413e+02
7.100000e-07	-1.687862e-06	-3.075662e-09	-1.210233e+01	-2.030437e+02
7.200000e-07	-1.539032e-06	-2.974633e-09	-1.103519e+01	-1.961968e+02
7.300000e-07	-1.389860e-06	-2.862636e-09	-9.965591e+00	-1.890855e+02
7.400000e-07	-1.240344e-06	-2.750159e-09	-8.893530e+00	-1.816982e+02
7.500000e-07	-1.090336e-06	-2.637245e-09	-7.817944e+00	-1.740272e+02
7.600000e-07	-9.398840e-07	-2.519500e-09	-6.739169e+00	-1.660682e+02
7.700000e-07	-7.890521e-07	-2.395192e-09	-5.657672e+00	-1.578200e+02
7.800000e-07	-6.379176e-07	-2.264210e-09	-4.574005e+00	-1.492826e+02
7.900000e-07	-4.865930e-07	-2.126757e-09	-3.488976e+00	-1.404550e+02
8.000000e-07	-3.351001e-07	-1.981398e-09	-2.402739e+00	-1.313332e+02
8.100000e-07	-1.835055e-07	-1.833559e-09	-1.315774e+00	-1.219080e+02
8.200000e-07	-3.182427e-08	-1.681899e-09	-2.281868e-01	-1.121628e+02
8.300000e-07	1.199116e-07	-1.525133e-09	8.597915e-01	-1.020735e+02
8.400000e-07	2.716615e-07	-1.363097e-09	1.947871e+00	-9.160833e+01
8.500000e-07	4.233372e-07	-1.197201e-09	3.035418e+00	-8.072972e+01
8.600000e-07	5.748892e-07	-1.027725e-09	4.122078e+00	-6.939756e+01
8.700000e-07	7.263324e-07	-8.511911e-10	5.207958e+00	-5.757337e+01
8.800000e-07	8.775624e-07	-6.664946e-10	6.292310e+00	-4.522548e+01
8.900000e-07	1.028531e-06	-4.703232e-10	7.374787e+00	-3.233452e+01
9.000000e-07	1.179114e-06	-2.655926e-10	8.454498e+00	-1.889861e+01
9.100000e-07	1.329136e-06	-5.540439e-11	9.530186e+00	-4.937652e+00
9.200000e-07	1.478629e-06	1.596804e-10	1.060209e+01	9.503875e+00
9.300000e-07	1.627707e-06	3.836791e-10	1.167101e+01	2.435603e+01
9.400000e-07	1.776352e-06	6.156461e-10	1.273682e+01	3.952474e+01
9.500000e-07	1.924412e-06	8.500573e-10	1.379844e+01	5.489529e+01
9.600000e-07	2.071723e-06	1.088223e-09	1.485470e+01	7.033783e+01
9.700000e-07	2.218252e-06	1.324912e-09	1.590534e+01	8.571432e+01
9.800000e-07	2.363913e-06	1.554313e-09	1.694976e+01	1.008864e+02
9.900000e-07	2.508672e-06	1.777559e-09	1.798772e+01	1.157232e+02
1.000000e-06	2.652509e-06	1.994542e-09	1.901906e+01	1.301089e+02
1.010000e-06	2.795298e-06	2.206140e-09	2.004288e+01	1.439482e+02
1.020000e-06	2.936972e-06	2.406861e-09	2.105872e+01	1.571708e+02
1.030000e-06	3.077482e-06	2.592374e-09	2.206620e+01	1.697329e+02
1.040000e-06	3.216688e-06	2.769440e-09	2.306434e+01	1.816164e+02
1.050000e-06	3.354563e-06	2.938085e-09	2.405293e+01	1.928270e+02
1.060000e-06	3.491223e-06	3.098025e-09	2.503281e+01	2.033893e+02
1.070000e-06	3.626631e-06	3.248240e-09	2.600371e+01	2.133416e+02
1.080000e-06	3.760661e-06	3.392882e-09	2.696474e+01	2.227301e+02
1.090000e-06	3.893354e-06	3.532121e-09	2.791618e+01	2.316034e+02
1.100000e-06	4.024648e-06	3.664306e-09	2.885759e+01	2.400078e+02
1.110000e-06	4.154377e-06	3.790465e-09	2.978777e+01	2.479840e+02
1.120000e-06	4.282646e-06	3.908710e-09	3.070748e+01	2.555652e+02
1.130000e-06	4.409467e-06	4.016990e-09	3.161682e+01	2.627767e+02
1.140000e-06	4.534824e-06	4.116095e-09	3.251565e+01	2.696371e+02
1.150000e-06	4.658701e-06	4.211891e-09	3.340388e+01	2.761603e+02
1.160000e-06	4.780839e-06	4.306195e-09	3.427963e+01	2.823578e+02
1.170000e-06	4.901293e-06	4.394969e-09	3.514332e+01	2.882413e+02
1.180000e-06	5.020063e-06	4.477062e-09	3.599493e+01	2.938247e+02
1.190000e-06	5.136874e-06	4.555870e-09	3.683248e+01	2.991252e+02
1.200000e-06	5.251668e-06	4.636128e-09	3.765558e+01	3.041634e+02
1.210000e-06	5.364474e-06	4.717216e-09	3.846442e+01	3.089627e+02
1.220000e-06	5.475280e-06	4.791905e-09	3.925892e+01	3.135477e+02
1.230000e-06	5.584181e-06	4.856374e-09	4.003977e+01	3.179419e+02
1.240000e-06	5.691161e-06	4.914355e-09	4.080684e+01	3.221657e+02
1.250000e-06	5.796042e-06	4.973304e-09	4.155886e+01	3.262342e+02
1.260000e-06	5.898751e-06	5.032926e-09	4.229531e+01	3.301561e+02
1.270000e-06	5.999275e-06	5.090608e-09	4.301608e+01	3.339335e+02
1.280000e-06	6.097563e-06	5.143327e-09	4.372083e+01	3.375621e+02
1.290000e-06	6.193571e-06	5.193130e-09	4.440923e+01	3.410328e+02
1.300000e-06	6.287322e-06	5.244039e-09	4.508144e+01	3.443341e+02
1.310000e-06	6.378850e-06	5.292109e-09	4.573771e+01	3.474546e+02
1.320000e-06	6.468155e-06	5.335006e-09	4.637805e+01	3.503856e+02
1.330000e-06	6.555079e-06	5.375458e-09	4.700132e+01	3.531229e+02
1.340000e-06	6.639713e-06	5.412543e-09	4.760816e+01	3.556689e+02
1.350000e-06	6.722044e-06	5.449120e-09	4.819849e+01	3.580323e+02
1.360000e-06	6.801913e-06	5.484863e-09	4.877117e+01	3.602280e+02
1.370000e-06	6.879294e-06	5.517545e-09	4.932601e+01	3.622755e+02
1.380000e-06	6.954028e-06	5.548037e-09	4.986187e+01	3.641966e+02
1.390000e-06	7.026101e-06	5.576369e-09	5.037865e+01	3.660129e+02
1.400000e-06	7.095725e-06	5.603908e-09	5.087787e+01	3.677431e+02
1.410000e-06	7.162885e-06	5.629523e-09	5.135942e+01	3.694013e+02
1.420000e-06	7.227416e-06	5.652832e-09	5.182211e+01	3.709953e+02
1.430000e-06	7.289424e-06	5.674870e-09	5.226673e+01	3.725264e+02
1.440000e-06	7.349041e-06	5.695888e-09	5.269419e+01	3.739900e+02
1.450000e-06	7.406094e-06	5.715662e-09	5.310328e+01	3.753769e+02
1.460000e-06	7.460436e-06	5.732463e-09	5.349292e+01	3.766758e+02
1.470000e-06	7.511802e-06	5.745866e-09	5.386123e+01	3.778757e+02
1.480000e-06	7.560099e-06	5.759133e-09	5.420752e+01	3.789678e+02
1.490000e-06	7.605649e-06	5.772938e-09	5.453413e+01	3.799481e+02
1.500000e-06	7.648554e-06	5.786467e-09	5.484177e+01	3.808183e+02
1.510000e-06	7.688706e-06	5.800788e-09	5.512967e+01	3.815856e+02
1.520000e-06	7.726088e-06	5.814102e-09	5.539770e+01	3.822626e+02
1.530000e-06	7.760767e-06	5.825408e-09	5.564635e+01	3.828650e+02
1.540000e-06	7.792666e-06	5.834015e-09	5.587508e+01	3.834098e+02
1.550000e-06	7.821845e-06	5.841460e-09	5.608430e+01	3.839125e+02
1.560000e-06	7.848280e-06	5.848739e-09	5.627385e+01	3.843850e+02
1.570000e-06	7.871733e-06	5.855930e-09	5.644201e+01	3.848336e+02
1.580000e-06	7.892405e-06	5.862566e-09	5.659023e+01	3.852581e+02
1.590000e-06	7.910343e-06	5.866101e-09	5.671885e+01	3.856519e+02
1.600000e-06	7.925308e-06	5.868589e-09	5.682615e+01	3.860029e+02
1.610000e-06	7.937225e-06	5.872679e-09	5.691160e+01	3.862958e+02
1.620000e-06	7.946035e-06	5.877536e-09	5.697476e+01	3.865141e+02
1.630000e-06	7.951964e-06	5.880802e-09	5.701728e+01	3.866435e+02
1.640000e-06	7.955084e-06	5.882470e-09	5.703965e+01	3.866740e+02
1.650000e-06	7.955342e-06	5.880328e-09	5.704150e+01	3.866021e+02
1.660000e-06	7.952986e-06	5.880673e-09	5.702461e+01	3.864320e+02
1.670000e-06	7.948089e-06	5.873933e-09	5.698949e+01	3.861752e+02
1.680000e-06	7.940464e-06	5.868499e-09	5.693482e+01	3.858500e+02
1.690000e-06	7.930150e-06	5.864767e-09	5.686086e+01	3.854786e+02
1.700000e-06	7.917006e-06	5.860509e-09	5.676662e+01	3.850849e+02
1.710000e-06	7.901091e-06	5.855450e-09	5.665251e+01	3.846911e+02
1.720000e-06	7.882856e-06	5.842677e-09	5.652176e+01	3.843145e+02
1.730000e-06	7.862332e-06	5.842186e-09	5.637460e+01	3.839651e+02
1.740000e-06	7.839045e-06	5.827754e-09	5.620763e+01	3.836443e+02
1.750000e-06	7.812304e-06	5.781196e-09	5.601589e+01	3.833436e+02
1.760000e-06	7.781909e-06	5.784482e-09	5.579795e+01	3.830461e+02
1.770000e-06	7.748532e-06	5.814284e-09	5.555863e+01	3.827280e+02
1.780000e-06	7.712850e-06	5.846119e-09	5.530278e+01	3.823610e+02
1.790000e-06	7.674866e-06	5.838634e-09	5.503043e+01	3.819160e+02
1.800000e-06	7.634827e-06	5.894817e-09	5.474334e+01	3.813658e+02
1.810000e-06	7.592649e-06	5.797995e-09	5.444091e+01	3.806887e+02
1.820000e-06	7.547858e-06	5.736081e-09	5.411975e+01	3.798701e+02
1.830000e-06	7.500444e-06	5.807334e-09	5.377979e+01	3.789044e+02
1.840000e-06	7.450165e-06	5.750838e-09	5.341927e+01	3.777947e+02
1.850000e-06	7.396874e-06	5.845143e-09	5.303717e+01	3.765523e+02
1.860000e-06	7.340739e-06	5.753521e-09	5.263467e+01	3.751947e+02
1.870000e-06	7.281932e-06	5.666225e-09	5.221301e+01	3.737431e+02
1.880000e-06	7.220550e-06	5.660951e-09	5.177288e+01	3.722198e+02
1.890000e-06	7.156398e-06	5.593231e-09	5.131290e+01	3.706453e+02
1.900000e-06	7.089499e-06	5.652512e-09	5.083322e+01	3.690363e+02
1.910000e-06	7.019861e-06	5.604084e-09	5.033390e+01	3.674039e+02
1.920000e-06	6.947490e-06	5.580923e-09	4.981498e+01	3.657528e+02
1.930000e-06	6.872529e-06	5.487944e-09	4.927750e+01	3.640815e+02
1.940000e-06	6.794692e-06	5.474986e-09	4.871939e+01	3.623830e+02
1.950000e-06	6.714104e-06	5.540505e-09	4.814156e+01	3.606463e+02
1.960000e-06	6.631213e-06	5.463356e-09	4.754722e+01	3.588582e+02
1.970000e-06	6.545963e-06	5.451695e-09	4.693595e+01	3.570052e+02
1.980000e-06	6.458181e-06	5.383784e-09	4.630653e+01	3.550751e+02
1.990000e-06	6.368096e-06	5.369240e-09	4.566061e+01	3.530584e+02
2.000000e-06	6.275878e-06	5.331575e-09	4.499939e+01	3.509490e+02
2.010000e-06	6.181305e-06	5.320992e-09	4.432127e+01	3.487443e+02
2.020000e-06	6.084462e-06	5.305086e-09	4.362689e+01	3.464448e+02
2.030000e-06	5.985513e-06	5.209089e-09	4.291740e+01	3.440537e+02
2.040000e-06	5.884488e-06	5.161260e-09	4.219303e+01	3.415755e+02
2.050000e-06	5.781329e-06	5.155735e-09	4.145336e+01	3.390149e+02
2.060000e-06	5.676138e-06	5.183843e-09	4.069912e+01	3.363763e+02
2.070000e-06	5.569111e-06	5.104818e-09	3.993171e+01	3.336621e+02
2.080000e-06	5.460192e-06	5.035406e-09	3.915074e+01	3.308733e+02
2.090000e-06	5.349261e-06	4.972744e-09	3.835534e+01	3.280085e+02
2.100000e-06	5.236278e-06	4.923039e-09	3.754523e+01	3.250643e+02
2.110000e-06	5.121379e-06	4.896898e-09	3.672138e+01	3.220360e+02
2.120000e-06	5.004460e-06	4.896160e-09	3.588304e+01	3.189176e+02
2.130000e-06	4.885484e-06	4.855390e-09	3.502996e+01	3.157027e+02
2.140000e-06	4.764652e-06	4.753285e-09	3.416357e+01	3.123847e+02
2.150000e-06	4.642157e-06	4.686699e-09	3.328526e+01	3.089573e+02
2.160000e-06	4.518062e-06	4.655601e-09	3.239547e+01	3.054150e+02
2.170000e-06	4.392284e-06	4.624634e-09	3.149362e+01	3.017526e+02
2.180000e-06	4.264749e-06	4.549503e-09	3.057916e+01	2.979657e+02
2.190000e-06	4.135643e-06	4.484852e-09	2.965344e+01	2.940508e+02
2.200000e-06	4.005154e-06	4.412817e-09	2.871781e+01	2.900047e+02
2.210000e-06	3.873198e-06	4.350043e-09	2.777166e+01	2.858251e+02
2.220000e-06	3.739801e-06	4.302447e-09	2.681517e+01	2.815102e+02
2.230000e-06	3.604951e-06	4.257834e-09	2.584827e+01	2.770589e+02
2.240000e-06	3.468684e-06	4.177098e-09	2.487121e+01	2.724708e+02
2.250000e-06	3.331130e-06	4.080241e-09	2.388491e+01	2.677458e+02
2.260000e-06	3.192395e-06	4.013305e-09	2.289015e+01	2.628842e+02
2.270000e-06	3.052401e-06	3.957108e-09	2.188637e+01	2.578858e+02
2.280000e-06	2.911162e-06	3.880605e-09	2.087365e+01	2.527499e+02
2.290000e-06	2.768794e-06	3.783006e-09	1.985284e+01	2.474740e+02
2.300000e-06	2.625317e-06	3.688161e-09	1.882409e+01	2.420536e+02
2.310000e-06	2.480863e-06	3.596516e-09	1.778832e+01	2.364813e+02
2.320000e-06	2.335664e-06	3.521258e-09	1.674721e+01	2.307468e+02
2.330000e-06	2.189786e-06	3.456015e-09	1.570123e+01	2.248368e+02
2.340000e-06	2.043159e-06	3.373973e-09	1.464989e+01	2.187353e+02
2.350000e-06	1.895797e-06	3.261103e-09	1.359327e+01	2.124246e+02
2.360000e-06	1.747745e-06	3.144600e-09	1.253170e+01	2.058864e+02
2.370000e-06	1.599068e-06	3.045116e-09	1.146566e+01	1.991029e+02
2.380000e-06	1.449916e-06	2.951316e-09	1.039621e+01	1.920586e+02
2.390000e-06	1.300385e-06	2.844033e-09	9.324039e+00	1.847408e+02
2.400000e-06	1.150518e-06	2.721754e-09	8.249461e+00	1.771409e+02
2.410000e-06	1.000357e-06	2.592471e-09	7.172773e+00	1.692537e+02
2.420000e-06	8.498728e-07	2.465763e-09	6.093769e+00	1.610775e+02
2.430000e-06	6.990472e-07	2.348094e-09	5.012318e+00	1.526120e+02
2.440000e-06	5.479126e-07	2.229491e-09	3.928650e+00	1.438568e+02
2.450000e-06	3.964679e-07	2.094487e-09	2.842760e+00	1.348089e+02
2.460000e-06	2.447029e-07	1.944164e-09	1.754572e+00	1.254604e+02
2.470000e-06	9.276828e-08	1.791131e-09	6.651683e-01	1.157968e+02
2.480000e-06	-5.919125e-08	1.638514e-09	-4.244139e-01	1.057958e+02
2.490000e-06	-2.111395e-07	1.482294e-09	-1.513915e+00	9.542757e+01
2.500000e-06	-3.629847e-07	1.319527e-09	-2.602678e+00	8.465566e+01
2.510000e-06	-5.146549e-07	1.146993e-09	-3.690185e+00	7.344027e+01
2.520000e-06	-6.661303e-07	9.652060e-10	-4.776296e+00	6.174205e+01
2.530000e-06	-8.173300e-07	7.816794e-10	-5.860430e+00	4.952710e+01
2.540000e-06	-9.681469e-07	5.963600e-10	-6.941820e+00	3.677248e+01
2.550000e-06	-1.118592e-06	3.969806e-10	-8.020546e+00	2.347148e+01
2.560000e-06	-1.268659e-06	1.791412e-10	-9.096555e+00	9.638234e+00
2.570000e-06	-1.418322e-06	-4.685074e-11	-1.016967e+01	-4.689090e+00
2.580000e-06	-1.567545e-06	-2.737343e-10	-1.123963e+01	-1.944688e+01
2.590000e-06	-1.716210e-06	-5.035214e-10	-1.230559e+01	-3.454685e+01
2.600000e-06	-1.864206e-06	-7.386760e-10	-1.336676e+01	-4.987901e+01
2.610000e-06	-2.011513e-06	-9.760688e-10	-1.442298e+01	-6.531667e+01
2.620000e-06	-2.158024e-06	-1.214544e-09	-1.547349e+01	-8.072314e+01
2.630000e-06	-2.303671e-06	-1.451551e-09	-1.651782e+01	-9.595937e+01
2.640000e-06	-2.448608e-06	-1.679570e-09	-1.755704e+01	-1.108919e+02
2.650000e-06	-2.592676e-06	-1.898700e-09	-1.859004e+01	-1.254006e+02
2.660000e-06	-2.735626e-06	-2.112782e-09	-1.961502e+01	-1.393845e+02
2.670000e-06	-2.877424e-06	-2.320738e-09	-2.063175e+01	-1.527668e+02
2.680000e-06	-3.018059e-06	-2.516275e-09	-2.164012e+01	-1.654970e+02
2.690000e-06	-3.157455e-06	-2.699258e-09	-2.263962e+01	-1.775509e+02
2.700000e-06	-3.295643e-06	-2.870467e-09	-2.363047e+01	-1.889285e+02
2.710000e-06	-3.432697e-06	-3.029755e-09	-2.461317e+01	-1.996501e+02
2.720000e-06	-3.568425e-06	-3.182568e-09	-2.558637e+01	-2.097511e+02
2.730000e-06	-3.702714e-06	-3.331167e-09	-2.654925e+01	-2.192764e+02
2.740000e-06	-3.835734e-06	-3.474868e-09	-2.750303e+01	-2.282743e+02
2.750000e-06	-3.967457e-06	-3.608988e-09	-2.844751e+01	-2.367923e+02
2.760000e-06	-4.097744e-06	-3.734227e-09	-2.938170e+01	-2.448725e+02
2.770000e-06	-4.226667e-06	-3.853123e-09	-3.030610e+01	-2.525501e+02
2.780000e-06	-4.354129e-06	-3.965148e-09	-3.122003e+01	-2.598524e+02
2.790000e-06	-4.480034e-06	-4.070930e-09	-3.212280e+01	-2.667995e+02
2.800000e-06	-4.604500e-06	-4.169011e-09	-3.301525e+01	-2.734063e+02
2.810000e-06	-4.727351e-06	-4.259846e-09	-3.389612e+01	-2.796845e+02
2.820000e-06	-4.848434e-06	-4.346411e-09	-3.476431e+01	-2.856457e+02
2.830000e-06	-4.967682e-06	-4.432324e-09	-3.561934e+01	-2.913031e+02
2.840000e-06	-5.085004e-06	-4.517276e-09	-3.646056e+01	-2.966728e+02
2.850000e-06	-5.200303e-06	-4.596341e-09	-3.728728e+01	-3.017749e+02
2.860000e-06	-5.313362e-06	-4.669317e-09	-3.809794e+01	-3.066320e+02
2.870000e-06	-5.424332e-06	-4.740697e-09	-3.889362e+01	-3.112687e+02
2.880000e-06	-5.533398e-06	-4.813464e-09	-3.967564e+01	-3.157089e+02
2.890000e-06	-5.640551e-06	-4.884350e-09	-4.044396e+01	-3.199740e+02
2.900000e-06	-5.745803e-06	-4.951611e-09	-4.119863e+01	-3.240805e+02
2.910000e-06	-5.848840e-06	-5.014954e-09	-4.193743e+01	-3.280390e+02
2.920000e-06	-5.949596e-06	-5.072803e-09	-4.265988e+01	-3.318531e+02
2.930000e-06	-6.048286e-06	-5.127547e-09	-4.336750e+01	-3.355200e+02
2.940000e-06	-6.144934e-06	-5.180614e-09	-4.406049e+01	-3.390315e+02
