# Temperatura_=_41.93
# Concentracion g/m^3_=_5000.0
# C_Vs_to_Am_M_A/Vsm_=_65563218390.804596
# pendiente_HvsI_1/m_=_3716.3
# ordenada_HvsI_A/m_=_1297.0
# frecuencia_Hz_=_302574.34626263677

Tiempo_(s)	Campo_(V.s)	Magnetizacion_(V.s)	Campo_(kA/m)	Magnetizacion_(A/m)
0.000000e+00	-7.994299e-06	-5.714231e-09	-5.685412e+01	-3.742321e+02
1.000000e-08	-7.991447e-06	-5.711548e-09	-5.683384e+01	-3.740002e+02
2.000000e-08	-7.985936e-06	-5.704611e-09	-5.679464e+01	-3.737067e+02
3.000000e-08	-7.977869e-06	-5.696679e-09	-5.673727e+01	-3.733712e+02
4.000000e-08	-7.966984e-06	-5.692471e-09	-5.665986e+01	-3.730130e+02
5.000000e-08	-7.953204e-06	-5.688954e-09	-5.656186e+01	-3.726481e+02
6.000000e-08	-7.936456e-06	-5.683407e-09	-5.644275e+01	-3.722868e+02
7.000000e-08	-7.917150e-06	-5.681287e-09	-5.630545e+01	-3.719322e+02
8.000000e-08	-7.895644e-06	-5.684113e-09	-5.615250e+01	-3.715791e+02
9.000000e-08	-7.871329e-06	-5.673867e-09	-5.597958e+01	-3.712148e+02
1.000000e-07	-7.843702e-06	-5.701340e-09	-5.578310e+01	-3.708202e+02
1.100000e-07	-7.813000e-06	-5.695869e-09	-5.556475e+01	-3.703721e+02
1.200000e-07	-7.779502e-06	-5.649904e-09	-5.532652e+01	-3.698461e+02
1.300000e-07	-7.743303e-06	-5.599877e-09	-5.506908e+01	-3.692199e+02
1.400000e-07	-7.704767e-06	-5.551654e-09	-5.479501e+01	-3.684755e+02
1.500000e-07	-7.664147e-06	-5.560545e-09	-5.450613e+01	-3.676019e+02
1.600000e-07	-7.621124e-06	-5.572020e-09	-5.420016e+01	-3.665958e+02
1.700000e-07	-7.575406e-06	-5.667642e-09	-5.387502e+01	-3.654622e+02
1.800000e-07	-7.527027e-06	-5.601930e-09	-5.353096e+01	-3.642133e+02
1.900000e-07	-7.475622e-06	-5.514478e-09	-5.316537e+01	-3.628666e+02
2.000000e-07	-7.421160e-06	-5.526511e-09	-5.277805e+01	-3.614429e+02
2.100000e-07	-7.363983e-06	-5.446906e-09	-5.237142e+01	-3.599631e+02
2.200000e-07	-7.304111e-06	-5.476628e-09	-5.194561e+01	-3.584461e+02
2.300000e-07	-7.241620e-06	-5.483419e-09	-5.150119e+01	-3.569059e+02
2.400000e-07	-7.176412e-06	-5.426938e-09	-5.103744e+01	-3.553510e+02
2.500000e-07	-7.108428e-06	-5.381733e-09	-5.055395e+01	-3.537831e+02
2.600000e-07	-7.037815e-06	-5.384894e-09	-5.005177e+01	-3.521979e+02
2.700000e-07	-6.964469e-06	-5.406913e-09	-4.953014e+01	-3.505858e+02
2.800000e-07	-6.888321e-06	-5.360205e-09	-4.898859e+01	-3.489337e+02
2.900000e-07	-6.809396e-06	-5.335848e-09	-4.842728e+01	-3.472272e+02
3.000000e-07	-6.727768e-06	-5.288660e-09	-4.784676e+01	-3.454522e+02
3.100000e-07	-6.643740e-06	-5.240988e-09	-4.724917e+01	-3.435971e+02
3.200000e-07	-6.557492e-06	-5.245064e-09	-4.663579e+01	-3.416533e+02
3.300000e-07	-6.468964e-06	-5.212522e-09	-4.600619e+01	-3.396164e+02
3.400000e-07	-6.378006e-06	-5.162354e-09	-4.535931e+01	-3.374857e+02
3.500000e-07	-6.284687e-06	-5.105134e-09	-4.469564e+01	-3.352638e+02
3.600000e-07	-6.189123e-06	-5.085967e-09	-4.401601e+01	-3.329552e+02
3.700000e-07	-6.091264e-06	-5.060595e-09	-4.332005e+01	-3.305653e+02
3.800000e-07	-5.991198e-06	-5.029647e-09	-4.260840e+01	-3.280988e+02
3.900000e-07	-5.889064e-06	-5.016435e-09	-4.188204e+01	-3.255593e+02
4.000000e-07	-5.784847e-06	-4.961333e-09	-4.114087e+01	-3.229478e+02
4.100000e-07	-5.678557e-06	-4.884039e-09	-4.038495e+01	-3.202632e+02
4.200000e-07	-5.570264e-06	-4.828462e-09	-3.961479e+01	-3.175023e+02
4.300000e-07	-5.460084e-06	-4.830392e-09	-3.883120e+01	-3.146602e+02
4.400000e-07	-5.347919e-06	-4.790863e-09	-3.803351e+01	-3.117313e+02
4.500000e-07	-5.233567e-06	-4.714327e-09	-3.722025e+01	-3.087103e+02
4.600000e-07	-5.117136e-06	-4.661595e-09	-3.639222e+01	-3.055922e+02
4.700000e-07	-4.998872e-06	-4.620825e-09	-3.555114e+01	-3.023737e+02
4.800000e-07	-4.878771e-06	-4.561434e-09	-3.469701e+01	-2.990525e+02
4.900000e-07	-4.756816e-06	-4.511056e-09	-3.382968e+01	-2.956274e+02
5.000000e-07	-4.633119e-06	-4.480298e-09	-3.294997e+01	-2.920983e+02
5.100000e-07	-4.507747e-06	-4.413208e-09	-3.205834e+01	-2.884646e+02
5.200000e-07	-4.380757e-06	-4.337363e-09	-3.115521e+01	-2.847257e+02
5.300000e-07	-4.252173e-06	-4.288625e-09	-3.024075e+01	-2.808798e+02
5.400000e-07	-4.122104e-06	-4.244649e-09	-2.931571e+01	-2.769240e+02
5.500000e-07	-3.990520e-06	-4.166937e-09	-2.837991e+01	-2.728541e+02
5.600000e-07	-3.857375e-06	-4.090936e-09	-2.743301e+01	-2.686653e+02
5.700000e-07	-3.722818e-06	-4.036109e-09	-2.647606e+01	-2.643525e+02
5.800000e-07	-3.586824e-06	-3.967040e-09	-2.550889e+01	-2.599106e+02
5.900000e-07	-3.449365e-06	-3.886155e-09	-2.453131e+01	-2.553359e+02
6.000000e-07	-3.310506e-06	-3.815539e-09	-2.354376e+01	-2.506255e+02
6.100000e-07	-3.170232e-06	-3.750564e-09	-2.254616e+01	-2.457779e+02
6.200000e-07	-3.028565e-06	-3.664516e-09	-2.153865e+01	-2.407925e+02
6.300000e-07	-2.885705e-06	-3.582842e-09	-2.052265e+01	-2.356691e+02
6.400000e-07	-2.741782e-06	-3.519874e-09	-1.949910e+01	-2.304066e+02
6.500000e-07	-2.596863e-06	-3.448015e-09	-1.846846e+01	-2.250023e+02
6.600000e-07	-2.451115e-06	-3.355702e-09	-1.743192e+01	-2.194512e+02
6.700000e-07	-2.304482e-06	-3.257616e-09	-1.638909e+01	-2.137450e+02
6.800000e-07	-2.157038e-06	-3.164436e-09	-1.534049e+01	-2.078720e+02
6.900000e-07	-2.008944e-06	-3.064096e-09	-1.428727e+01	-2.018178e+02
7.000000e-07	-1.860223e-06	-2.963487e-09	-1.322960e+01	-1.955657e+02
7.100000e-07	-1.710927e-06	-2.867910e-09	-1.216783e+01	-1.890985e+02
7.200000e-07	-1.561107e-06	-2.769045e-09	-1.110233e+01	-1.823994e+02
7.300000e-07	-1.410757e-06	-2.662184e-09	-1.003307e+01	-1.754539e+02
7.400000e-07	-1.259916e-06	-2.553403e-09	-8.960315e+00	-1.682505e+02
7.500000e-07	-1.108632e-06	-2.443219e-09	-7.884408e+00	-1.607815e+02
7.600000e-07	-9.569221e-07	-2.328450e-09	-6.805470e+00	-1.530426e+02
7.700000e-07	-8.048354e-07	-2.206893e-09	-5.723855e+00	-1.450318e+02
7.800000e-07	-6.524805e-07	-2.077892e-09	-4.640332e+00	-1.367476e+02
7.900000e-07	-4.998852e-07	-1.944350e-09	-3.555100e+00	-1.281867e+02
8.000000e-07	-3.470250e-07	-1.806316e-09	-2.467984e+00	-1.193416e+02
8.100000e-07	-1.940390e-07	-1.665711e-09	-1.379973e+00	-1.101980e+02
8.200000e-07	-4.099019e-08	-1.518626e-09	-2.915154e-01	-1.007340e+02
8.300000e-07	1.121114e-07	-1.365239e-09	7.973177e-01	-9.091911e+01
8.400000e-07	2.652142e-07	-1.206794e-09	1.886159e+00	-8.071544e+01
8.500000e-07	4.182699e-07	-1.042152e-09	2.974665e+00	-7.008042e+01
8.600000e-07	5.712261e-07	-8.722560e-10	4.062465e+00	-5.897068e+01
8.700000e-07	7.239820e-07	-6.978882e-10	5.148839e+00	-4.734725e+01
8.800000e-07	8.765084e-07	-5.182869e-10	6.233581e+00	-3.518135e+01
8.900000e-07	1.028782e-06	-3.266761e-10	7.316527e+00	-2.246024e+01
9.000000e-07	1.180628e-06	-1.244511e-10	8.396431e+00	-9.192402e+00
9.100000e-07	1.331956e-06	8.457060e-11	9.472649e+00	4.588676e+00
9.200000e-07	1.482807e-06	3.000392e-10	1.054548e+01	1.882258e+01
9.300000e-07	1.633175e-06	5.231839e-10	1.161487e+01	3.342240e+01
9.400000e-07	1.782932e-06	7.503748e-10	1.267991e+01	4.827752e+01
9.500000e-07	1.931987e-06	9.753581e-10	1.373997e+01	6.325876e+01
9.600000e-07	2.080308e-06	1.204341e-09	1.479480e+01	7.822532e+01
9.700000e-07	2.227932e-06	1.435739e-09	1.584468e+01	9.303297e+01
9.800000e-07	2.374842e-06	1.658961e-09	1.688948e+01	1.075427e+02
9.900000e-07	2.520850e-06	1.869949e-09	1.792787e+01	1.216288e+02
1.000000e-06	2.665886e-06	2.071088e-09	1.895934e+01	1.351860e+02
1.010000e-06	2.809948e-06	2.266588e-09	1.998388e+01	1.481343e+02
1.020000e-06	2.952959e-06	2.451348e-09	2.100095e+01	1.604219e+02
1.030000e-06	3.094755e-06	2.622537e-09	2.200938e+01	1.720251e+02
1.040000e-06	3.235279e-06	2.785699e-09	2.300876e+01	1.829467e+02
1.050000e-06	3.374499e-06	2.941728e-09	2.399887e+01	1.932109e+02
1.060000e-06	3.512384e-06	3.090045e-09	2.497949e+01	2.028587e+02
1.070000e-06	3.648875e-06	3.227971e-09	2.595019e+01	2.119406e+02
1.080000e-06	3.783912e-06	3.362064e-09	2.691055e+01	2.205113e+02
1.090000e-06	3.917629e-06	3.489968e-09	2.786152e+01	2.286236e+02
1.100000e-06	4.049992e-06	3.611094e-09	2.880287e+01	2.363243e+02
1.110000e-06	4.180959e-06	3.727200e-09	2.973428e+01	2.436519e+02
1.120000e-06	4.310463e-06	3.834383e-09	3.065529e+01	2.506357e+02
1.130000e-06	4.438389e-06	3.933426e-09	3.156508e+01	2.572962e+02
1.140000e-06	4.564814e-06	4.024454e-09	3.246419e+01	2.636477e+02
1.150000e-06	4.689743e-06	4.112181e-09	3.335267e+01	2.697000e+02
1.160000e-06	4.813043e-06	4.199720e-09	3.422956e+01	2.754623e+02
1.170000e-06	4.934606e-06	4.283636e-09	3.509409e+01	2.809448e+02
1.180000e-06	5.054402e-06	4.361516e-09	3.594606e+01	2.861609e+02
1.190000e-06	5.172330e-06	4.436357e-09	3.678475e+01	2.911277e+02
1.200000e-06	5.288326e-06	4.512377e-09	3.760969e+01	2.958658e+02
1.210000e-06	5.402284e-06	4.588939e-09	3.842014e+01	3.003979e+02
1.220000e-06	5.514127e-06	4.658174e-09	3.921555e+01	3.047465e+02
1.230000e-06	5.624008e-06	4.718738e-09	3.999701e+01	3.089322e+02
1.240000e-06	5.731951e-06	4.775036e-09	4.076468e+01	3.129712e+02
1.250000e-06	5.837849e-06	4.831443e-09	4.151781e+01	3.168737e+02
1.260000e-06	5.941562e-06	4.886586e-09	4.225540e+01	3.206432e+02
1.270000e-06	6.043047e-06	4.939665e-09	4.297714e+01	3.242766e+02
1.280000e-06	6.142312e-06	4.989177e-09	4.368309e+01	3.277658e+02
1.290000e-06	6.239245e-06	5.035898e-09	4.437247e+01	3.310993e+02
1.300000e-06	6.333864e-06	5.083686e-09	4.504538e+01	3.342647e+02
1.310000e-06	6.426252e-06	5.132430e-09	4.570243e+01	3.372514e+02
1.320000e-06	6.516371e-06	5.177140e-09	4.634334e+01	3.400532e+02
1.330000e-06	6.604137e-06	5.214771e-09	4.696752e+01	3.426693e+02
1.340000e-06	6.689537e-06	5.248329e-09	4.757487e+01	3.451056e+02
1.350000e-06	6.772603e-06	5.282475e-09	4.816562e+01	3.473743e+02
1.360000e-06	6.853293e-06	5.317363e-09	4.873947e+01	3.494924e+02
1.370000e-06	6.931479e-06	5.349280e-09	4.929552e+01	3.514800e+02
1.380000e-06	7.007015e-06	5.379250e-09	4.983272e+01	3.533580e+02
1.390000e-06	7.079900e-06	5.408737e-09	5.035106e+01	3.551452e+02
1.400000e-06	7.150280e-06	5.435478e-09	5.085160e+01	3.568566e+02
1.410000e-06	7.218153e-06	5.459873e-09	5.133430e+01	3.585015e+02
1.420000e-06	7.283402e-06	5.483589e-09	5.179834e+01	3.600833e+02
1.430000e-06	7.346083e-06	5.505410e-09	5.224412e+01	3.615994e+02
1.440000e-06	7.406314e-06	5.525081e-09	5.267247e+01	3.630431e+02
1.450000e-06	7.463918e-06	5.544416e-09	5.308214e+01	3.644048e+02
1.460000e-06	7.518808e-06	5.561956e-09	5.347250e+01	3.656744e+02
1.470000e-06	7.570808e-06	5.577356e-09	5.384232e+01	3.668441e+02
1.480000e-06	7.619684e-06	5.592710e-09	5.418992e+01	3.679094e+02
1.490000e-06	7.665706e-06	5.607784e-09	5.451722e+01	3.688708e+02
1.500000e-06	7.709025e-06	5.622641e-09	5.482530e+01	3.697339e+02
1.510000e-06	7.749530e-06	5.637380e-09	5.511336e+01	3.705086e+02
1.520000e-06	7.787293e-06	5.651311e-09	5.538192e+01	3.712081e+02
1.530000e-06	7.822464e-06	5.663480e-09	5.563205e+01	3.718464e+02
1.540000e-06	7.854845e-06	5.671717e-09	5.586234e+01	3.724366e+02
1.550000e-06	7.884418e-06	5.677032e-09	5.607266e+01	3.729883e+02
1.560000e-06	7.911226e-06	5.683241e-09	5.626332e+01	3.735065e+02
1.570000e-06	7.935081e-06	5.692113e-09	5.643297e+01	3.739904e+02
1.580000e-06	7.956102e-06	5.700972e-09	5.658247e+01	3.744338e+02
1.590000e-06	7.974327e-06	5.706797e-09	5.671208e+01	3.748261e+02
1.600000e-06	7.989545e-06	5.710903e-09	5.682031e+01	3.751538e+02
1.610000e-06	8.001700e-06	5.714940e-09	5.690675e+01	3.754030e+02
1.620000e-06	8.010768e-06	5.718209e-09	5.697125e+01	3.755622e+02
1.630000e-06	8.016914e-06	5.719943e-09	5.701496e+01	3.756239e+02
1.640000e-06	8.020230e-06	5.720598e-09	5.703854e+01	3.755865e+02
1.650000e-06	8.020647e-06	5.719004e-09	5.704150e+01	3.754550e+02
1.660000e-06	8.018388e-06	5.719933e-09	5.702544e+01	3.752408e+02
1.670000e-06	8.013550e-06	5.712624e-09	5.699103e+01	3.749604e+02
1.680000e-06	8.006034e-06	5.707248e-09	5.693757e+01	3.746330e+02
1.690000e-06	7.995813e-06	5.704573e-09	5.686488e+01	3.742783e+02
1.700000e-06	7.982756e-06	5.700073e-09	5.677202e+01	3.739133e+02
1.710000e-06	7.966939e-06	5.695305e-09	5.665954e+01	3.735499e+02
1.720000e-06	7.948720e-06	5.681549e-09	5.652997e+01	3.731933e+02
1.730000e-06	7.928205e-06	5.667582e-09	5.638407e+01	3.728402e+02
1.740000e-06	7.904903e-06	5.645778e-09	5.621835e+01	3.724798e+02
1.750000e-06	7.878147e-06	5.616551e-09	5.602807e+01	3.720943e+02
1.760000e-06	7.847790e-06	5.622650e-09	5.581217e+01	3.716613e+02
1.770000e-06	7.814406e-06	5.641924e-09	5.557475e+01	3.711565e+02
1.780000e-06	7.778645e-06	5.671211e-09	5.532042e+01	3.705567e+02
1.790000e-06	7.740540e-06	5.676595e-09	5.504943e+01	3.698427e+02
1.800000e-06	7.700366e-06	5.703346e-09	5.476372e+01	3.690014e+02
1.810000e-06	7.658032e-06	5.606249e-09	5.446264e+01	3.680278e+02
1.820000e-06	7.612995e-06	5.559635e-09	5.414235e+01	3.669247e+02
1.830000e-06	7.565261e-06	5.598190e-09	5.380287e+01	3.657025e+02
1.840000e-06	7.514660e-06	5.534661e-09	5.344301e+01	3.643779e+02
1.850000e-06	7.461063e-06	5.602390e-09	5.306183e+01	3.629709e+02
1.860000e-06	7.404700e-06	5.538406e-09	5.266099e+01	3.615027e+02
1.870000e-06	7.345619e-06	5.453983e-09	5.224082e+01	3.599929e+02
1.880000e-06	7.283811e-06	5.427824e-09	5.180125e+01	3.584569e+02
1.890000e-06	7.219219e-06	5.391256e-09	5.134188e+01	3.569048e+02
1.900000e-06	7.151942e-06	5.434159e-09	5.086342e+01	3.553398e+02
1.910000e-06	7.081912e-06	5.391941e-09	5.036537e+01	3.537591e+02
1.920000e-06	7.009012e-06	5.374369e-09	4.984692e+01	3.521543e+02
1.930000e-06	6.933412e-06	5.287851e-09	4.930927e+01	3.505130e+02
1.940000e-06	6.855022e-06	5.266287e-09	4.875177e+01	3.488209e+02
1.950000e-06	6.774021e-06	5.320148e-09	4.817571e+01	3.470638e+02
1.960000e-06	6.690642e-06	5.266150e-09	4.758273e+01	3.452291e+02
1.970000e-06	6.604780e-06	5.239184e-09	4.697209e+01	3.433075e+02
1.980000e-06	6.516402e-06	5.171366e-09	4.634356e+01	3.412935e+02
1.990000e-06	6.425746e-06	5.146122e-09	4.569883e+01	3.391856e+02
2.000000e-06	6.332948e-06	5.109735e-09	4.503887e+01	3.369856e+02
2.010000e-06	6.237806e-06	5.104393e-09	4.436224e+01	3.346977e+02
2.020000e-06	6.140372e-06	5.091312e-09	4.366930e+01	3.323270e+02
2.030000e-06	6.040711e-06	5.004493e-09	4.296052e+01	3.298788e+02
2.040000e-06	5.938892e-06	4.942006e-09	4.223641e+01	3.273568e+02
2.050000e-06	5.834998e-06	4.925754e-09	4.149753e+01	3.247628e+02
2.060000e-06	5.729101e-06	4.946461e-09	4.074441e+01	3.220962e+02
2.070000e-06	5.621279e-06	4.881408e-09	3.997760e+01	3.193542e+02
2.080000e-06	5.511447e-06	4.817745e-09	3.919649e+01	3.165323e+02
2.090000e-06	5.399583e-06	4.760086e-09	3.840093e+01	3.136252e+02
2.100000e-06	5.285723e-06	4.708740e-09	3.759118e+01	3.106271e+02
2.110000e-06	5.169870e-06	4.677997e-09	3.676725e+01	3.075332e+02
2.120000e-06	5.052004e-06	4.674216e-09	3.592901e+01	3.043395e+02
2.130000e-06	4.932153e-06	4.628231e-09	3.507665e+01	3.010435e+02
2.140000e-06	4.810518e-06	4.519834e-09	3.421160e+01	2.976440e+02
2.150000e-06	4.687241e-06	4.446944e-09	3.333488e+01	2.941403e+02
2.160000e-06	4.562216e-06	4.421117e-09	3.244571e+01	2.905323e+02
2.170000e-06	4.435448e-06	4.394977e-09	3.154416e+01	2.868193e+02
2.180000e-06	4.306976e-06	4.326077e-09	3.063049e+01	2.829999e+02
2.190000e-06	4.176968e-06	4.260921e-09	2.970590e+01	2.790713e+02
2.200000e-06	4.045459e-06	4.184632e-09	2.877063e+01	2.750299e+02
2.210000e-06	3.912412e-06	4.112780e-09	2.782442e+01	2.708708e+02
2.220000e-06	3.777913e-06	4.066487e-09	2.686788e+01	2.665889e+02
2.230000e-06	3.641925e-06	4.031465e-09	2.590076e+01	2.621792e+02
2.240000e-06	3.504575e-06	3.954882e-09	2.492395e+01	2.576374e+02
2.250000e-06	3.365914e-06	3.851613e-09	2.393782e+01	2.529606e+02
2.260000e-06	3.225962e-06	3.777103e-09	2.294251e+01	2.481468e+02
2.270000e-06	3.084713e-06	3.723015e-09	2.193796e+01	2.431954e+02
2.280000e-06	2.942256e-06	3.653604e-09	2.092484e+01	2.381060e+02
2.290000e-06	2.798710e-06	3.562886e-09	1.990396e+01	2.328779e+02
2.300000e-06	2.654123e-06	3.470079e-09	1.887568e+01	2.275089e+02
2.310000e-06	2.508626e-06	3.376725e-09	1.784093e+01	2.219946e+02
2.320000e-06	2.362342e-06	3.298274e-09	1.680058e+01	2.163276e+02
2.330000e-06	2.215272e-06	3.234441e-09	1.575465e+01	2.104970e+02
2.340000e-06	2.067323e-06	3.156769e-09	1.470246e+01	2.044891e+02
2.350000e-06	1.918678e-06	3.046207e-09	1.364532e+01	1.982876e+02
2.360000e-06	1.769451e-06	2.928268e-09	1.258404e+01	1.918752e+02
2.370000e-06	1.619709e-06	2.829855e-09	1.151910e+01	1.852350e+02
2.380000e-06	1.469433e-06	2.740731e-09	1.045036e+01	1.783518e+02
2.390000e-06	1.318696e-06	2.639125e-09	9.378343e+00	1.712132e+02
2.400000e-06	1.167627e-06	2.520431e-09	8.303966e+00	1.638106e+02
2.410000e-06	1.016139e-06	2.392236e-09	7.226609e+00	1.561389e+02
2.420000e-06	8.642619e-07	2.267106e-09	6.146486e+00	1.481957e+02
2.430000e-06	7.120810e-07	2.153053e-09	5.064201e+00	1.399795e+02
2.440000e-06	5.596209e-07	2.038133e-09	3.979930e+00	1.314877e+02
2.450000e-06	4.069138e-07	1.905969e-09	2.893903e+00	1.227141e+02
2.460000e-06	2.540572e-07	1.759129e-09	1.806813e+00	1.136464e+02
2.470000e-06	1.010691e-07	1.610088e-09	7.187866e-01	1.042645e+02
2.480000e-06	-5.195843e-08	1.463999e-09	-3.695196e-01	9.454011e+01
2.490000e-06	-2.049211e-07	1.315304e-09	-1.457365e+00	8.443695e+01
2.500000e-06	-3.578410e-07	1.158308e-09	-2.544905e+00	7.391335e+01
2.510000e-06	-5.107004e-07	9.888213e-10	-3.632016e+00	6.292568e+01
2.520000e-06	-6.634234e-07	8.086835e-10	-4.718156e+00	5.143334e+01
2.530000e-06	-8.158846e-07	6.268720e-10	-5.802435e+00	3.940444e+01
2.540000e-06	-9.680255e-07	4.444995e-10	-6.884435e+00	2.682171e+01
2.550000e-06	-1.119812e-06	2.494739e-10	-7.963914e+00	1.368791e+01
2.560000e-06	-1.271130e-06	3.619080e-11	-9.040065e+00	3.000485e-02
2.570000e-06	-1.421998e-06	-1.855017e-10	-1.011301e+01	-1.409837e+01
2.580000e-06	-1.572480e-06	-4.082502e-10	-1.118322e+01	-2.861676e+01
2.590000e-06	-1.722422e-06	-6.324253e-10	-1.224958e+01	-4.342008e+01
2.600000e-06	-1.871711e-06	-8.615645e-10	-1.331130e+01	-5.838320e+01
2.610000e-06	-2.020298e-06	-1.093245e-09	-1.436802e+01	-7.336750e+01
2.620000e-06	-2.168028e-06	-1.325831e-09	-1.541866e+01	-8.822879e+01
2.630000e-06	-2.314891e-06	-1.555720e-09	-1.646312e+01	-1.028260e+02
2.640000e-06	-2.460979e-06	-1.774995e-09	-1.750207e+01	-1.170293e+02
2.650000e-06	-2.606123e-06	-1.982608e-09	-1.853431e+01	-1.307278e+02
2.660000e-06	-2.750173e-06	-2.181260e-09	-1.955877e+01	-1.438348e+02
2.670000e-06	-2.893190e-06	-2.373027e-09	-2.057588e+01	-1.562914e+02
2.680000e-06	-3.035116e-06	-2.552164e-09	-2.158524e+01	-1.680670e+02
2.690000e-06	-3.175828e-06	-2.716997e-09	-2.258596e+01	-1.791580e+02
2.700000e-06	-3.315266e-06	-2.871699e-09	-2.357762e+01	-1.895838e+02
2.710000e-06	-3.453459e-06	-3.018056e-09	-2.456042e+01	-1.993817e+02
2.720000e-06	-3.590363e-06	-3.160335e-09	-2.553406e+01	-2.086006e+02
2.730000e-06	-3.725894e-06	-3.299001e-09	-2.649793e+01	-2.172946e+02
2.740000e-06	-3.860123e-06	-3.432772e-09	-2.745255e+01	-2.255173e+02
2.750000e-06	-3.992978e-06	-3.555946e-09	-2.839739e+01	-2.333174e+02
2.760000e-06	-4.124352e-06	-3.667288e-09	-2.933170e+01	-2.407357e+02
2.770000e-06	-4.254325e-06	-3.773041e-09	-3.025605e+01	-2.478038e+02
2.780000e-06	-4.382838e-06	-3.874607e-09	-3.117001e+01	-2.545441e+02
2.790000e-06	-4.509848e-06	-3.970089e-09	-3.207328e+01	-2.609723e+02
2.800000e-06	-4.635334e-06	-4.058792e-09	-3.296572e+01	-2.670992e+02
2.810000e-06	-4.759129e-06	-4.143709e-09	-3.384613e+01	-2.729336e+02
2.820000e-06	-4.881265e-06	-4.226583e-09	-3.471474e+01	-2.784855e+02
2.830000e-06	-5.001681e-06	-4.308684e-09	-3.557112e+01	-2.837673e+02
2.840000e-06	-5.120158e-06	-4.388692e-09	-3.641371e+01	-2.887951e+02
2.850000e-06	-5.236542e-06	-4.463368e-09	-3.724141e+01	-2.935889e+02
2.860000e-06	-5.350768e-06	-4.533088e-09	-3.805377e+01	-2.981708e+02
2.870000e-06	-5.462885e-06	-4.601526e-09	-3.885112e+01	-3.025637e+02
2.880000e-06	-5.572882e-06	-4.670374e-09	-3.963341e+01	-3.067890e+02
2.890000e-06	-5.680864e-06	-4.737470e-09	-4.040136e+01	-3.108640e+02
2.900000e-06	-5.786966e-06	-4.801417e-09	-4.115593e+01	-3.148006e+02
2.910000e-06	-5.891055e-06	-4.861396e-09	-4.189620e+01	-3.186039e+02
2.920000e-06	-5.992929e-06	-4.916919e-09	-4.262071e+01	-3.222725e+02
2.930000e-06	-6.092553e-06	-4.970601e-09	-4.332922e+01	-3.257993e+02
2.940000e-06	-6.190054e-06	-5.022442e-09	-4.402263e+01	-3.291734e+02
