# Temperatura_=_39.41
# Concentracion g/m^3_=_5000.0
# C_Vs_to_Am_M_A/Vsm_=_65563218390.804596
# pendiente_HvsI_1/m_=_3716.3
# ordenada_HvsI_A/m_=_1297.0
# frecuencia_Hz_=_302579.705160314

Tiempo_(s)	Campo_(V.s)	Magnetizacion_(V.s)	Campo_(kA/m)	Magnetizacion_(A/m)
0.000000e+00	-8.015324e-06	-5.681907e-09	-5.684905e+01	-3.724376e+02
1.000000e-08	-8.012421e-06	-5.683684e-09	-5.682846e+01	-3.722389e+02
2.000000e-08	-8.006822e-06	-5.678847e-09	-5.678875e+01	-3.719640e+02
3.000000e-08	-7.998681e-06	-5.671548e-09	-5.673101e+01	-3.716302e+02
4.000000e-08	-7.987795e-06	-5.665927e-09	-5.665380e+01	-3.712568e+02
5.000000e-08	-7.973907e-06	-5.660885e-09	-5.655530e+01	-3.708627e+02
6.000000e-08	-7.957048e-06	-5.653409e-09	-5.643573e+01	-3.704638e+02
7.000000e-08	-7.937732e-06	-5.646998e-09	-5.629872e+01	-3.700704e+02
8.000000e-08	-7.916144e-06	-5.657426e-09	-5.614561e+01	-3.696862e+02
9.000000e-08	-7.891661e-06	-5.677499e-09	-5.597197e+01	-3.693073e+02
1.000000e-07	-7.863896e-06	-5.671286e-09	-5.577504e+01	-3.689226e+02
1.100000e-07	-7.833082e-06	-5.645977e-09	-5.555649e+01	-3.685153e+02
1.200000e-07	-7.799379e-06	-5.615154e-09	-5.531745e+01	-3.680647e+02
1.300000e-07	-7.762996e-06	-5.571886e-09	-5.505940e+01	-3.675488e+02
1.400000e-07	-7.724346e-06	-5.522477e-09	-5.478528e+01	-3.669468e+02
1.500000e-07	-7.683543e-06	-5.530156e-09	-5.449588e+01	-3.662417e+02
1.600000e-07	-7.640351e-06	-5.591202e-09	-5.418954e+01	-3.654220e+02
1.700000e-07	-7.594468e-06	-5.589569e-09	-5.386411e+01	-3.644827e+02
1.800000e-07	-7.545841e-06	-5.564610e-09	-5.351922e+01	-3.634254e+02
1.900000e-07	-7.494196e-06	-5.533297e-09	-5.315293e+01	-3.622580e+02
2.000000e-07	-7.439500e-06	-5.485938e-09	-5.276499e+01	-3.609928e+02
2.100000e-07	-7.382039e-06	-5.452186e-09	-5.235745e+01	-3.596447e+02
2.200000e-07	-7.321915e-06	-5.446181e-09	-5.193102e+01	-3.582292e+02
2.300000e-07	-7.259264e-06	-5.456410e-09	-5.148666e+01	-3.567606e+02
2.400000e-07	-7.193854e-06	-5.409800e-09	-5.102274e+01	-3.552495e+02
2.500000e-07	-7.125634e-06	-5.374941e-09	-5.053888e+01	-3.537028e+02
2.600000e-07	-7.054803e-06	-5.394138e-09	-5.003651e+01	-3.521222e+02
2.700000e-07	-6.981125e-06	-5.384814e-09	-4.951394e+01	-3.505054e+02
2.800000e-07	-6.904614e-06	-5.335364e-09	-4.897129e+01	-3.488462e+02
2.900000e-07	-6.825298e-06	-5.305309e-09	-4.840874e+01	-3.471363e+02
3.000000e-07	-6.743298e-06	-5.292829e-09	-4.782715e+01	-3.453662e+02
3.100000e-07	-6.659032e-06	-5.252510e-09	-4.722949e+01	-3.435271e+02
3.200000e-07	-6.572576e-06	-5.225713e-09	-4.661630e+01	-3.416117e+02
3.300000e-07	-6.483716e-06	-5.207047e-09	-4.598605e+01	-3.396150e+02
3.400000e-07	-6.392436e-06	-5.148935e-09	-4.533864e+01	-3.375346e+02
3.500000e-07	-6.298936e-06	-5.093579e-09	-4.467549e+01	-3.353707e+02
3.600000e-07	-6.203138e-06	-5.071148e-09	-4.399604e+01	-3.331251e+02
3.700000e-07	-6.104993e-06	-5.057520e-09	-4.329994e+01	-3.308008e+02
3.800000e-07	-6.004627e-06	-5.025886e-09	-4.258809e+01	-3.284010e+02
3.900000e-07	-5.902163e-06	-4.992816e-09	-4.186136e+01	-3.259282e+02
4.000000e-07	-5.797644e-06	-4.949014e-09	-4.112005e+01	-3.233834e+02
4.100000e-07	-5.691015e-06	-4.887224e-09	-4.036378e+01	-3.207662e+02
4.200000e-07	-5.582372e-06	-4.840657e-09	-3.959323e+01	-3.180746e+02
4.300000e-07	-5.471814e-06	-4.820387e-09	-3.880909e+01	-3.153049e+02
4.400000e-07	-5.359283e-06	-4.784847e-09	-3.801096e+01	-3.124530e+02
4.500000e-07	-5.244576e-06	-4.721316e-09	-3.719739e+01	-3.095139e+02
4.600000e-07	-5.127734e-06	-4.670779e-09	-3.636869e+01	-3.064831e+02
4.700000e-07	-5.009058e-06	-4.627119e-09	-3.552697e+01	-3.033565e+02
4.800000e-07	-4.888633e-06	-4.573287e-09	-3.467285e+01	-3.001305e+02
4.900000e-07	-4.766387e-06	-4.524798e-09	-3.380582e+01	-2.968025e+02
5.000000e-07	-4.642341e-06	-4.480482e-09	-3.292601e+01	-2.933701e+02
5.100000e-07	-4.516658e-06	-4.419322e-09	-3.203461e+01	-2.898311e+02
5.200000e-07	-4.389320e-06	-4.356149e-09	-3.113145e+01	-2.861830e+02
5.300000e-07	-4.260404e-06	-4.311376e-09	-3.021711e+01	-2.824230e+02
5.400000e-07	-4.129981e-06	-4.258540e-09	-2.929208e+01	-2.785474e+02
5.500000e-07	-3.997912e-06	-4.182319e-09	-2.835537e+01	-2.745521e+02
5.600000e-07	-3.864326e-06	-4.112126e-09	-2.740790e+01	-2.704326e+02
5.700000e-07	-3.729344e-06	-4.055158e-09	-2.645054e+01	-2.661846e+02
5.800000e-07	-3.592917e-06	-3.984200e-09	-2.548293e+01	-2.618041e+02
5.900000e-07	-3.455110e-06	-3.904873e-09	-2.450552e+01	-2.572882e+02
6.000000e-07	-3.315903e-06	-3.838484e-09	-2.351819e+01	-2.526348e+02
6.100000e-07	-3.175157e-06	-3.770643e-09	-2.251995e+01	-2.478430e+02
6.200000e-07	-3.033070e-06	-3.688648e-09	-2.151219e+01	-2.429124e+02
6.300000e-07	-2.889815e-06	-3.612233e-09	-2.049614e+01	-2.378427e+02
6.400000e-07	-2.745391e-06	-3.547470e-09	-1.947181e+01	-2.326328e+02
6.500000e-07	-2.599954e-06	-3.471764e-09	-1.844029e+01	-2.272799e+02
6.600000e-07	-2.453678e-06	-3.379197e-09	-1.740282e+01	-2.217787e+02
6.700000e-07	-2.306638e-06	-3.286485e-09	-1.635993e+01	-2.161209e+02
6.800000e-07	-2.158863e-06	-3.194644e-09	-1.531184e+01	-2.102952e+02
6.900000e-07	-2.010390e-06	-3.096573e-09	-1.425878e+01	-2.042873e+02
7.000000e-07	-1.861304e-06	-2.998248e-09	-1.320138e+01	-1.980811e+02
7.100000e-07	-1.711700e-06	-2.902330e-09	-1.214031e+01	-1.916594e+02
7.200000e-07	-1.561576e-06	-2.802185e-09	-1.107555e+01	-1.850056e+02
7.300000e-07	-1.410850e-06	-2.695785e-09	-1.000652e+01	-1.781047e+02
7.400000e-07	-1.259525e-06	-2.586307e-09	-8.933242e+00	-1.709446e+02
7.500000e-07	-1.107737e-06	-2.475820e-09	-7.856676e+00	-1.635165e+02
7.600000e-07	-9.555580e-07	-2.362767e-09	-6.777339e+00	-1.558146e+02
7.700000e-07	-8.030965e-07	-2.242736e-09	-5.695998e+00	-1.478357e+02
7.800000e-07	-6.504047e-07	-2.115560e-09	-4.613025e+00	-1.395772e+02
7.900000e-07	-4.974883e-07	-1.983121e-09	-3.528458e+00	-1.310352e+02
8.000000e-07	-3.444677e-07	-1.847218e-09	-2.443153e+00	-1.222023e+02
8.100000e-07	-1.913383e-07	-1.705512e-09	-1.357076e+00	-1.130656e+02
8.200000e-07	-3.806127e-08	-1.556778e-09	-2.699513e-01	-1.036048e+02
8.300000e-07	1.153243e-07	-1.403177e-09	8.179431e-01	-9.379250e+01
8.400000e-07	2.687334e-07	-1.245401e-09	1.906004e+00	-8.359419e+01
8.500000e-07	4.220751e-07	-1.082998e-09	2.993587e+00	-7.297080e+01
8.600000e-07	5.752735e-07	-9.141019e-10	4.080154e+00	-6.188210e+01
8.700000e-07	7.282631e-07	-7.397207e-10	5.165239e+00	-5.029136e+01
8.800000e-07	8.811128e-07	-5.574257e-10	6.249333e+00	-3.817068e+01
8.900000e-07	1.033772e-06	-3.655802e-10	7.332073e+00	-2.550651e+01
9.000000e-07	1.186111e-06	-1.671076e-10	8.412546e+00	-1.230462e+01
9.100000e-07	1.338013e-06	3.600461e-11	9.489920e+00	1.405960e+00
9.200000e-07	1.489322e-06	2.481195e-10	1.056308e+01	1.557077e+01
9.300000e-07	1.639966e-06	4.706363e-10	1.163153e+01	3.010980e+01
9.400000e-07	1.789975e-06	6.981778e-10	1.269548e+01	4.491962e+01
9.500000e-07	1.939401e-06	9.279075e-10	1.375529e+01	5.987773e+01
9.600000e-07	2.088215e-06	1.158939e-09	1.481076e+01	7.484878e+01
9.700000e-07	2.236248e-06	1.387219e-09	1.586069e+01	8.969209e+01
9.800000e-07	2.383448e-06	1.608179e-09	1.690471e+01	1.042698e+02
9.900000e-07	2.529841e-06	1.821233e-09	1.794301e+01	1.184549e+02
1.000000e-06	2.675310e-06	2.026278e-09	1.897475e+01	1.321382e+02
1.010000e-06	2.819778e-06	2.224059e-09	1.999940e+01	1.452339e+02
1.020000e-06	2.963075e-06	2.409554e-09	2.101574e+01	1.576827e+02
1.030000e-06	3.105203e-06	2.583030e-09	2.202379e+01	1.694529e+02
1.040000e-06	3.246129e-06	2.749174e-09	2.302332e+01	1.805390e+02
1.050000e-06	3.385710e-06	2.907004e-09	2.401330e+01	1.909583e+02
1.060000e-06	3.523967e-06	3.057517e-09	2.499390e+01	2.007460e+02
1.070000e-06	3.660874e-06	3.198935e-09	2.596492e+01	2.099491e+02
1.080000e-06	3.796363e-06	3.333525e-09	2.692587e+01	2.186207e+02
1.090000e-06	3.930471e-06	3.461133e-09	2.787705e+01	2.268143e+02
1.100000e-06	4.063218e-06	3.582199e-09	2.881856e+01	2.345792e+02
1.110000e-06	4.194497e-06	3.698776e-09	2.974966e+01	2.419573e+02
1.120000e-06	4.324322e-06	3.806701e-09	3.067045e+01	2.489821e+02
1.130000e-06	4.452599e-06	3.905286e-09	3.158026e+01	2.556783e+02
1.140000e-06	4.579303e-06	3.995671e-09	3.247892e+01	2.620634e+02
1.150000e-06	4.704518e-06	4.083884e-09	3.336701e+01	2.681498e+02
1.160000e-06	4.828100e-06	4.172218e-09	3.424352e+01	2.739473e+02
1.170000e-06	4.950002e-06	4.257669e-09	3.510812e+01	2.794659e+02
1.180000e-06	5.070175e-06	4.337444e-09	3.596045e+01	2.847174e+02
1.190000e-06	5.188425e-06	4.412233e-09	3.679914e+01	2.897168e+02
1.200000e-06	5.304706e-06	4.486858e-09	3.762387e+01	2.944820e+02
1.210000e-06	5.418942e-06	4.561455e-09	3.843409e+01	2.990330e+02
1.220000e-06	5.531061e-06	4.631648e-09	3.922930e+01	3.033908e+02
1.230000e-06	5.641188e-06	4.693224e-09	4.001038e+01	3.075749e+02
1.240000e-06	5.749360e-06	4.747960e-09	4.077760e+01	3.116014e+02
1.250000e-06	5.855469e-06	4.802736e-09	4.153018e+01	3.154816e+02
1.260000e-06	5.959353e-06	4.860210e-09	4.226698e+01	3.192208e+02
1.270000e-06	6.061050e-06	4.916650e-09	4.298827e+01	3.228184e+02
1.280000e-06	6.160590e-06	4.967639e-09	4.369426e+01	3.262686e+02
1.290000e-06	6.257726e-06	5.014627e-09	4.438321e+01	3.295621e+02
1.300000e-06	6.352500e-06	5.061764e-09	4.505539e+01	3.326885e+02
1.310000e-06	6.445077e-06	5.107055e-09	4.571200e+01	3.356382e+02
1.320000e-06	6.535402e-06	5.147276e-09	4.635264e+01	3.384053e+02
1.330000e-06	6.623324e-06	5.182745e-09	4.697623e+01	3.409888e+02
1.340000e-06	6.708881e-06	5.216881e-09	4.758305e+01	3.433939e+02
1.350000e-06	6.792144e-06	5.251572e-09	4.817359e+01	3.456320e+02
1.360000e-06	6.872980e-06	5.285347e-09	4.874692e+01	3.477196e+02
1.370000e-06	6.951303e-06	5.317184e-09	4.930243e+01	3.496768e+02
1.380000e-06	7.027040e-06	5.348369e-09	4.983960e+01	3.515247e+02
1.390000e-06	7.100089e-06	5.378131e-09	5.035771e+01	3.532834e+02
1.400000e-06	7.170627e-06	5.403815e-09	5.085800e+01	3.549692e+02
1.410000e-06	7.238713e-06	5.426889e-09	5.134090e+01	3.565932e+02
1.420000e-06	7.304071e-06	5.449197e-09	5.180445e+01	3.581605e+02
1.430000e-06	7.366752e-06	5.471293e-09	5.224903e+01	3.596697e+02
1.440000e-06	7.427052e-06	5.493605e-09	5.267670e+01	3.611142e+02
1.450000e-06	7.484771e-06	5.515043e-09	5.308608e+01	3.624838e+02
1.460000e-06	7.539787e-06	5.534077e-09	5.347628e+01	3.637671e+02
1.470000e-06	7.591944e-06	5.550090e-09	5.384621e+01	3.649534e+02
1.480000e-06	7.640892e-06	5.565034e-09	5.419337e+01	3.660352e+02
1.490000e-06	7.686929e-06	5.579790e-09	5.451989e+01	3.670095e+02
1.500000e-06	7.730384e-06	5.594626e-09	5.482810e+01	3.678789e+02
1.510000e-06	7.771061e-06	5.609524e-09	5.511661e+01	3.686512e+02
1.520000e-06	7.808937e-06	5.622084e-09	5.538524e+01	3.693385e+02
1.530000e-06	7.844175e-06	5.631765e-09	5.563516e+01	3.699554e+02
1.540000e-06	7.876595e-06	5.638743e-09	5.586511e+01	3.705170e+02
1.550000e-06	7.906230e-06	5.645473e-09	5.607529e+01	3.710363e+02
1.560000e-06	7.933109e-06	5.654247e-09	5.626593e+01	3.715226e+02
1.570000e-06	7.957001e-06	5.664419e-09	5.643539e+01	3.719798e+02
1.580000e-06	7.978026e-06	5.673367e-09	5.658452e+01	3.724060e+02
1.590000e-06	7.996293e-06	5.679551e-09	5.671407e+01	3.727940e+02
1.600000e-06	8.011583e-06	5.684459e-09	5.682252e+01	3.731319e+02
1.610000e-06	8.023783e-06	5.688410e-09	5.690904e+01	3.734060e+02
1.620000e-06	8.032841e-06	5.690422e-09	5.697329e+01	3.736024e+02
1.630000e-06	8.038885e-06	5.691157e-09	5.701616e+01	3.737095e+02
1.640000e-06	8.042080e-06	5.691993e-09	5.703882e+01	3.737205e+02
1.650000e-06	8.042458e-06	5.691547e-09	5.704150e+01	3.736343e+02
1.660000e-06	8.040156e-06	5.687878e-09	5.702517e+01	3.734565e+02
1.670000e-06	8.035196e-06	5.685324e-09	5.699000e+01	3.731988e+02
1.680000e-06	8.027494e-06	5.682070e-09	5.693537e+01	3.728775e+02
1.690000e-06	8.017095e-06	5.677231e-09	5.686161e+01	3.725118e+02
1.700000e-06	8.003872e-06	5.672597e-09	5.676783e+01	3.721208e+02
1.710000e-06	7.987933e-06	5.669972e-09	5.665478e+01	3.717215e+02
1.720000e-06	7.969658e-06	5.663771e-09	5.652516e+01	3.713257e+02
1.730000e-06	7.949118e-06	5.624182e-09	5.637948e+01	3.709389e+02
1.740000e-06	7.925713e-06	5.593454e-09	5.621348e+01	3.705590e+02
1.750000e-06	7.898699e-06	5.600638e-09	5.602188e+01	3.701767e+02
1.760000e-06	7.868089e-06	5.602455e-09	5.580478e+01	3.697765e+02
1.770000e-06	7.834552e-06	5.606406e-09	5.556692e+01	3.693384e+02
1.780000e-06	7.798654e-06	5.646402e-09	5.531231e+01	3.688404e+02
1.790000e-06	7.760351e-06	5.664217e-09	5.504064e+01	3.682613e+02
1.800000e-06	7.719954e-06	5.614440e-09	5.475412e+01	3.675829e+02
1.810000e-06	7.677468e-06	5.592908e-09	5.445279e+01	3.667922e+02
1.820000e-06	7.632328e-06	5.553997e-09	5.413264e+01	3.658824e+02
1.830000e-06	7.584496e-06	5.548030e-09	5.379338e+01	3.648538e+02
1.840000e-06	7.533745e-06	5.574269e-09	5.343343e+01	3.637125e+02
1.850000e-06	7.479900e-06	5.556992e-09	5.305153e+01	3.624700e+02
1.860000e-06	7.423284e-06	5.559143e-09	5.264998e+01	3.611407e+02
1.870000e-06	7.364059e-06	5.468683e-09	5.222992e+01	3.597403e+02
1.880000e-06	7.302148e-06	5.419184e-09	5.179082e+01	3.582834e+02
1.890000e-06	7.237340e-06	5.437814e-09	5.133116e+01	3.567817e+02
1.900000e-06	7.169763e-06	5.399820e-09	5.085187e+01	3.552431e+02
1.910000e-06	7.099408e-06	5.400847e-09	5.035287e+01	3.536706e+02
1.920000e-06	7.026213e-06	5.366376e-09	4.983373e+01	3.520629e+02
1.930000e-06	6.950327e-06	5.322212e-09	4.929551e+01	3.504147e+02
1.940000e-06	6.871653e-06	5.292547e-09	4.873751e+01	3.487179e+02
1.950000e-06	6.790439e-06	5.287516e-09	4.816150e+01	3.469633e+02
1.960000e-06	6.706772e-06	5.278218e-09	4.756808e+01	3.451418e+02
1.970000e-06	6.620556e-06	5.211809e-09	4.695660e+01	3.432456e+02
1.980000e-06	6.531861e-06	5.190923e-09	4.632752e+01	3.412692e+02
1.990000e-06	6.440924e-06	5.163752e-09	4.568255e+01	3.392094e+02
2.000000e-06	6.347834e-06	5.144431e-09	4.502230e+01	3.370658e+02
2.010000e-06	6.252353e-06	5.114728e-09	4.434510e+01	3.348400e+02
2.020000e-06	6.154616e-06	5.073093e-09	4.365190e+01	3.325347e+02
2.030000e-06	6.054724e-06	5.018498e-09	4.294340e+01	3.301531e+02
2.040000e-06	5.952628e-06	4.958119e-09	4.221928e+01	3.276980e+02
2.050000e-06	5.848356e-06	4.954324e-09	4.147973e+01	3.251707e+02
2.060000e-06	5.742142e-06	4.947324e-09	4.072641e+01	3.225714e+02
2.070000e-06	5.634094e-06	4.897745e-09	3.996007e+01	3.198982e+02
2.080000e-06	5.523969e-06	4.827782e-09	3.917900e+01	3.171481e+02
2.090000e-06	5.411733e-06	4.780067e-09	3.838296e+01	3.143167e+02
2.100000e-06	5.297466e-06	4.731070e-09	3.757252e+01	3.113995e+02
2.110000e-06	5.181211e-06	4.703054e-09	3.674798e+01	3.083916e+02
2.120000e-06	5.062894e-06	4.682709e-09	3.590880e+01	3.052889e+02
2.130000e-06	4.942605e-06	4.629080e-09	3.505565e+01	3.020876e+02
2.140000e-06	4.820569e-06	4.546110e-09	3.419010e+01	2.987849e+02
2.150000e-06	4.696767e-06	4.482330e-09	3.331203e+01	2.953784e+02
2.160000e-06	4.571222e-06	4.452704e-09	3.242160e+01	2.918659e+02
2.170000e-06	4.443990e-06	4.408824e-09	3.151920e+01	2.882449e+02
2.180000e-06	4.315139e-06	4.347196e-09	3.060532e+01	2.845128e+02
2.190000e-06	4.184863e-06	4.284066e-09	2.968133e+01	2.806661e+02
2.200000e-06	4.053051e-06	4.219511e-09	2.874645e+01	2.767007e+02
2.210000e-06	3.919689e-06	4.151000e-09	2.780057e+01	2.726123e+02
2.220000e-06	3.784822e-06	4.101174e-09	2.684402e+01	2.683964e+02
2.230000e-06	3.648429e-06	4.049677e-09	2.587665e+01	2.640489e+02
2.240000e-06	3.510711e-06	3.970481e-09	2.489988e+01	2.595667e+02
2.250000e-06	3.371612e-06	3.882335e-09	2.391331e+01	2.549474e+02
2.260000e-06	3.231213e-06	3.816456e-09	2.291753e+01	2.501898e+02
2.270000e-06	3.089581e-06	3.759241e-09	2.191299e+01	2.452935e+02
2.280000e-06	2.946713e-06	3.682379e-09	2.089970e+01	2.402583e+02
2.290000e-06	2.802698e-06	3.594485e-09	1.987826e+01	2.350832e+02
2.300000e-06	2.657675e-06	3.506675e-09	1.884968e+01	2.297660e+02
2.310000e-06	2.511848e-06	3.418226e-09	1.781540e+01	2.243021e+02
2.320000e-06	2.365299e-06	3.338459e-09	1.677599e+01	2.186840e+02
2.330000e-06	2.217933e-06	3.267188e-09	1.573079e+01	2.129011e+02
2.340000e-06	2.069670e-06	3.181443e-09	1.467923e+01	2.069398e+02
2.350000e-06	1.920728e-06	3.074467e-09	1.362285e+01	2.007844e+02
2.360000e-06	1.771261e-06	2.968242e-09	1.256275e+01	1.944178e+02
2.370000e-06	1.621278e-06	2.875159e-09	1.149899e+01	1.878231e+02
2.380000e-06	1.470682e-06	2.782688e-09	1.043088e+01	1.809848e+02
2.390000e-06	1.319506e-06	2.676004e-09	9.358655e+00	1.738901e+02
2.400000e-06	1.167843e-06	2.555399e-09	8.282976e+00	1.665292e+02
2.410000e-06	1.015737e-06	2.429047e-09	7.204159e+00	1.588957e+02
2.420000e-06	8.632874e-07	2.305762e-09	6.122905e+00	1.509860e+02
2.430000e-06	7.105703e-07	2.191696e-09	5.039752e+00	1.427972e+02
2.440000e-06	5.576602e-07	2.075623e-09	3.955230e+00	1.343262e+02
2.450000e-06	4.045804e-07	1.944388e-09	2.869505e+00	1.255666e+02
2.460000e-06	2.513459e-07	1.800600e-09	1.782683e+00	1.165070e+02
2.470000e-06	9.799840e-08	1.653426e-09	6.950581e-01	1.071291e+02
2.480000e-06	-5.537663e-08	1.505917e-09	-3.927613e-01	9.740728e+01
2.490000e-06	-2.087213e-07	1.354112e-09	-1.480365e+00	8.730859e+01
2.500000e-06	-3.620332e-07	1.192542e-09	-2.567737e+00	7.679487e+01
2.510000e-06	-5.152586e-07	1.021301e-09	-3.654495e+00	6.582576e+01
2.520000e-06	-6.683427e-07	8.429195e-10	-4.740251e+00	5.436318e+01
2.530000e-06	-8.212458e-07	6.644296e-10	-5.824723e+00	4.237650e+01
2.540000e-06	-9.738980e-07	4.825193e-10	-6.907416e+00	2.984808e+01
2.550000e-06	-1.126197e-06	2.867901e-10	-7.987603e+00	1.677846e+01
2.560000e-06	-1.278068e-06	7.565922e-11	-9.064756e+00	3.190553e+00
2.570000e-06	-1.429447e-06	-1.432626e-10	-1.013842e+01	-1.086763e+01
2.580000e-06	-1.580275e-06	-3.645088e-10	-1.120818e+01	-2.532234e+01
2.590000e-06	-1.730481e-06	-5.889311e-10	-1.227352e+01	-4.007571e+01
2.600000e-06	-1.880040e-06	-8.194067e-10	-1.333427e+01	-5.500946e+01
2.610000e-06	-2.028959e-06	-1.053530e-09	-1.439048e+01	-6.999080e+01
2.620000e-06	-2.177114e-06	-1.287428e-09	-1.544128e+01	-8.487962e+01
2.630000e-06	-2.324368e-06	-1.515888e-09	-1.648568e+01	-9.953659e+01
2.640000e-06	-2.470713e-06	-1.732692e-09	-1.752364e+01	-1.138313e+02
2.650000e-06	-2.616206e-06	-1.940871e-09	-1.855556e+01	-1.276495e+02
2.660000e-06	-2.760774e-06	-2.142249e-09	-1.958092e+01	-1.408991e+02
2.670000e-06	-2.904230e-06	-2.336490e-09	-2.059838e+01	-1.535141e+02
2.680000e-06	-3.046550e-06	-2.518611e-09	-2.160779e+01	-1.654559e+02
2.690000e-06	-3.187706e-06	-2.687166e-09	-2.260895e+01	-1.767126e+02
2.700000e-06	-3.327553e-06	-2.845832e-09	-2.360082e+01	-1.872963e+02
2.710000e-06	-3.466073e-06	-2.995626e-09	-2.458328e+01	-1.972382e+02
2.720000e-06	-3.603275e-06	-3.140742e-09	-2.555639e+01	-2.065830e+02
2.730000e-06	-3.739139e-06	-3.280254e-09	-2.652001e+01	-2.153829e+02
2.740000e-06	-3.873637e-06	-3.411771e-09	-2.747395e+01	-2.236915e+02
2.750000e-06	-4.006738e-06	-3.534363e-09	-2.841797e+01	-2.315597e+02
2.760000e-06	-4.138395e-06	-3.647365e-09	-2.935176e+01	-2.390315e+02
2.770000e-06	-4.268659e-06	-3.755727e-09	-3.027566e+01	-2.461424e+02
2.780000e-06	-4.397539e-06	-3.858887e-09	-3.118975e+01	-2.529192e+02
2.790000e-06	-4.524867e-06	-3.955597e-09	-3.209283e+01	-2.593812e+02
2.800000e-06	-4.650630e-06	-4.045707e-09	-3.298481e+01	-2.655416e+02
2.810000e-06	-4.774718e-06	-4.132649e-09	-3.386491e+01	-2.714109e+02
2.820000e-06	-4.897071e-06	-4.219225e-09	-3.473270e+01	-2.769986e+02
2.830000e-06	-5.017752e-06	-4.304896e-09	-3.558863e+01	-2.823161e+02
2.840000e-06	-5.136571e-06	-4.385941e-09	-3.643136e+01	-2.873773e+02
2.850000e-06	-5.253297e-06	-4.458040e-09	-3.725924e+01	-2.921996e+02
2.860000e-06	-5.367820e-06	-4.524546e-09	-3.807151e+01	-2.968026e+02
2.870000e-06	-5.480219e-06	-4.590081e-09	-3.886870e+01	-3.012073e+02
2.880000e-06	-5.590501e-06	-4.658886e-09	-3.965088e+01	-3.054335e+02
2.890000e-06	-5.698766e-06	-4.728208e-09	-4.041875e+01	-3.094985e+02
2.900000e-06	-5.805143e-06	-4.794399e-09	-4.117324e+01	-3.134149e+02
2.910000e-06	-5.909413e-06	-4.855402e-09	-4.191278e+01	-3.171896e+02
2.920000e-06	-6.011445e-06	-4.910069e-09	-4.263644e+01	-3.208234e+02
2.930000e-06	-6.111228e-06	-4.962619e-09	-4.334416e+01	-3.243116e+02
2.940000e-06	-6.208844e-06	-5.012539e-09	-4.403651e+01	-3.276457e+02
