# Temperatura_=_36.5
# Concentracion g/m^3_=_5000.0
# C_Vs_to_Am_M_A/Vsm_=_65563218390.804596
# pendiente_HvsI_1/m_=_3716.3
# ordenada_HvsI_A/m_=_1297.0
# frecuencia_Hz_=_302575.89731460006

Tiempo_(s)	Campo_(V.s)	Magnetizacion_(V.s)	Campo_(kA/m)	Magnetizacion_(A/m)
0.000000e+00	-7.995659e-06	-5.866570e-09	-5.685358e+01	-3.847361e+02
1.000000e-08	-7.992660e-06	-5.864098e-09	-5.683226e+01	-3.845154e+02
2.000000e-08	-7.986996e-06	-5.860391e-09	-5.679198e+01	-3.842145e+02
3.000000e-08	-7.978736e-06	-5.857680e-09	-5.673325e+01	-3.838545e+02
4.000000e-08	-7.967611e-06	-5.854082e-09	-5.665415e+01	-3.834593e+02
5.000000e-08	-7.953491e-06	-5.848682e-09	-5.655375e+01	-3.830530e+02
6.000000e-08	-7.936477e-06	-5.841523e-09	-5.643277e+01	-3.826560e+02
7.000000e-08	-7.917105e-06	-5.834513e-09	-5.629502e+01	-3.822826e+02
8.000000e-08	-7.895504e-06	-5.852633e-09	-5.614143e+01	-3.819387e+02
9.000000e-08	-7.870925e-06	-5.861568e-09	-5.596666e+01	-3.816205e+02
1.000000e-07	-7.843019e-06	-5.855177e-09	-5.576823e+01	-3.813148e+02
1.100000e-07	-7.812150e-06	-5.842302e-09	-5.554874e+01	-3.810001e+02
1.200000e-07	-7.778481e-06	-5.810873e-09	-5.530933e+01	-3.806494e+02
1.300000e-07	-7.742104e-06	-5.755300e-09	-5.505067e+01	-3.802328e+02
1.400000e-07	-7.703443e-06	-5.694149e-09	-5.477576e+01	-3.797212e+02
1.500000e-07	-7.662663e-06	-5.730451e-09	-5.448580e+01	-3.790897e+02
1.600000e-07	-7.619419e-06	-5.797765e-09	-5.417831e+01	-3.783201e+02
1.700000e-07	-7.573441e-06	-5.798916e-09	-5.385138e+01	-3.774029e+02
1.800000e-07	-7.524710e-06	-5.781029e-09	-5.350488e+01	-3.763381e+02
1.900000e-07	-7.472988e-06	-5.708599e-09	-5.313710e+01	-3.751346e+02
2.000000e-07	-7.418328e-06	-5.655289e-09	-5.274844e+01	-3.738088e+02
2.100000e-07	-7.360919e-06	-5.630398e-09	-5.234023e+01	-3.723820e+02
2.200000e-07	-7.300788e-06	-5.635508e-09	-5.191266e+01	-3.708780e+02
2.300000e-07	-7.238087e-06	-5.654442e-09	-5.146683e+01	-3.693197e+02
2.400000e-07	-7.172706e-06	-5.587334e-09	-5.100193e+01	-3.677269e+02
2.500000e-07	-7.104579e-06	-5.562257e-09	-5.051751e+01	-3.661135e+02
2.600000e-07	-7.033727e-06	-5.577646e-09	-5.001371e+01	-3.644870e+02
2.700000e-07	-6.960068e-06	-5.573321e-09	-4.948996e+01	-3.628479e+02
2.800000e-07	-6.883631e-06	-5.529760e-09	-4.894645e+01	-3.611903e+02
2.900000e-07	-6.804301e-06	-5.496407e-09	-4.838237e+01	-3.595031e+02
3.000000e-07	-6.722323e-06	-5.476056e-09	-4.779946e+01	-3.577722e+02
3.100000e-07	-6.638149e-06	-5.429083e-09	-4.720093e+01	-3.559824e+02
3.200000e-07	-6.551727e-06	-5.423545e-09	-4.658643e+01	-3.541192e+02
3.300000e-07	-6.462921e-06	-5.405301e-09	-4.595496e+01	-3.521706e+02
3.400000e-07	-6.371735e-06	-5.343753e-09	-4.530658e+01	-3.501282e+02
3.500000e-07	-6.278328e-06	-5.282725e-09	-4.464240e+01	-3.479877e+02
3.600000e-07	-6.182607e-06	-5.260767e-09	-4.396178e+01	-3.457483e+02
3.700000e-07	-6.084455e-06	-5.250382e-09	-4.326386e+01	-3.434126e+02
3.800000e-07	-5.984106e-06	-5.220380e-09	-4.255032e+01	-3.409850e+02
3.900000e-07	-5.881683e-06	-5.195880e-09	-4.182204e+01	-3.384708e+02
4.000000e-07	-5.777222e-06	-5.144253e-09	-4.107926e+01	-3.358749e+02
4.100000e-07	-5.670752e-06	-5.070829e-09	-4.032221e+01	-3.332008e+02
4.200000e-07	-5.562284e-06	-5.022069e-09	-3.955094e+01	-3.304500e+02
4.300000e-07	-5.451827e-06	-5.017658e-09	-3.876553e+01	-3.276217e+02
4.400000e-07	-5.339380e-06	-4.985197e-09	-3.796596e+01	-3.247133e+02
4.500000e-07	-5.224796e-06	-4.917561e-09	-3.715121e+01	-3.217200e+02
4.600000e-07	-5.108145e-06	-4.860125e-09	-3.632176e+01	-3.186363e+02
4.700000e-07	-4.989692e-06	-4.810603e-09	-3.547949e+01	-3.154561e+02
4.800000e-07	-4.869447e-06	-4.750450e-09	-3.462448e+01	-3.121736e+02
4.900000e-07	-4.747438e-06	-4.699627e-09	-3.375692e+01	-3.087832e+02
5.000000e-07	-4.623660e-06	-4.662300e-09	-3.287680e+01	-3.052804e+02
5.100000e-07	-4.498247e-06	-4.600374e-09	-3.198504e+01	-3.016614e+02
5.200000e-07	-4.371223e-06	-4.537901e-09	-3.108183e+01	-2.979231e+02
5.300000e-07	-4.242539e-06	-4.493503e-09	-3.016682e+01	-2.940628e+02
5.400000e-07	-4.112276e-06	-4.439686e-09	-2.924057e+01	-2.900782e+02
5.500000e-07	-3.980472e-06	-4.355424e-09	-2.830337e+01	-2.859667e+02
5.600000e-07	-3.847218e-06	-4.280950e-09	-2.735586e+01	-2.817260e+02
5.700000e-07	-3.712486e-06	-4.222913e-09	-2.639784e+01	-2.773537e+02
5.800000e-07	-3.576244e-06	-4.149582e-09	-2.542908e+01	-2.728474e+02
5.900000e-07	-3.438667e-06	-4.070033e-09	-2.445084e+01	-2.682052e+02
6.000000e-07	-3.299770e-06	-4.006318e-09	-2.346320e+01	-2.634251e+02
6.100000e-07	-3.159325e-06	-3.939662e-09	-2.246456e+01	-2.585058e+02
6.200000e-07	-3.017473e-06	-3.850026e-09	-2.145591e+01	-2.534455e+02
6.300000e-07	-2.874483e-06	-3.768052e-09	-2.043917e+01	-2.482424e+02
6.400000e-07	-2.730381e-06	-3.700979e-09	-1.941453e+01	-2.428935e+02
6.500000e-07	-2.585289e-06	-3.624831e-09	-1.838285e+01	-2.373944e+02
6.600000e-07	-2.439364e-06	-3.529294e-09	-1.734524e+01	-2.317384e+02
6.700000e-07	-2.292628e-06	-3.432287e-09	-1.630186e+01	-2.259165e+02
6.800000e-07	-2.145121e-06	-3.336595e-09	-1.525301e+01	-2.199170e+02
6.900000e-07	-1.996935e-06	-3.234796e-09	-1.419932e+01	-2.137256e+02
7.000000e-07	-1.848183e-06	-3.135720e-09	-1.314161e+01	-2.073267e+02
7.100000e-07	-1.698896e-06	-3.041042e-09	-1.208009e+01	-2.007035e+02
7.200000e-07	-1.549099e-06	-2.941889e-09	-1.101496e+01	-1.938396e+02
7.300000e-07	-1.398776e-06	-2.831747e-09	-9.946076e+00	-1.867200e+02
7.400000e-07	-1.247926e-06	-2.718080e-09	-8.873450e+00	-1.793323e+02
7.500000e-07	-1.096519e-06	-2.602609e-09	-7.796858e+00	-1.716666e+02
7.600000e-07	-9.446017e-07	-2.484663e-09	-6.716644e+00	-1.637161e+02
7.700000e-07	-7.923877e-07	-2.359885e-09	-5.634317e+00	-1.554762e+02
7.800000e-07	-6.400046e-07	-2.228787e-09	-4.550789e+00	-1.469431e+02
7.900000e-07	-4.874500e-07	-2.091656e-09	-3.466041e+00	-1.381121e+02
8.000000e-07	-3.346610e-07	-1.948794e-09	-2.379626e+00	-1.289757e+02
8.100000e-07	-1.817195e-07	-1.803559e-09	-1.292127e+00	-1.195215e+02
8.200000e-07	-2.871144e-08	-1.651183e-09	-2.041543e-01	-1.097308e+02
8.300000e-07	1.243397e-07	-1.492512e-09	8.841244e-01	-9.957831e+01
8.400000e-07	2.773986e-07	-1.328876e-09	1.972458e+00	-8.903203e+01
8.500000e-07	4.304320e-07	-1.162069e-09	3.060611e+00	-7.805560e+01
8.600000e-07	5.833490e-07	-9.897068e-10	4.147936e+00	-6.661116e+01
8.700000e-07	7.360778e-07	-8.110077e-10	5.233923e+00	-5.466364e+01
8.800000e-07	8.886506e-07	-6.242295e-10	6.318801e+00	-4.218575e+01
8.900000e-07	1.040976e-06	-4.268282e-10	7.401922e+00	-2.916324e+01
9.000000e-07	1.192926e-06	-2.232572e-10	8.482368e+00	-1.559987e+01
9.100000e-07	1.344354e-06	-1.312745e-11	9.559102e+00	-1.521389e+00
9.200000e-07	1.495147e-06	2.054296e-10	1.063133e+01	1.302196e+01
9.300000e-07	1.645355e-06	4.337679e-10	1.169939e+01	2.795489e+01
9.400000e-07	1.795016e-06	6.686100e-10	1.276356e+01	4.317863e+01
9.500000e-07	1.944087e-06	9.056462e-10	1.382354e+01	5.857476e+01
9.600000e-07	2.092411e-06	1.144596e-09	1.487821e+01	7.401085e+01
9.700000e-07	2.239967e-06	1.379699e-09	1.592741e+01	8.934761e+01
9.800000e-07	2.386776e-06	1.605644e-09	1.697131e+01	1.044468e+02
9.900000e-07	2.532708e-06	1.825205e-09	1.800896e+01	1.191790e+02
1.000000e-06	2.677699e-06	2.039705e-09	1.903993e+01	1.334311e+02
1.010000e-06	2.821655e-06	2.249397e-09	2.006354e+01	1.471117e+02
1.020000e-06	2.964480e-06	2.447699e-09	2.107910e+01	1.601550e+02
1.030000e-06	3.106184e-06	2.630410e-09	2.208670e+01	1.725224e+02
1.040000e-06	3.246605e-06	2.801830e-09	2.308517e+01	1.842012e+02
1.050000e-06	3.385693e-06	2.965747e-09	2.407416e+01	1.952023e+02
1.060000e-06	3.523507e-06	3.123872e-09	2.505410e+01	2.055551e+02
1.070000e-06	3.659977e-06	3.274445e-09	2.602448e+01	2.153023e+02
1.080000e-06	3.795016e-06	3.418505e-09	2.698467e+01	2.244933e+02
1.090000e-06	3.928662e-06	3.553749e-09	2.793497e+01	2.331795e+02
1.100000e-06	4.060956e-06	3.681139e-09	2.887566e+01	2.414086e+02
1.110000e-06	4.191850e-06	3.803970e-09	2.980638e+01	2.492222e+02
1.120000e-06	4.321308e-06	3.917409e-09	3.072691e+01	2.566536e+02
1.130000e-06	4.449162e-06	4.020346e-09	3.163602e+01	2.637278e+02
1.140000e-06	4.575443e-06	4.116408e-09	3.253395e+01	2.704625e+02
1.150000e-06	4.700227e-06	4.211568e-09	3.342123e+01	2.768709e+02
1.160000e-06	4.823370e-06	4.305228e-09	3.429684e+01	2.829635e+02
1.170000e-06	4.944859e-06	4.393250e-09	3.516070e+01	2.887513e+02
1.180000e-06	5.064561e-06	4.475576e-09	3.601185e+01	2.942474e+02
1.190000e-06	5.182377e-06	4.554355e-09	3.684958e+01	2.994684e+02
1.200000e-06	5.298274e-06	4.633417e-09	3.767368e+01	3.044347e+02
1.210000e-06	5.412088e-06	4.711488e-09	3.848296e+01	3.091691e+02
1.220000e-06	5.523786e-06	4.784223e-09	3.927720e+01	3.136958e+02
1.230000e-06	5.633544e-06	4.847963e-09	4.005763e+01	3.180376e+02
1.240000e-06	5.741371e-06	4.905829e-09	4.082434e+01	3.222140e+02
1.250000e-06	5.847135e-06	4.963132e-09	4.157638e+01	3.262392e+02
1.260000e-06	5.950739e-06	5.022127e-09	4.231306e+01	3.301207e+02
1.270000e-06	6.052113e-06	5.079513e-09	4.303389e+01	3.338593e+02
1.280000e-06	6.151239e-06	5.131156e-09	4.373873e+01	3.374493e+02
1.290000e-06	6.247958e-06	5.180278e-09	4.442646e+01	3.408808e+02
1.300000e-06	6.342345e-06	5.230635e-09	4.509760e+01	3.441412e+02
1.310000e-06	6.434554e-06	5.279488e-09	4.575326e+01	3.472188e+02
1.320000e-06	6.524535e-06	5.322584e-09	4.639308e+01	3.501046e+02
1.330000e-06	6.612129e-06	5.360267e-09	4.701592e+01	3.527950e+02
1.340000e-06	6.697315e-06	5.396041e-09	4.762164e+01	3.552930e+02
1.350000e-06	6.780227e-06	5.432173e-09	4.821119e+01	3.576085e+02
1.360000e-06	6.860700e-06	5.467358e-09	4.878340e+01	3.597576e+02
1.370000e-06	6.938597e-06	5.499303e-09	4.933728e+01	3.617610e+02
1.380000e-06	7.013956e-06	5.529508e-09	4.987313e+01	3.636418e+02
1.390000e-06	7.086682e-06	5.558428e-09	5.039025e+01	3.654224e+02
1.400000e-06	7.156827e-06	5.584118e-09	5.088902e+01	3.671225e+02
1.410000e-06	7.224483e-06	5.608649e-09	5.137010e+01	3.687563e+02
1.420000e-06	7.289546e-06	5.633508e-09	5.183273e+01	3.703318e+02
1.430000e-06	7.352038e-06	5.656948e-09	5.227708e+01	3.718499e+02
1.440000e-06	7.412095e-06	5.678467e-09	5.270412e+01	3.733056e+02
1.450000e-06	7.469539e-06	5.697796e-09	5.311258e+01	3.746893e+02
1.460000e-06	7.524253e-06	5.714769e-09	5.350162e+01	3.759891e+02
1.470000e-06	7.576064e-06	5.729776e-09	5.387003e+01	3.771934e+02
1.480000e-06	7.624743e-06	5.745489e-09	5.421617e+01	3.782932e+02
1.490000e-06	7.670584e-06	5.760849e-09	5.454212e+01	3.792842e+02
1.500000e-06	7.713754e-06	5.774435e-09	5.484909e+01	3.801676e+02
1.510000e-06	7.754111e-06	5.789067e-09	5.513605e+01	3.809505e+02
1.520000e-06	7.791720e-06	5.804074e-09	5.540347e+01	3.816450e+02
1.530000e-06	7.826662e-06	5.817887e-09	5.565192e+01	3.822663e+02
1.540000e-06	7.858783e-06	5.827478e-09	5.588032e+01	3.828305e+02
1.550000e-06	7.888104e-06	5.832343e-09	5.608881e+01	3.833520e+02
1.560000e-06	7.914603e-06	5.836750e-09	5.627723e+01	3.838415e+02
1.570000e-06	7.938108e-06	5.844175e-09	5.644437e+01	3.843037e+02
1.580000e-06	7.958866e-06	5.853154e-09	5.659197e+01	3.847373e+02
1.590000e-06	7.976951e-06	5.859735e-09	5.672056e+01	3.851345e+02
1.600000e-06	7.992050e-06	5.864569e-09	5.682793e+01	3.854824e+02
1.610000e-06	8.003978e-06	5.867918e-09	5.691274e+01	3.857654e+02
1.620000e-06	8.012739e-06	5.870231e-09	5.697504e+01	3.859673e+02
1.630000e-06	8.018648e-06	5.872136e-09	5.701705e+01	3.860747e+02
1.640000e-06	8.021805e-06	5.873647e-09	5.703950e+01	3.860792e+02
1.650000e-06	8.022086e-06	5.870918e-09	5.704150e+01	3.859791e+02
1.660000e-06	8.019687e-06	5.865815e-09	5.702444e+01	3.857806e+02
1.670000e-06	8.014590e-06	5.860911e-09	5.698820e+01	3.854975e+02
1.680000e-06	8.006759e-06	5.856025e-09	5.693252e+01	3.851497e+02
1.690000e-06	7.996377e-06	5.851421e-09	5.685869e+01	3.847605e+02
1.700000e-06	7.983127e-06	5.847875e-09	5.676448e+01	3.843544e+02
1.710000e-06	7.967066e-06	5.846373e-09	5.665027e+01	3.839530e+02
1.720000e-06	7.948645e-06	5.842006e-09	5.651929e+01	3.835723e+02
1.730000e-06	7.927906e-06	5.798503e-09	5.637183e+01	3.832206e+02
1.740000e-06	7.904336e-06	5.781965e-09	5.620423e+01	3.828964e+02
1.750000e-06	7.877264e-06	5.778944e-09	5.601173e+01	3.825888e+02
1.760000e-06	7.846586e-06	5.771775e-09	5.579359e+01	3.822783e+02
1.770000e-06	7.812956e-06	5.784498e-09	5.555446e+01	3.819388e+02
1.780000e-06	7.777013e-06	5.844746e-09	5.529889e+01	3.815410e+02
1.790000e-06	7.738754e-06	5.849088e-09	5.502685e+01	3.810553e+02
1.800000e-06	7.698379e-06	5.803928e-09	5.473976e+01	3.804553e+02
1.810000e-06	7.655781e-06	5.787218e-09	5.443686e+01	3.797210e+02
1.820000e-06	7.610526e-06	5.731491e-09	5.411508e+01	3.788407e+02
1.830000e-06	7.562626e-06	5.778257e-09	5.377448e+01	3.778118e+02
1.840000e-06	7.511789e-06	5.778584e-09	5.341300e+01	3.766413e+02
1.850000e-06	7.457912e-06	5.783401e-09	5.302990e+01	3.753437e+02
1.860000e-06	7.401252e-06	5.775839e-09	5.262702e+01	3.739395e+02
1.870000e-06	7.341979e-06	5.639593e-09	5.220556e+01	3.724521e+02
1.880000e-06	7.280097e-06	5.616018e-09	5.176554e+01	3.709050e+02
1.890000e-06	7.215337e-06	5.596701e-09	5.130506e+01	3.693187e+02
1.900000e-06	7.147827e-06	5.590418e-09	5.082503e+01	3.677090e+02
1.910000e-06	7.077541e-06	5.605906e-09	5.032526e+01	3.660850e+02
1.920000e-06	7.004390e-06	5.554820e-09	4.980511e+01	3.644490e+02
1.930000e-06	6.928548e-06	5.504670e-09	4.926583e+01	3.627964e+02
1.940000e-06	6.849981e-06	5.464164e-09	4.870718e+01	3.611174e+02
1.950000e-06	6.768850e-06	5.489686e-09	4.813029e+01	3.593984e+02
1.960000e-06	6.685277e-06	5.461128e-09	4.753604e+01	3.576242e+02
1.970000e-06	6.599120e-06	5.406588e-09	4.692342e+01	3.557801e+02
1.980000e-06	6.510487e-06	5.378613e-09	4.629319e+01	3.538534e+02
1.990000e-06	6.419609e-06	5.342973e-09	4.564700e+01	3.518346e+02
2.000000e-06	6.326567e-06	5.330304e-09	4.498541e+01	3.497183e+02
2.010000e-06	6.231220e-06	5.303271e-09	4.430744e+01	3.475031e+02
2.020000e-06	6.133634e-06	5.276890e-09	4.361355e+01	3.451906e+02
2.030000e-06	6.033892e-06	5.195149e-09	4.290433e+01	3.427851e+02
2.040000e-06	5.931928e-06	5.134211e-09	4.217931e+01	3.402916e+02
2.050000e-06	5.827798e-06	5.139866e-09	4.143888e+01	3.377152e+02
2.060000e-06	5.721727e-06	5.146636e-09	4.068466e+01	3.350600e+02
2.070000e-06	5.613791e-06	5.093065e-09	3.991718e+01	3.323279e+02
2.080000e-06	5.503834e-06	5.013015e-09	3.913532e+01	3.295187e+02
2.090000e-06	5.391849e-06	4.953716e-09	3.833905e+01	3.266302e+02
2.100000e-06	5.277816e-06	4.895446e-09	3.752821e+01	3.236582e+02
2.110000e-06	5.161735e-06	4.874913e-09	3.670281e+01	3.205972e+02
2.120000e-06	5.043596e-06	4.872545e-09	3.586278e+01	3.174413e+02
2.130000e-06	4.923508e-06	4.828253e-09	3.500888e+01	3.141844e+02
2.140000e-06	4.801649e-06	4.729142e-09	3.414239e+01	3.108209e+02
2.150000e-06	4.678105e-06	4.656647e-09	3.326393e+01	3.073462e+02
2.160000e-06	4.552898e-06	4.625126e-09	3.237364e+01	3.037561e+02
2.170000e-06	4.425953e-06	4.586795e-09	3.147099e+01	3.000474e+02
2.180000e-06	4.297328e-06	4.523546e-09	3.055640e+01	2.962174e+02
2.190000e-06	4.167231e-06	4.460884e-09	2.963133e+01	2.922636e+02
2.200000e-06	4.035612e-06	4.392313e-09	2.869545e+01	2.881836e+02
2.210000e-06	3.902453e-06	4.320113e-09	2.774862e+01	2.839750e+02
2.220000e-06	3.767836e-06	4.272997e-09	2.679141e+01	2.796353e+02
2.230000e-06	3.631759e-06	4.227294e-09	2.582383e+01	2.751623e+02
2.240000e-06	3.494365e-06	4.145571e-09	2.484688e+01	2.705538e+02
2.250000e-06	3.355583e-06	4.046430e-09	2.386006e+01	2.658079e+02
2.260000e-06	3.215440e-06	3.977765e-09	2.286357e+01	2.609230e+02
2.270000e-06	3.074061e-06	3.922745e-09	2.185829e+01	2.558977e+02
2.280000e-06	2.931480e-06	3.848141e-09	2.084445e+01	2.507300e+02
2.290000e-06	2.787733e-06	3.755697e-09	1.982233e+01	2.454175e+02
2.300000e-06	2.642930e-06	3.661442e-09	1.879270e+01	2.399560e+02
2.310000e-06	2.497301e-06	3.568046e-09	1.775720e+01	2.343395e+02
2.320000e-06	2.350951e-06	3.487865e-09	1.671657e+01	2.285597e+02
2.330000e-06	2.203831e-06	3.420303e-09	1.567046e+01	2.226053e+02
2.340000e-06	2.055833e-06	3.337438e-09	1.461812e+01	2.164629e+02
2.350000e-06	1.907149e-06	3.224675e-09	1.356089e+01	2.101170e+02
2.360000e-06	1.757938e-06	3.107419e-09	1.249992e+01	2.035509e+02
2.370000e-06	1.608174e-06	3.007739e-09	1.143501e+01	1.967482e+02
2.380000e-06	1.457898e-06	2.914588e-09	1.036646e+01	1.896934e+02
2.390000e-06	1.307107e-06	2.808671e-09	9.294255e+00	1.823732e+02
2.400000e-06	1.155876e-06	2.685521e-09	8.218921e+00	1.747773e+02
2.410000e-06	1.004287e-06	2.554793e-09	7.141041e+00	1.668981e+02
2.420000e-06	8.523546e-07	2.427097e-09	6.060716e+00	1.587304e+02
2.430000e-06	7.001405e-07	2.309037e-09	4.978388e+00	1.502705e+02
2.440000e-06	5.476607e-07	2.189681e-09	3.894173e+00	1.415141e+02
2.450000e-06	3.949347e-07	2.053701e-09	2.808206e+00	1.324545e+02
2.460000e-06	2.420126e-07	1.902969e-09	1.720844e+00	1.230808e+02
2.470000e-06	8.896260e-08	1.749418e-09	6.325736e-01	1.133759e+02
2.480000e-06	-6.413755e-08	1.597974e-09	-4.560537e-01	1.033162e+02
2.490000e-06	-2.171957e-07	1.443663e-09	-1.544383e+00	9.287117e+01
2.500000e-06	-3.701901e-07	1.280245e-09	-2.632257e+00	8.200538e+01
2.510000e-06	-5.230344e-07	1.103859e-09	-3.719065e+00	7.068096e+01
2.520000e-06	-6.756936e-07	9.185389e-10	-4.804558e+00	5.886170e+01
2.530000e-06	-8.282134e-07	7.321776e-10	-5.889058e+00	4.651788e+01
2.540000e-06	-9.804615e-07	5.438105e-10	-6.971627e+00	3.363150e+01
2.550000e-06	-1.132292e-06	3.422374e-10	-8.051224e+00	2.020139e+01
2.560000e-06	-1.283683e-06	1.227272e-10	-9.127699e+00	6.247493e+00
2.570000e-06	-1.434611e-06	-1.041952e-10	-1.020088e+01	-8.186193e+00
2.580000e-06	-1.585019e-06	-3.313630e-10	-1.127037e+01	-2.303057e+01
2.590000e-06	-1.734813e-06	-5.595883e-10	-1.233548e+01	-3.819249e+01
2.600000e-06	-1.883976e-06	-7.933225e-10	-1.339612e+01	-5.355796e+01
2.610000e-06	-2.032517e-06	-1.031254e-09	-1.445232e+01	-6.899744e+01
2.620000e-06	-2.180223e-06	-1.270396e-09	-1.550260e+01	-8.437263e+01
2.630000e-06	-2.327026e-06	-1.506316e-09	-1.654645e+01	-9.954426e+01
2.640000e-06	-2.473042e-06	-1.732906e-09	-1.758471e+01	-1.143800e+02
2.650000e-06	-2.618140e-06	-1.950096e-09	-1.861644e+01	-1.287621e+02
2.660000e-06	-2.762183e-06	-2.161517e-09	-1.964066e+01	-1.425933e+02
2.670000e-06	-2.905211e-06	-2.366233e-09	-2.065767e+01	-1.558011e+02
2.680000e-06	-3.047133e-06	-2.557437e-09	-2.166681e+01	-1.683400e+02
2.690000e-06	-3.187829e-06	-2.735519e-09	-2.266724e+01	-1.801913e+02
2.700000e-06	-3.327204e-06	-2.902819e-09	-2.365827e+01	-1.913601e+02
2.710000e-06	-3.465307e-06	-3.060692e-09	-2.464026e+01	-2.018719e+02
2.720000e-06	-3.602114e-06	-3.211978e-09	-2.561304e+01	-2.117665e+02
2.730000e-06	-3.737489e-06	-3.357668e-09	-2.657563e+01	-2.210922e+02
2.740000e-06	-3.871561e-06	-3.498623e-09	-2.752895e+01	-2.299003e+02
2.750000e-06	-4.004326e-06	-3.630058e-09	-2.847299e+01	-2.382400e+02
2.760000e-06	-4.135610e-06	-3.752056e-09	-2.940649e+01	-2.461545e+02
2.770000e-06	-4.265457e-06	-3.869431e-09	-3.032978e+01	-2.536792e+02
2.780000e-06	-4.393863e-06	-3.979978e-09	-3.124281e+01	-2.608412e+02
2.790000e-06	-4.520743e-06	-4.081312e-09	-3.214500e+01	-2.676599e+02
2.800000e-06	-4.646075e-06	-4.174227e-09	-3.303618e+01	-2.741493e+02
2.810000e-06	-4.769765e-06	-4.262812e-09	-3.391568e+01	-2.803204e+02
2.820000e-06	-4.891767e-06	-4.349734e-09	-3.478319e+01	-2.861837e+02
2.830000e-06	-5.012009e-06	-4.436430e-09	-3.563817e+01	-2.917517e+02
2.840000e-06	-5.130315e-06	-4.521214e-09	-3.647940e+01	-2.970402e+02
2.850000e-06	-5.246517e-06	-4.601071e-09	-3.730566e+01	-3.020686e+02
2.860000e-06	-5.360563e-06	-4.675074e-09	-3.811659e+01	-3.068592e+02
2.870000e-06	-5.472476e-06	-4.745899e-09	-3.891235e+01	-3.114360e+02
2.880000e-06	-5.582334e-06	-4.815730e-09	-3.969350e+01	-3.158225e+02
2.890000e-06	-5.690257e-06	-4.881247e-09	-4.046090e+01	-3.200391e+02
2.900000e-06	-5.796260e-06	-4.944093e-09	-4.121463e+01	-3.241016e+02
2.910000e-06	-5.900183e-06	-5.006475e-09	-4.195359e+01	-3.280192e+02
2.920000e-06	-6.001840e-06	-5.066006e-09	-4.267642e+01	-3.317943e+02
2.930000e-06	-6.101249e-06	-5.122817e-09	-4.338328e+01	-3.354227e+02
2.940000e-06	-6.198528e-06	-5.177413e-09	-4.407499e+01	-3.388954e+02
