# Temperatura_=_37.34
# Concentracion g/m^3_=_5000.0
# C_Vs_to_Am_M_A/Vsm_=_65563218390.804596
# pendiente_HvsI_1/m_=_3716.3
# ordenada_HvsI_A/m_=_1297.0
# frecuencia_Hz_=_302575.8622389042

Tiempo_(s)	Campo_(V.s)	Magnetizacion_(V.s)	Campo_(kA/m)	Magnetizacion_(A/m)
0.000000e+00	-8.027976e-06	-5.761956e-09	-5.684896e+01	-3.782734e+02
1.000000e-08	-8.024662e-06	-5.763047e-09	-5.682550e+01	-3.780389e+02
2.000000e-08	-8.018703e-06	-5.755328e-09	-5.678330e+01	-3.777474e+02
3.000000e-08	-8.010142e-06	-5.749831e-09	-5.672267e+01	-3.774215e+02
4.000000e-08	-7.998752e-06	-5.745973e-09	-5.664202e+01	-3.770830e+02
5.000000e-08	-7.984331e-06	-5.738634e-09	-5.653990e+01	-3.767500e+02
6.000000e-08	-7.967038e-06	-5.728742e-09	-5.641745e+01	-3.764335e+02
7.000000e-08	-7.947428e-06	-5.713818e-09	-5.627858e+01	-3.761360e+02
8.000000e-08	-7.925491e-06	-5.741766e-09	-5.612324e+01	-3.758504e+02
9.000000e-08	-7.900517e-06	-5.795940e-09	-5.594639e+01	-3.755602e+02
1.000000e-07	-7.872173e-06	-5.761176e-09	-5.574567e+01	-3.752415e+02
1.100000e-07	-7.840820e-06	-5.718398e-09	-5.552365e+01	-3.748659e+02
1.200000e-07	-7.806693e-06	-5.699445e-09	-5.528198e+01	-3.744030e+02
1.300000e-07	-7.769887e-06	-5.652234e-09	-5.502135e+01	-3.738253e+02
1.400000e-07	-7.730832e-06	-5.576173e-09	-5.474478e+01	-3.731105e+02
1.500000e-07	-7.689607e-06	-5.593740e-09	-5.445285e+01	-3.722448e+02
1.600000e-07	-7.645883e-06	-5.752565e-09	-5.414323e+01	-3.712243e+02
1.700000e-07	-7.599460e-06	-5.653255e-09	-5.381449e+01	-3.700554e+02
1.800000e-07	-7.550278e-06	-5.638435e-09	-5.346622e+01	-3.687542e+02
1.900000e-07	-7.498076e-06	-5.648137e-09	-5.309655e+01	-3.673436e+02
2.000000e-07	-7.442879e-06	-5.519556e-09	-5.270568e+01	-3.658514e+02
2.100000e-07	-7.384997e-06	-5.541426e-09	-5.229580e+01	-3.643060e+02
2.200000e-07	-7.324432e-06	-5.546341e-09	-5.186692e+01	-3.627337e+02
2.300000e-07	-7.261224e-06	-5.562810e-09	-5.141932e+01	-3.611553e+02
2.400000e-07	-7.195241e-06	-5.471484e-09	-5.095207e+01	-3.595844e+02
2.500000e-07	-7.126496e-06	-5.435177e-09	-5.046526e+01	-3.580257e+02
2.600000e-07	-7.055095e-06	-5.479654e-09	-4.995965e+01	-3.564758e+02
2.700000e-07	-6.980864e-06	-5.464708e-09	-4.943399e+01	-3.549236e+02
2.800000e-07	-6.903818e-06	-5.436122e-09	-4.888840e+01	-3.533527e+02
2.900000e-07	-6.823965e-06	-5.395445e-09	-4.832294e+01	-3.517433e+02
3.000000e-07	-6.741530e-06	-5.388023e-09	-4.773918e+01	-3.500757e+02
3.100000e-07	-6.656851e-06	-5.336936e-09	-4.713954e+01	-3.483317e+02
3.200000e-07	-6.569859e-06	-5.293266e-09	-4.652352e+01	-3.464972e+02
3.300000e-07	-6.480463e-06	-5.292631e-09	-4.589047e+01	-3.445630e+02
3.400000e-07	-6.388735e-06	-5.239978e-09	-4.524091e+01	-3.425254e+02
3.500000e-07	-6.294769e-06	-5.186648e-09	-4.457551e+01	-3.403853e+02
3.600000e-07	-6.198457e-06	-5.157940e-09	-4.389349e+01	-3.381477e+02
3.700000e-07	-6.099791e-06	-5.156884e-09	-4.319480e+01	-3.358197e+02
3.800000e-07	-5.998970e-06	-5.130998e-09	-4.248085e+01	-3.334092e+02
3.900000e-07	-5.896060e-06	-5.086916e-09	-4.175211e+01	-3.309232e+02
4.000000e-07	-5.790982e-06	-5.034921e-09	-4.100801e+01	-3.283664e+02
4.100000e-07	-5.683850e-06	-4.968162e-09	-4.024937e+01	-3.257409e+02
4.200000e-07	-5.574831e-06	-4.935292e-09	-3.947737e+01	-3.230459e+02
4.300000e-07	-5.463852e-06	-4.915359e-09	-3.869149e+01	-3.202778e+02
4.400000e-07	-5.350751e-06	-4.875828e-09	-3.789058e+01	-3.174312e+02
4.500000e-07	-5.235478e-06	-4.812731e-09	-3.707429e+01	-3.144994e+02
4.600000e-07	-5.118245e-06	-4.760422e-09	-3.624412e+01	-3.114758e+02
4.700000e-07	-4.999192e-06	-4.709646e-09	-3.540106e+01	-3.083543e+02
4.800000e-07	-4.878234e-06	-4.657991e-09	-3.454451e+01	-3.051300e+02
4.900000e-07	-4.755474e-06	-4.620750e-09	-3.367521e+01	-3.017994e+02
5.000000e-07	-4.631047e-06	-4.574913e-09	-3.279410e+01	-2.983599e+02
5.100000e-07	-4.504968e-06	-4.503910e-09	-3.190129e+01	-2.948098e+02
5.200000e-07	-4.377285e-06	-4.438204e-09	-3.099712e+01	-2.911476e+02
5.300000e-07	-4.247976e-06	-4.399617e-09	-3.008143e+01	-2.873714e+02
5.400000e-07	-4.117104e-06	-4.346445e-09	-2.915469e+01	-2.834788e+02
5.500000e-07	-3.984635e-06	-4.266858e-09	-2.821663e+01	-2.794663e+02
5.600000e-07	-3.850672e-06	-4.199117e-09	-2.726798e+01	-2.753296e+02
5.700000e-07	-3.715274e-06	-4.142537e-09	-2.630918e+01	-2.710642e+02
5.800000e-07	-3.578365e-06	-4.067805e-09	-2.533968e+01	-2.666654e+02
5.900000e-07	-3.440029e-06	-3.985421e-09	-2.436008e+01	-2.621289e+02
6.000000e-07	-3.300358e-06	-3.922819e-09	-2.337101e+01	-2.574514e+02
6.100000e-07	-3.159233e-06	-3.853731e-09	-2.237166e+01	-2.526305e+02
6.200000e-07	-3.016690e-06	-3.767819e-09	-2.136226e+01	-2.476646e+02
6.300000e-07	-2.872955e-06	-3.693436e-09	-2.034442e+01	-2.425524e+02
6.400000e-07	-2.728119e-06	-3.631735e-09	-1.931879e+01	-2.372923e+02
6.500000e-07	-2.582411e-06	-3.553847e-09	-1.828698e+01	-2.318815e+02
6.600000e-07	-2.435864e-06	-3.454448e-09	-1.724922e+01	-2.263147e+02
6.700000e-07	-2.288480e-06	-3.360384e-09	-1.620555e+01	-2.205841e+02
6.800000e-07	-2.140473e-06	-3.268442e-09	-1.515745e+01	-2.146787e+02
6.900000e-07	-1.991794e-06	-3.170270e-09	-1.410460e+01	-2.085846e+02
7.000000e-07	-1.842432e-06	-3.069472e-09	-1.304692e+01	-2.022854e+02
7.100000e-07	-1.692524e-06	-2.973370e-09	-1.198536e+01	-1.957636e+02
7.200000e-07	-1.542095e-06	-2.874437e-09	-1.092013e+01	-1.890016e+02
7.300000e-07	-1.391063e-06	-2.766154e-09	-9.850616e+00	-1.819835e+02
7.400000e-07	-1.239428e-06	-2.653762e-09	-8.776833e+00	-1.746957e+02
7.500000e-07	-1.087273e-06	-2.539175e-09	-7.699370e+00	-1.671281e+02
7.600000e-07	-9.347301e-07	-2.421351e-09	-6.619158e+00	-1.592741e+02
7.700000e-07	-7.819425e-07	-2.294752e-09	-5.537214e+00	-1.511294e+02
7.800000e-07	-6.288666e-07	-2.163626e-09	-4.453229e+00	-1.426914e+02
7.900000e-07	-4.755513e-07	-2.030104e-09	-3.367549e+00	-1.339564e+02
8.000000e-07	-3.221256e-07	-1.891851e-09	-2.281086e+00	-1.249179e+02
8.100000e-07	-1.686432e-07	-1.746325e-09	-1.194223e+00	-1.155642e+02
8.200000e-07	-1.504211e-08	-1.595707e-09	-1.065186e-01	-1.058769e+02
8.300000e-07	1.386491e-07	-1.438981e-09	9.818236e-01	-9.583022e+01
8.400000e-07	2.923171e-07	-1.275556e-09	2.070002e+00	-8.539134e+01
8.500000e-07	4.459325e-07	-1.107614e-09	3.157807e+00	-7.452266e+01
8.600000e-07	5.994527e-07	-9.354331e-10	4.244939e+00	-6.318511e+01
8.700000e-07	7.528070e-07	-7.603819e-10	5.330895e+00	-5.134269e+01
8.800000e-07	9.059413e-07	-5.742903e-10	6.415294e+00	-3.896782e+01
8.900000e-07	1.058794e-06	-3.767861e-10	7.497698e+00	-2.604694e+01
9.000000e-07	1.211316e-06	-1.739030e-10	8.577760e+00	-1.258563e+01
9.100000e-07	1.363380e-06	3.293684e-11	9.654579e+00	1.387402e+00
9.200000e-07	1.514794e-06	2.483646e-10	1.072680e+01	1.581796e+01
9.300000e-07	1.665567e-06	4.746318e-10	1.179447e+01	3.062610e+01
9.400000e-07	1.815793e-06	7.060233e-10	1.285828e+01	4.570822e+01
9.500000e-07	1.965434e-06	9.406993e-10	1.391794e+01	6.094134e+01
9.600000e-07	2.114299e-06	1.178371e-09	1.497211e+01	7.618935e+01
9.700000e-07	2.262335e-06	1.412892e-09	1.602040e+01	9.131055e+01
9.800000e-07	2.409589e-06	1.637115e-09	1.706316e+01	1.061659e+02
9.900000e-07	2.555969e-06	1.853559e-09	1.809973e+01	1.206272e+02
1.000000e-06	2.701388e-06	2.061047e-09	1.912950e+01	1.345840e+02
1.010000e-06	2.845834e-06	2.261580e-09	2.015237e+01	1.479491e+02
1.020000e-06	2.989187e-06	2.451501e-09	2.116750e+01	1.606622e+02
1.030000e-06	3.131405e-06	2.629631e-09	2.217460e+01	1.726905e+02
1.040000e-06	3.272406e-06	2.800755e-09	2.317308e+01	1.840273e+02
1.050000e-06	3.412088e-06	2.963857e-09	2.416221e+01	1.946890e+02
1.060000e-06	3.550472e-06	3.119390e-09	2.514216e+01	2.047097e+02
1.070000e-06	3.687401e-06	3.264939e-09	2.611180e+01	2.141354e+02
1.080000e-06	3.822781e-06	3.403452e-09	2.707048e+01	2.230182e+02
1.090000e-06	3.956807e-06	3.534136e-09	2.801956e+01	2.314107e+02
1.100000e-06	4.089521e-06	3.657053e-09	2.895936e+01	2.393613e+02
1.110000e-06	4.220774e-06	3.776260e-09	2.988881e+01	2.469117e+02
1.120000e-06	4.350526e-06	3.887999e-09	3.080763e+01	2.540952e+02
1.130000e-06	4.478723e-06	3.991699e-09	3.171544e+01	2.609368e+02
1.140000e-06	4.605370e-06	4.086596e-09	3.261227e+01	2.674548e+02
1.150000e-06	4.730535e-06	4.177571e-09	3.349860e+01	2.736629e+02
1.160000e-06	4.854130e-06	4.267641e-09	3.437383e+01	2.795726e+02
1.170000e-06	4.975935e-06	4.352573e-09	3.523637e+01	2.851953e+02
1.180000e-06	5.095875e-06	4.433106e-09	3.608571e+01	2.905447e+02
1.190000e-06	5.214040e-06	4.511258e-09	3.692248e+01	2.956369e+02
1.200000e-06	5.330268e-06	4.589925e-09	3.774553e+01	3.004908e+02
1.210000e-06	5.444359e-06	4.667585e-09	3.855345e+01	3.051267e+02
1.220000e-06	5.556368e-06	4.739468e-09	3.934662e+01	3.095652e+02
1.230000e-06	5.666377e-06	4.801351e-09	4.012564e+01	3.138248e+02
1.240000e-06	5.774433e-06	4.856513e-09	4.089082e+01	3.179202e+02
1.250000e-06	5.880397e-06	4.911806e-09	4.164119e+01	3.218609e+02
1.260000e-06	5.984074e-06	4.969803e-09	4.237536e+01	3.256505e+02
1.270000e-06	6.085600e-06	5.026088e-09	4.309431e+01	3.292871e+02
1.280000e-06	6.184931e-06	5.077636e-09	4.379771e+01	3.327642e+02
1.290000e-06	6.281806e-06	5.125606e-09	4.448372e+01	3.360723e+02
1.300000e-06	6.376371e-06	5.173521e-09	4.515336e+01	3.392020e+02
1.310000e-06	6.468759e-06	5.220149e-09	4.580759e+01	3.421454e+02
1.320000e-06	6.558807e-06	5.261158e-09	4.644525e+01	3.448988e+02
1.330000e-06	6.646458e-06	5.298568e-09	4.706594e+01	3.474641e+02
1.340000e-06	6.731843e-06	5.335291e-09	4.767059e+01	3.498492e+02
1.350000e-06	6.814963e-06	5.371220e-09	4.825919e+01	3.520680e+02
1.360000e-06	6.895670e-06	5.404407e-09	4.883070e+01	3.541385e+02
1.370000e-06	6.973783e-06	5.435849e-09	4.938385e+01	3.560817e+02
1.380000e-06	7.049196e-06	5.466767e-09	4.991788e+01	3.579185e+02
1.390000e-06	7.121875e-06	5.496256e-09	5.043254e+01	3.596675e+02
1.400000e-06	7.192005e-06	5.522565e-09	5.092916e+01	3.613431e+02
1.410000e-06	7.259696e-06	5.546060e-09	5.140850e+01	3.629540e+02
1.420000e-06	7.324772e-06	5.568080e-09	5.186933e+01	3.645027e+02
1.430000e-06	7.387318e-06	5.589455e-09	5.231224e+01	3.659861e+02
1.440000e-06	7.447452e-06	5.609597e-09	5.273807e+01	3.673965e+02
1.450000e-06	7.504919e-06	5.628162e-09	5.314502e+01	3.687240e+02
1.460000e-06	7.559627e-06	5.645695e-09	5.353242e+01	3.699587e+02
1.470000e-06	7.611349e-06	5.661553e-09	5.389868e+01	3.710927e+02
1.480000e-06	7.659906e-06	5.676933e-09	5.424253e+01	3.721222e+02
1.490000e-06	7.705685e-06	5.691370e-09	5.456671e+01	3.730487e+02
1.500000e-06	7.748844e-06	5.704787e-09	5.487233e+01	3.738787e+02
1.510000e-06	7.789211e-06	5.718548e-09	5.515819e+01	3.746235e+02
1.520000e-06	7.826783e-06	5.731280e-09	5.542424e+01	3.752973e+02
1.530000e-06	7.861598e-06	5.742278e-09	5.567078e+01	3.759152e+02
1.540000e-06	7.893566e-06	5.750610e-09	5.589716e+01	3.764908e+02
1.550000e-06	7.922819e-06	5.757041e-09	5.610431e+01	3.770337e+02
1.560000e-06	7.949225e-06	5.764259e-09	5.629130e+01	3.775487e+02
1.570000e-06	7.972628e-06	5.772636e-09	5.645703e+01	3.780339e+02
1.580000e-06	7.993361e-06	5.779561e-09	5.660385e+01	3.784818e+02
1.590000e-06	8.011325e-06	5.783811e-09	5.673105e+01	3.788800e+02
1.600000e-06	8.026202e-06	5.788311e-09	5.683641e+01	3.792134e+02
1.610000e-06	8.037936e-06	5.793135e-09	5.691950e+01	3.794669e+02
1.620000e-06	8.046550e-06	5.797098e-09	5.698050e+01	3.796276e+02
1.630000e-06	8.052280e-06	5.798538e-09	5.702107e+01	3.796880e+02
1.640000e-06	8.055165e-06	5.798220e-09	5.704150e+01	3.796469e+02
1.650000e-06	8.055144e-06	5.797781e-09	5.704135e+01	3.795108e+02
1.660000e-06	8.052433e-06	5.788377e-09	5.702215e+01	3.792933e+02
1.670000e-06	8.047078e-06	5.785516e-09	5.698423e+01	3.790134e+02
1.680000e-06	8.039032e-06	5.783670e-09	5.692726e+01	3.786934e+02
1.690000e-06	8.028303e-06	5.780679e-09	5.685128e+01	3.783556e+02
1.700000e-06	8.014682e-06	5.780555e-09	5.675483e+01	3.780194e+02
1.710000e-06	7.998360e-06	5.783859e-09	5.663925e+01	3.776976e+02
1.720000e-06	7.979698e-06	5.791517e-09	5.650709e+01	3.773951e+02
1.730000e-06	7.958635e-06	5.709400e-09	5.635794e+01	3.771071e+02
1.740000e-06	7.934619e-06	5.671213e-09	5.618787e+01	3.768195e+02
1.750000e-06	7.907017e-06	5.717544e-09	5.599241e+01	3.765100e+02
1.760000e-06	7.875862e-06	5.714724e-09	5.577179e+01	3.761508e+02
1.770000e-06	7.841878e-06	5.707110e-09	5.553114e+01	3.757120e+02
1.780000e-06	7.805547e-06	5.788077e-09	5.527386e+01	3.751648e+02
1.790000e-06	7.766881e-06	5.828939e-09	5.500006e+01	3.744854e+02
1.800000e-06	7.726198e-06	5.652425e-09	5.471197e+01	3.736576e+02
1.810000e-06	7.683227e-06	5.704727e-09	5.440767e+01	3.726750e+02
1.820000e-06	7.637490e-06	5.663869e-09	5.408380e+01	3.715416e+02
1.830000e-06	7.589093e-06	5.601927e-09	5.374108e+01	3.702710e+02
1.840000e-06	7.537738e-06	5.696070e-09	5.337741e+01	3.688847e+02
1.850000e-06	7.483406e-06	5.587277e-09	5.299267e+01	3.674097e+02
1.860000e-06	7.426347e-06	5.616169e-09	5.258862e+01	3.658744e+02
1.870000e-06	7.366581e-06	5.474578e-09	5.216539e+01	3.643061e+02
1.880000e-06	7.304192e-06	5.442494e-09	5.172359e+01	3.627271e+02
1.890000e-06	7.238987e-06	5.528971e-09	5.126185e+01	3.611530e+02
1.900000e-06	7.170939e-06	5.438985e-09	5.077998e+01	3.595907e+02
1.910000e-06	7.100037e-06	5.480641e-09	5.027790e+01	3.580388e+02
1.920000e-06	7.026308e-06	5.389447e-09	4.975579e+01	3.564880e+02
1.930000e-06	6.949891e-06	5.363456e-09	4.921466e+01	3.549230e+02
1.940000e-06	6.870695e-06	5.342383e-09	4.865385e+01	3.533246e+02
1.950000e-06	6.788974e-06	5.337279e-09	4.807515e+01	3.516728e+02
1.960000e-06	6.704790e-06	5.373468e-09	4.747901e+01	3.499488e+02
1.970000e-06	6.618079e-06	5.262912e-09	4.686498e+01	3.481375e+02
1.980000e-06	6.528944e-06	5.246605e-09	4.623378e+01	3.462282e+02
1.990000e-06	6.437485e-06	5.198277e-09	4.558613e+01	3.442160e+02
2.000000e-06	6.343818e-06	5.207015e-09	4.492284e+01	3.421006e+02
2.010000e-06	6.247834e-06	5.176657e-09	4.424315e+01	3.398862e+02
2.020000e-06	6.149629e-06	5.134593e-09	4.354772e+01	3.375796e+02
2.030000e-06	6.049224e-06	5.079142e-09	4.283672e+01	3.351885e+02
2.040000e-06	5.946629e-06	5.012807e-09	4.211021e+01	3.327202e+02
2.050000e-06	5.841895e-06	5.023895e-09	4.136855e+01	3.301802e+02
2.060000e-06	5.735245e-06	5.000155e-09	4.061332e+01	3.275714e+02
2.070000e-06	5.626722e-06	4.962598e-09	3.984483e+01	3.248934e+02
2.080000e-06	5.516147e-06	4.883271e-09	3.906181e+01	3.221435e+02
2.090000e-06	5.403536e-06	4.835641e-09	3.826437e+01	3.193166e+02
2.100000e-06	5.288797e-06	4.785419e-09	3.745186e+01	3.164061e+02
2.110000e-06	5.171993e-06	4.772852e-09	3.662473e+01	3.134055e+02
2.120000e-06	5.053251e-06	4.754899e-09	3.578387e+01	3.103085e+02
2.130000e-06	4.932665e-06	4.687847e-09	3.492996e+01	3.071097e+02
2.140000e-06	4.810317e-06	4.594934e-09	3.406358e+01	3.038054e+02
2.150000e-06	4.686143e-06	4.535642e-09	3.318425e+01	3.003928e+02
2.160000e-06	4.560148e-06	4.517755e-09	3.229204e+01	2.968699e+02
2.170000e-06	4.432535e-06	4.474500e-09	3.138836e+01	2.932354e+02
2.180000e-06	4.303347e-06	4.414103e-09	3.047354e+01	2.894873e+02
2.190000e-06	4.172672e-06	4.343674e-09	2.954818e+01	2.856236e+02
2.200000e-06	4.040437e-06	4.274362e-09	2.861178e+01	2.816408e+02
2.210000e-06	3.906591e-06	4.205178e-09	2.766397e+01	2.775351e+02
2.220000e-06	3.771317e-06	4.168399e-09	2.670604e+01	2.733018e+02
2.230000e-06	3.634590e-06	4.123056e-09	2.573783e+01	2.689362e+02
2.240000e-06	3.496433e-06	4.036602e-09	2.475949e+01	2.644339e+02
2.250000e-06	3.356854e-06	3.939110e-09	2.377108e+01	2.597914e+02
2.260000e-06	3.215980e-06	3.876029e-09	2.277350e+01	2.550059e+02
2.270000e-06	3.073917e-06	3.821949e-09	2.176750e+01	2.500758e+02
2.280000e-06	2.930695e-06	3.742684e-09	2.075330e+01	2.449998e+02
2.290000e-06	2.786370e-06	3.652332e-09	1.973128e+01	2.397764e+02
2.300000e-06	2.641037e-06	3.561057e-09	1.870213e+01	2.344030e+02
2.310000e-06	2.494808e-06	3.472961e-09	1.766663e+01	2.288753e+02
2.320000e-06	2.347845e-06	3.395096e-09	1.662593e+01	2.231860e+02
2.330000e-06	2.200082e-06	3.328158e-09	1.557957e+01	2.173250e+02
2.340000e-06	2.051371e-06	3.243815e-09	1.452649e+01	2.112790e+02
2.350000e-06	1.901944e-06	3.130214e-09	1.346835e+01	2.050322e+02
2.360000e-06	1.751953e-06	3.016762e-09	1.240621e+01	1.985671e+02
2.370000e-06	1.601426e-06	2.921355e-09	1.134027e+01	1.918662e+02
2.380000e-06	1.450371e-06	2.831228e-09	1.027059e+01	1.849129e+02
2.390000e-06	1.298863e-06	2.725445e-09	9.197714e+00	1.776931e+02
2.400000e-06	1.146987e-06	2.602005e-09	8.122225e+00	1.701957e+02
2.410000e-06	9.947613e-07	2.473571e-09	7.044260e+00	1.624132e+02
2.420000e-06	8.421921e-07	2.351214e-09	5.963863e+00	1.543409e+02
2.430000e-06	6.892947e-07	2.235532e-09	4.881142e+00	1.459759e+02
2.440000e-06	5.361393e-07	2.115274e-09	3.796594e+00	1.373151e+02
2.450000e-06	3.827722e-07	1.981305e-09	2.710547e+00	1.283527e+02
2.460000e-06	2.292825e-07	1.833414e-09	1.623631e+00	1.190788e+02
2.470000e-06	7.567939e-08	1.681800e-09	5.359128e-01	1.094765e+02
2.480000e-06	-7.802345e-08	1.531951e-09	-5.525120e-01	9.952192e+01
2.490000e-06	-2.317179e-07	1.379519e-09	-1.640877e+00	8.918391e+01
2.500000e-06	-3.853549e-07	1.215915e-09	-2.728836e+00	7.842581e+01
2.510000e-06	-5.388514e-07	1.040138e-09	-3.815799e+00	6.720852e+01
2.520000e-06	-6.922050e-07	8.582021e-10	-4.901751e+00	5.549477e+01
2.530000e-06	-8.453123e-07	6.749375e-10	-5.985958e+00	4.325437e+01
2.540000e-06	-9.980452e-07	4.874764e-10	-7.067515e+00	3.046976e+01
2.550000e-06	-1.150399e-06	2.880163e-10	-8.146387e+00	1.714128e+01
2.560000e-06	-1.302344e-06	7.311281e-11	-9.222361e+00	3.291562e+00
2.570000e-06	-1.453842e-06	-1.507343e-10	-1.029518e+01	-1.103167e+01
2.580000e-06	-1.604855e-06	-3.760604e-10	-1.136455e+01	-2.575480e+01
2.590000e-06	-1.755279e-06	-6.038794e-10	-1.242976e+01	-4.077984e+01
2.600000e-06	-1.905028e-06	-8.375380e-10	-1.349018e+01	-5.598813e+01
2.610000e-06	-2.054140e-06	-1.074978e-09	-1.454610e+01	-7.124617e+01
2.620000e-06	-2.202475e-06	-1.312219e-09	-1.559651e+01	-8.641290e+01
2.630000e-06	-2.349805e-06	-1.543581e-09	-1.663981e+01	-1.013479e+02
2.640000e-06	-2.496227e-06	-1.765223e-09	-1.767667e+01	-1.159194e+02
2.650000e-06	-2.641779e-06	-1.979520e-09	-1.870738e+01	-1.300120e+02
2.660000e-06	-2.786349e-06	-2.186877e-09	-1.973113e+01	-1.435323e+02
2.670000e-06	-2.929917e-06	-2.384875e-09	-2.074779e+01	-1.564131e+02
2.680000e-06	-3.072353e-06	-2.570256e-09	-2.175643e+01	-1.686147e+02
2.690000e-06	-3.213566e-06	-2.743309e-09	-2.275641e+01	-1.801243e+02
2.700000e-06	-3.353469e-06	-2.905437e-09	-2.374711e+01	-1.909527e+02
2.710000e-06	-3.492007e-06	-3.058065e-09	-2.472815e+01	-2.011302e+02
2.720000e-06	-3.629214e-06	-3.205078e-09	-2.569976e+01	-2.107005e+02
2.730000e-06	-3.765149e-06	-3.346887e-09	-2.666237e+01	-2.197146e+02
2.740000e-06	-3.899781e-06	-3.481884e-09	-2.761574e+01	-2.282254e+02
2.750000e-06	-4.032997e-06	-3.607021e-09	-2.855909e+01	-2.362828e+02
2.760000e-06	-4.164667e-06	-3.724164e-09	-2.949150e+01	-2.439304e+02
2.770000e-06	-4.294898e-06	-3.835444e-09	-3.041370e+01	-2.512034e+02
2.780000e-06	-4.423789e-06	-3.940076e-09	-3.132643e+01	-2.581291e+02
2.790000e-06	-4.551154e-06	-4.037607e-09	-3.222834e+01	-2.647272e+02
2.800000e-06	-4.676894e-06	-4.128924e-09	-3.311876e+01	-2.710122e+02
2.810000e-06	-4.800923e-06	-4.216916e-09	-3.399705e+01	-2.769960e+02
2.820000e-06	-4.923295e-06	-4.301398e-09	-3.486361e+01	-2.826898e+02
2.830000e-06	-5.043960e-06	-4.383812e-09	-3.571808e+01	-2.881067e+02
2.840000e-06	-5.162736e-06	-4.464319e-09	-3.655918e+01	-2.932621e+02
2.850000e-06	-5.279392e-06	-4.540892e-09	-3.738526e+01	-2.981742e+02
2.860000e-06	-5.393836e-06	-4.613001e-09	-3.819568e+01	-3.028632e+02
2.870000e-06	-5.506031e-06	-4.682531e-09	-3.899017e+01	-3.073498e+02
2.880000e-06	-5.616081e-06	-4.751869e-09	-3.976948e+01	-3.116531e+02
2.890000e-06	-5.724200e-06	-4.819376e-09	-4.053511e+01	-3.157889e+02
2.900000e-06	-5.830390e-06	-4.883668e-09	-4.128708e+01	-3.197683e+02
2.910000e-06	-5.934509e-06	-4.944092e-09	-4.202438e+01	-3.235962e+02
2.920000e-06	-6.036364e-06	-4.999293e-09	-4.274565e+01	-3.272721e+02
2.930000e-06	-6.135956e-06	-5.051546e-09	-4.345090e+01	-3.307904e+02
2.940000e-06	-6.233403e-06	-5.100909e-09	-4.414095e+01	-3.341422e+02
