# Temperatura_=_38.42
# Concentracion g/m^3_=_5000.0
# C_Vs_to_Am_M_A/Vsm_=_65563218390.804596
# pendiente_HvsI_1/m_=_3716.3
# ordenada_HvsI_A/m_=_1297.0
# frecuencia_Hz_=_302577.06508289155

Tiempo_(s)	Campo_(V.s)	Magnetizacion_(V.s)	Campo_(kA/m)	Magnetizacion_(A/m)
0.000000e+00	-7.929610e-06	-5.636942e-09	-5.685347e+01	-3.683864e+02
1.000000e-08	-7.926659e-06	-5.634584e-09	-5.683231e+01	-3.681807e+02
2.000000e-08	-7.921042e-06	-5.630140e-09	-5.679204e+01	-3.678998e+02
3.000000e-08	-7.912930e-06	-5.622866e-09	-5.673388e+01	-3.675649e+02
4.000000e-08	-7.902053e-06	-5.615582e-09	-5.665589e+01	-3.671993e+02
5.000000e-08	-7.888283e-06	-5.609933e-09	-5.655717e+01	-3.668262e+02
6.000000e-08	-7.871607e-06	-5.605312e-09	-5.643760e+01	-3.664646e+02
7.000000e-08	-7.852427e-06	-5.601753e-09	-5.630008e+01	-3.661271e+02
8.000000e-08	-7.830976e-06	-5.614450e-09	-5.614628e+01	-3.658176e+02
9.000000e-08	-7.806689e-06	-5.606052e-09	-5.597216e+01	-3.655306e+02
1.000000e-07	-7.779083e-06	-5.618579e-09	-5.577423e+01	-3.652514e+02
1.100000e-07	-7.748474e-06	-5.619344e-09	-5.555477e+01	-3.649576e+02
1.200000e-07	-7.715155e-06	-5.579059e-09	-5.531587e+01	-3.646217e+02
1.300000e-07	-7.679162e-06	-5.522030e-09	-5.505782e+01	-3.642143e+02
1.400000e-07	-7.640884e-06	-5.465049e-09	-5.478337e+01	-3.637075e+02
1.500000e-07	-7.600529e-06	-5.506096e-09	-5.449404e+01	-3.630781e+02
1.600000e-07	-7.557773e-06	-5.549669e-09	-5.418748e+01	-3.623102e+02
1.700000e-07	-7.512288e-06	-5.572331e-09	-5.386137e+01	-3.613971e+02
1.800000e-07	-7.464171e-06	-5.568242e-09	-5.351638e+01	-3.603413e+02
1.900000e-07	-7.413111e-06	-5.475862e-09	-5.315029e+01	-3.591539e+02
2.000000e-07	-7.358967e-06	-5.421989e-09	-5.276209e+01	-3.578534e+02
2.100000e-07	-7.302106e-06	-5.378853e-09	-5.235441e+01	-3.564621e+02
2.200000e-07	-7.242571e-06	-5.385417e-09	-5.192756e+01	-3.550041e+02
2.300000e-07	-7.180470e-06	-5.404712e-09	-5.148231e+01	-3.535018e+02
2.400000e-07	-7.115736e-06	-5.346906e-09	-5.101818e+01	-3.519731e+02
2.500000e-07	-7.048198e-06	-5.336309e-09	-5.053395e+01	-3.504301e+02
2.600000e-07	-6.977974e-06	-5.337775e-09	-5.003046e+01	-3.488776e+02
2.700000e-07	-6.905031e-06	-5.336891e-09	-4.950748e+01	-3.473132e+02
2.800000e-07	-6.829316e-06	-5.298452e-09	-4.896462e+01	-3.457285e+02
2.900000e-07	-6.750890e-06	-5.284620e-09	-4.840232e+01	-3.441102e+02
3.000000e-07	-6.669807e-06	-5.263790e-09	-4.782097e+01	-3.424428e+02
3.100000e-07	-6.586293e-06	-5.205435e-09	-4.722220e+01	-3.407106e+02
3.200000e-07	-6.500562e-06	-5.198480e-09	-4.660753e+01	-3.388996e+02
3.300000e-07	-6.412539e-06	-5.163381e-09	-4.597642e+01	-3.369992e+02
3.400000e-07	-6.322142e-06	-5.100454e-09	-4.532830e+01	-3.350034e+02
3.500000e-07	-6.229546e-06	-5.044550e-09	-4.466440e+01	-3.329105e+02
3.600000e-07	-6.134747e-06	-5.038907e-09	-4.398472e+01	-3.307229e+02
3.700000e-07	-6.037669e-06	-5.029417e-09	-4.328869e+01	-3.284460e+02
3.800000e-07	-5.938341e-06	-4.991551e-09	-4.257653e+01	-3.260870e+02
3.900000e-07	-5.836905e-06	-4.967675e-09	-4.184926e+01	-3.236529e+02
4.000000e-07	-5.733433e-06	-4.917959e-09	-4.110739e+01	-3.211496e+02
4.100000e-07	-5.627868e-06	-4.849521e-09	-4.035051e+01	-3.185804e+02
4.200000e-07	-5.520344e-06	-4.799428e-09	-3.957959e+01	-3.159458e+02
4.300000e-07	-5.410913e-06	-4.801544e-09	-3.879500e+01	-3.132433e+02
4.400000e-07	-5.299601e-06	-4.772202e-09	-3.799691e+01	-3.104674e+02
4.500000e-07	-5.186237e-06	-4.704747e-09	-3.718412e+01	-3.076109e+02
4.600000e-07	-5.070729e-06	-4.649999e-09	-3.635596e+01	-3.046655e+02
4.700000e-07	-4.953256e-06	-4.607134e-09	-3.551370e+01	-3.016228e+02
4.800000e-07	-4.833977e-06	-4.550720e-09	-3.465849e+01	-2.984752e+02
4.900000e-07	-4.713058e-06	-4.497002e-09	-3.379153e+01	-2.952166e+02
5.000000e-07	-4.590408e-06	-4.458864e-09	-3.291217e+01	-2.918427e+02
5.100000e-07	-4.466005e-06	-4.399083e-09	-3.202022e+01	-2.883510e+02
5.200000e-07	-4.339958e-06	-4.337542e-09	-3.111649e+01	-2.847404e+02
5.300000e-07	-4.212361e-06	-4.291366e-09	-3.020166e+01	-2.810109e+02
5.400000e-07	-4.083273e-06	-4.242311e-09	-2.927612e+01	-2.771631e+02
5.500000e-07	-3.952658e-06	-4.166471e-09	-2.833964e+01	-2.731974e+02
5.600000e-07	-3.820534e-06	-4.097787e-09	-2.739234e+01	-2.691140e+02
5.700000e-07	-3.686865e-06	-4.041936e-09	-2.643397e+01	-2.649124e+02
5.800000e-07	-3.551796e-06	-3.968258e-09	-2.546555e+01	-2.605915e+02
5.900000e-07	-3.415458e-06	-3.887091e-09	-2.448804e+01	-2.561493e+02
6.000000e-07	-3.277828e-06	-3.820027e-09	-2.350127e+01	-2.515835e+02
6.100000e-07	-3.138890e-06	-3.755201e-09	-2.250512e+01	-2.468912e+02
6.200000e-07	-2.998492e-06	-3.675083e-09	-2.149850e+01	-2.420689e+02
6.300000e-07	-2.856798e-06	-3.601828e-09	-2.048258e+01	-2.371128e+02
6.400000e-07	-2.714049e-06	-3.539100e-09	-1.945910e+01	-2.320179e+02
6.500000e-07	-2.570287e-06	-3.464390e-09	-1.842837e+01	-2.267782e+02
6.600000e-07	-2.425587e-06	-3.373231e-09	-1.739090e+01	-2.213859e+02
6.700000e-07	-2.279924e-06	-3.282931e-09	-1.634653e+01	-2.158317e+02
6.800000e-07	-2.133410e-06	-3.193148e-09	-1.529606e+01	-2.101043e+02
6.900000e-07	-1.986279e-06	-3.095305e-09	-1.424116e+01	-2.041904e+02
7.000000e-07	-1.838587e-06	-2.996604e-09	-1.318224e+01	-1.980761e+02
7.100000e-07	-1.690293e-06	-2.901125e-09	-1.211901e+01	-1.917463e+02
7.200000e-07	-1.541433e-06	-2.801177e-09	-1.105172e+01	-1.851869e+02
7.300000e-07	-1.392133e-06	-2.693114e-09	-9.981270e+00	-1.783848e+02
7.400000e-07	-1.242473e-06	-2.586673e-09	-8.908242e+00	-1.713289e+02
7.500000e-07	-1.092473e-06	-2.479887e-09	-7.832777e+00	-1.640108e+02
7.600000e-07	-9.420761e-07	-2.370249e-09	-6.754467e+00	-1.564242e+02
7.700000e-07	-7.913014e-07	-2.253989e-09	-5.673448e+00	-1.485648e+02
7.800000e-07	-6.402841e-07	-2.128573e-09	-4.590689e+00	-1.404284e+02
7.900000e-07	-4.890754e-07	-1.995969e-09	-3.506558e+00	-1.320100e+02
8.000000e-07	-3.376934e-07	-1.857738e-09	-2.421183e+00	-1.233015e+02
8.100000e-07	-1.861873e-07	-1.716473e-09	-1.334920e+00	-1.142901e+02
8.200000e-07	-3.460472e-08	-1.570081e-09	-2.481079e-01	-1.049569e+02
8.300000e-07	1.170385e-07	-1.418531e-09	8.391387e-01	-9.527648e+01
8.400000e-07	2.687263e-07	-1.263102e-09	1.926705e+00	-8.521721e+01
8.500000e-07	4.203379e-07	-1.103160e-09	3.013726e+00	-7.474319e+01
8.600000e-07	5.718275e-07	-9.373593e-10	4.099871e+00	-6.381709e+01
8.700000e-07	7.231989e-07	-7.662360e-10	5.185169e+00	-5.240426e+01
8.800000e-07	8.743021e-07	-5.882442e-10	6.268543e+00	-4.047752e+01
8.900000e-07	1.025163e-06	-4.007724e-10	7.350183e+00	-2.802226e+01
9.000000e-07	1.175703e-06	-2.045098e-10	8.429518e+00	-1.504122e+01
9.100000e-07	1.325797e-06	-1.333488e-12	9.505658e+00	-1.558477e+00
9.200000e-07	1.475485e-06	2.088797e-10	1.057888e+01	1.237811e+01
9.300000e-07	1.624699e-06	4.275939e-10	1.164872e+01	2.669619e+01
9.400000e-07	1.773358e-06	6.519062e-10	1.271456e+01	4.130041e+01
9.500000e-07	1.921365e-06	8.775824e-10	1.377574e+01	5.607593e+01
9.600000e-07	2.068641e-06	1.104222e-09	1.483168e+01	7.089387e+01
9.700000e-07	2.215146e-06	1.329810e-09	1.588208e+01	8.561824e+01
9.800000e-07	2.360852e-06	1.549590e-09	1.692676e+01	1.001136e+02
9.900000e-07	2.505613e-06	1.762837e-09	1.796466e+01	1.142528e+02
1.000000e-06	2.649377e-06	1.967912e-09	1.899542e+01	1.279243e+02
1.010000e-06	2.792188e-06	2.166770e-09	2.001934e+01	1.410377e+02
1.020000e-06	2.933897e-06	2.354780e-09	2.103537e+01	1.535276e+02
1.030000e-06	3.074476e-06	2.528116e-09	2.204328e+01	1.653557e+02
1.040000e-06	3.213767e-06	2.693706e-09	2.304196e+01	1.765095e+02
1.050000e-06	3.351617e-06	2.852031e-09	2.403032e+01	1.870002e+02
1.060000e-06	3.488138e-06	3.002404e-09	2.500914e+01	1.968578e+02
1.070000e-06	3.623466e-06	3.142277e-09	2.597941e+01	2.061259e+02
1.080000e-06	3.757581e-06	3.277194e-09	2.694099e+01	2.148557e+02
1.090000e-06	3.890410e-06	3.407421e-09	2.789334e+01	2.231004e+02
1.100000e-06	4.021827e-06	3.530856e-09	2.883557e+01	2.309100e+02
1.110000e-06	4.151626e-06	3.648141e-09	2.976620e+01	2.383283e+02
1.120000e-06	4.279884e-06	3.756437e-09	3.068578e+01	2.453906e+02
1.130000e-06	4.406793e-06	3.855789e-09	3.159569e+01	2.521234e+02
1.140000e-06	4.532252e-06	3.947827e-09	3.249520e+01	2.585451e+02
1.150000e-06	4.656166e-06	4.037101e-09	3.338363e+01	2.646685e+02
1.160000e-06	4.778350e-06	4.125599e-09	3.425967e+01	2.705027e+02
1.170000e-06	4.898791e-06	4.209509e-09	3.512320e+01	2.760563e+02
1.180000e-06	5.017576e-06	4.287939e-09	3.597486e+01	2.813392e+02
1.190000e-06	5.134586e-06	4.364690e-09	3.681379e+01	2.863639e+02
1.200000e-06	5.249566e-06	4.442152e-09	3.763818e+01	2.911465e+02
1.210000e-06	5.362358e-06	4.517239e-09	3.844687e+01	2.957056e+02
1.220000e-06	5.473201e-06	4.586146e-09	3.924158e+01	3.000616e+02
1.230000e-06	5.582239e-06	4.647596e-09	4.002336e+01	3.042343e+02
1.240000e-06	5.689369e-06	4.703213e-09	4.079146e+01	3.082414e+02
1.250000e-06	5.794311e-06	4.756890e-09	4.154387e+01	3.120961e+02
1.260000e-06	5.897020e-06	4.809670e-09	4.228027e+01	3.158064e+02
1.270000e-06	5.997639e-06	4.862577e-09	4.300168e+01	3.193746e+02
1.280000e-06	6.095985e-06	4.912555e-09	4.370680e+01	3.227976e+02
1.290000e-06	6.191983e-06	4.959443e-09	4.439509e+01	3.260680e+02
1.300000e-06	6.285828e-06	5.006361e-09	4.506794e+01	3.291768e+02
1.310000e-06	6.377472e-06	5.053301e-09	4.572500e+01	3.321147e+02
1.320000e-06	6.466800e-06	5.095644e-09	4.636546e+01	3.348753e+02
1.330000e-06	6.553760e-06	5.132054e-09	4.698894e+01	3.374563e+02
1.340000e-06	6.638481e-06	5.166240e-09	4.759638e+01	3.398611e+02
1.350000e-06	6.720880e-06	5.201031e-09	4.818715e+01	3.420990e+02
1.360000e-06	6.800759e-06	5.234959e-09	4.875987e+01	3.441845e+02
1.370000e-06	6.878214e-06	5.265735e-09	4.931520e+01	3.461357e+02
1.380000e-06	6.953049e-06	5.294254e-09	4.985176e+01	3.479727e+02
1.390000e-06	7.025205e-06	5.321612e-09	5.036910e+01	3.497147e+02
1.400000e-06	7.094952e-06	5.347677e-09	5.086916e+01	3.513779e+02
1.410000e-06	7.162149e-06	5.372366e-09	5.135095e+01	3.529741e+02
1.420000e-06	7.226701e-06	5.395119e-09	5.181377e+01	3.545088e+02
1.430000e-06	7.288837e-06	5.416373e-09	5.225928e+01	3.559820e+02
1.440000e-06	7.348562e-06	5.436627e-09	5.268749e+01	3.573879e+02
1.450000e-06	7.405616e-06	5.455933e-09	5.309655e+01	3.587177e+02
1.460000e-06	7.459926e-06	5.472410e-09	5.348594e+01	3.599604e+02
1.470000e-06	7.511265e-06	5.486333e-09	5.385403e+01	3.611064e+02
1.480000e-06	7.559524e-06	5.500866e-09	5.420004e+01	3.621486e+02
1.490000e-06	7.605105e-06	5.515595e-09	5.452685e+01	3.630848e+02
1.500000e-06	7.648055e-06	5.527455e-09	5.483478e+01	3.639181e+02
1.510000e-06	7.688218e-06	5.538589e-09	5.512275e+01	3.646570e+02
1.520000e-06	7.725703e-06	5.550939e-09	5.539151e+01	3.653146e+02
1.530000e-06	7.760537e-06	5.562741e-09	5.564125e+01	3.659062e+02
1.540000e-06	7.792533e-06	5.572085e-09	5.587066e+01	3.664478e+02
1.550000e-06	7.821735e-06	5.578949e-09	5.608003e+01	3.669530e+02
1.560000e-06	7.848120e-06	5.586835e-09	5.626921e+01	3.674314e+02
1.570000e-06	7.871549e-06	5.594686e-09	5.643719e+01	3.678866e+02
1.580000e-06	7.892309e-06	5.601280e-09	5.658603e+01	3.683160e+02
1.590000e-06	7.910411e-06	5.606085e-09	5.671582e+01	3.687108e+02
1.600000e-06	7.925522e-06	5.609957e-09	5.682416e+01	3.690576e+02
1.610000e-06	7.937474e-06	5.612655e-09	5.690986e+01	3.693406e+02
1.620000e-06	7.946268e-06	5.613233e-09	5.697291e+01	3.695438e+02
1.630000e-06	7.952191e-06	5.614820e-09	5.701537e+01	3.696544e+02
1.640000e-06	7.955405e-06	5.617905e-09	5.703841e+01	3.696647e+02
1.650000e-06	7.955835e-06	5.617600e-09	5.704150e+01	3.695740e+02
1.660000e-06	7.953560e-06	5.617771e-09	5.702519e+01	3.693894e+02
1.670000e-06	7.948660e-06	5.613296e-09	5.699005e+01	3.691251e+02
1.680000e-06	7.941055e-06	5.607897e-09	5.693553e+01	3.688011e+02
1.690000e-06	7.930751e-06	5.603584e-09	5.686165e+01	3.684405e+02
1.700000e-06	7.917619e-06	5.600647e-09	5.676750e+01	3.680669e+02
1.710000e-06	7.901785e-06	5.598749e-09	5.665397e+01	3.677005e+02
1.720000e-06	7.883661e-06	5.590389e-09	5.652403e+01	3.673558e+02
1.730000e-06	7.863255e-06	5.564669e-09	5.637772e+01	3.670390e+02
1.740000e-06	7.840042e-06	5.557972e-09	5.621128e+01	3.667470e+02
1.750000e-06	7.813356e-06	5.531318e-09	5.601996e+01	3.664673e+02
1.760000e-06	7.783030e-06	5.528078e-09	5.580253e+01	3.661791e+02
1.770000e-06	7.749763e-06	5.553583e-09	5.556401e+01	3.658561e+02
1.780000e-06	7.714202e-06	5.600579e-09	5.530904e+01	3.654689e+02
1.790000e-06	7.676298e-06	5.581567e-09	5.503728e+01	3.649889e+02
1.800000e-06	7.636342e-06	5.568851e-09	5.475080e+01	3.643915e+02
1.810000e-06	7.594256e-06	5.555361e-09	5.444906e+01	3.636588e+02
1.820000e-06	7.549514e-06	5.481676e-09	5.412827e+01	3.627817e+02
1.830000e-06	7.502075e-06	5.538670e-09	5.378815e+01	3.617604e+02
1.840000e-06	7.451747e-06	5.519781e-09	5.342730e+01	3.606041e+02
1.850000e-06	7.398501e-06	5.558098e-09	5.304554e+01	3.593294e+02
1.860000e-06	7.342488e-06	5.531416e-09	5.264394e+01	3.579581e+02
1.870000e-06	7.283764e-06	5.402938e-09	5.222290e+01	3.565142e+02
1.880000e-06	7.222462e-06	5.398664e-09	5.178338e+01	3.550206e+02
1.890000e-06	7.158398e-06	5.340529e-09	5.132406e+01	3.534967e+02
1.900000e-06	7.091602e-06	5.350733e-09	5.084515e+01	3.519561e+02
1.910000e-06	7.022006e-06	5.352482e-09	5.034616e+01	3.504055e+02
1.920000e-06	6.949562e-06	5.325278e-09	4.982675e+01	3.488443e+02
1.930000e-06	6.874506e-06	5.263396e-09	4.928862e+01	3.472653e+02
1.940000e-06	6.796690e-06	5.212540e-09	4.873070e+01	3.456564e+02
1.950000e-06	6.716228e-06	5.261187e-09	4.815380e+01	3.440024e+02
1.960000e-06	6.633292e-06	5.209910e-09	4.755917e+01	3.422873e+02
1.970000e-06	6.547968e-06	5.177988e-09	4.694741e+01	3.404967e+02
1.980000e-06	6.460280e-06	5.148662e-09	4.631871e+01	3.386190e+02
1.990000e-06	6.370245e-06	5.127207e-09	4.567319e+01	3.366470e+02
2.000000e-06	6.278032e-06	5.094668e-09	4.501203e+01	3.345778e+02
2.010000e-06	6.183524e-06	5.054267e-09	4.433444e+01	3.324130e+02
2.020000e-06	6.086792e-06	5.043672e-09	4.364089e+01	3.301575e+02
2.030000e-06	5.987929e-06	4.969946e-09	4.293206e+01	3.278179e+02
2.040000e-06	5.886932e-06	4.926304e-09	4.220794e+01	3.254015e+02
2.050000e-06	5.783780e-06	4.920652e-09	4.146837e+01	3.229146e+02
2.060000e-06	5.678599e-06	4.932928e-09	4.071424e+01	3.203613e+02
2.070000e-06	5.571551e-06	4.863347e-09	3.994673e+01	3.177428e+02
2.080000e-06	5.462605e-06	4.782879e-09	3.916561e+01	3.150572e+02
2.090000e-06	5.351659e-06	4.729849e-09	3.837016e+01	3.122999e+02
2.100000e-06	5.238640e-06	4.683660e-09	3.755984e+01	3.094639e+02
2.110000e-06	5.123690e-06	4.662673e-09	3.673567e+01	3.065411e+02
2.120000e-06	5.006733e-06	4.653799e-09	3.589712e+01	3.035230e+02
2.130000e-06	4.887765e-06	4.614281e-09	3.504415e+01	3.004018e+02
2.140000e-06	4.766991e-06	4.521171e-09	3.417822e+01	2.971711e+02
2.150000e-06	4.644471e-06	4.456905e-09	3.329978e+01	2.938259e+02
2.160000e-06	4.520231e-06	4.421723e-09	3.240901e+01	2.903633e+02
2.170000e-06	4.394410e-06	4.387185e-09	3.150690e+01	2.867821e+02
2.180000e-06	4.266978e-06	4.322643e-09	3.059324e+01	2.830818e+02
2.190000e-06	4.137965e-06	4.263273e-09	2.966825e+01	2.792631e+02
2.200000e-06	4.007502e-06	4.195701e-09	2.873286e+01	2.753264e+02
2.210000e-06	3.875543e-06	4.128864e-09	2.778675e+01	2.712721e+02
2.220000e-06	3.742140e-06	4.080706e-09	2.683028e+01	2.670997e+02
2.230000e-06	3.607319e-06	4.035246e-09	2.586364e+01	2.628083e+02
2.240000e-06	3.471020e-06	3.962350e-09	2.488641e+01	2.583962e+02
2.250000e-06	3.333360e-06	3.875551e-09	2.389942e+01	2.538612e+02
2.260000e-06	3.194537e-06	3.812232e-09	2.290409e+01	2.492003e+02
2.270000e-06	3.054500e-06	3.752870e-09	2.190006e+01	2.444105e+02
2.280000e-06	2.913259e-06	3.674707e-09	2.088740e+01	2.394878e+02
2.290000e-06	2.770886e-06	3.582909e-09	1.986661e+01	2.344277e+02
2.300000e-06	2.627408e-06	3.496461e-09	1.883791e+01	2.292244e+02
2.310000e-06	2.482905e-06	3.411241e-09	1.780186e+01	2.238707e+02
2.320000e-06	2.337649e-06	3.337502e-09	1.676040e+01	2.183575e+02
2.330000e-06	2.191705e-06	3.271809e-09	1.571402e+01	2.126741e+02
2.340000e-06	2.044947e-06	3.190353e-09	1.466179e+01	2.068078e+02
2.350000e-06	1.897555e-06	3.082621e-09	1.360503e+01	2.007445e+02
2.360000e-06	1.749645e-06	2.975127e-09	1.254455e+01	1.944695e+02
2.370000e-06	1.601214e-06	2.882870e-09	1.148033e+01	1.879684e+02
2.380000e-06	1.452232e-06	2.792251e-09	1.041217e+01	1.812277e+02
2.390000e-06	1.302769e-06	2.688532e-09	9.340550e+00	1.742357e+02
2.400000e-06	1.152863e-06	2.569555e-09	8.265758e+00	1.669834e+02
2.410000e-06	1.002540e-06	2.444472e-09	7.187982e+00	1.594640e+02
2.420000e-06	8.519459e-07	2.322512e-09	6.108255e+00	1.516727e+02
2.430000e-06	7.011154e-07	2.210597e-09	5.026835e+00	1.436055e+02
2.440000e-06	5.499582e-07	2.098631e-09	3.943073e+00	1.352578e+02
2.450000e-06	3.985007e-07	1.971817e-09	2.857158e+00	1.266224e+02
2.460000e-06	2.468427e-07	1.830491e-09	1.769805e+00	1.176878e+02
2.470000e-06	9.501932e-08	1.683651e-09	6.812666e-01	1.084368e+02
2.480000e-06	-5.689325e-08	1.535700e-09	-4.079114e-01	9.884548e+01
2.490000e-06	-2.087850e-07	1.383081e-09	-1.496940e+00	8.888374e+01
2.500000e-06	-3.605634e-07	1.224478e-09	-2.585156e+00	7.851649e+01
2.510000e-06	-5.121398e-07	1.059392e-09	-3.671924e+00	6.770641e+01
2.520000e-06	-6.635996e-07	8.873040e-10	-4.757856e+00	5.641777e+01
2.530000e-06	-8.149274e-07	7.116501e-10	-5.842841e+00	4.462103e+01
2.540000e-06	-9.659381e-07	5.314661e-10	-6.925553e+00	3.229797e+01
2.550000e-06	-1.116586e-06	3.381013e-10	-8.005660e+00	1.944658e+01
2.560000e-06	-1.266783e-06	1.278363e-10	-9.082544e+00	6.085309e+00
2.570000e-06	-1.416457e-06	-8.951373e-11	-1.015567e+01	-7.744076e+00
2.580000e-06	-1.565613e-06	-3.064804e-10	-1.122508e+01	-2.197530e+01
2.590000e-06	-1.714182e-06	-5.263359e-10	-1.229029e+01	-3.651849e+01
2.600000e-06	-1.862121e-06	-7.543771e-10	-1.335098e+01	-5.126325e+01
2.610000e-06	-2.009438e-06	-9.875938e-10	-1.440721e+01	-6.608361e+01
2.620000e-06	-2.156101e-06	-1.219954e-09	-1.545875e+01	-8.084465e+01
2.630000e-06	-2.301958e-06	-1.447079e-09	-1.650451e+01	-9.541004e+01
2.640000e-06	-2.446931e-06	-1.663677e-09	-1.754393e+01	-1.096499e+02
2.650000e-06	-2.590990e-06	-1.870252e-09	-1.857680e+01	-1.234481e+02
2.660000e-06	-2.734013e-06	-2.069718e-09	-1.960224e+01	-1.367086e+02
2.670000e-06	-2.875839e-06	-2.264403e-09	-2.061910e+01	-1.493595e+02
2.680000e-06	-3.016362e-06	-2.450259e-09	-2.162662e+01	-1.613556e+02
2.690000e-06	-3.155695e-06	-2.622545e-09	-2.262560e+01	-1.726783e+02
2.700000e-06	-3.293903e-06	-2.782900e-09	-2.361652e+01	-1.833330e+02
2.710000e-06	-3.430894e-06	-2.933137e-09	-2.459872e+01	-1.933456e+02
2.720000e-06	-3.566609e-06	-3.078224e-09	-2.557176e+01	-2.027569e+02
2.730000e-06	-3.700975e-06	-3.218805e-09	-2.653514e+01	-2.116167e+02
2.740000e-06	-3.833900e-06	-3.351553e-09	-2.748818e+01	-2.199782e+02
2.750000e-06	-3.965534e-06	-3.474359e-09	-2.843196e+01	-2.278926e+02
2.760000e-06	-4.095890e-06	-3.588534e-09	-2.936659e+01	-2.354055e+02
2.770000e-06	-4.224883e-06	-3.697303e-09	-3.029143e+01	-2.425544e+02
2.780000e-06	-4.352438e-06	-3.800511e-09	-3.120597e+01	-2.493680e+02
2.790000e-06	-4.478339e-06	-3.897834e-09	-3.210866e+01	-2.558665e+02
2.800000e-06	-4.602689e-06	-3.989934e-09	-3.300021e+01	-2.620639e+02
2.810000e-06	-4.725530e-06	-4.076961e-09	-3.388095e+01	-2.679701e+02
2.820000e-06	-4.846656e-06	-4.159305e-09	-3.474940e+01	-2.735935e+02
2.830000e-06	-4.965990e-06	-4.241430e-09	-3.560500e+01	-2.789434e+02
2.840000e-06	-5.083288e-06	-4.323239e-09	-3.644600e+01	-2.840317e+02
2.850000e-06	-5.198516e-06	-4.399404e-09	-3.727216e+01	-2.888735e+02
2.860000e-06	-5.311675e-06	-4.469851e-09	-3.808348e+01	-2.934871e+02
2.870000e-06	-5.422677e-06	-4.537660e-09	-3.887934e+01	-2.978924e+02
2.880000e-06	-5.531756e-06	-4.605707e-09	-3.966141e+01	-3.021096e+02
2.890000e-06	-5.638991e-06	-4.672491e-09	-4.043026e+01	-3.061570e+02
2.900000e-06	-5.744300e-06	-4.736601e-09	-4.118530e+01	-3.100492e+02
2.910000e-06	-5.847500e-06	-4.796130e-09	-4.192523e+01	-3.137957e+02
2.920000e-06	-5.948475e-06	-4.849099e-09	-4.264919e+01	-3.174000e+02
2.930000e-06	-6.047296e-06	-4.901168e-09	-4.335771e+01	-3.208602e+02
2.940000e-06	-6.144040e-06	-4.952468e-09	-4.405135e+01	-3.241700e+02
