# Temperatura_=_38.58
# Concentracion g/m^3_=_5000.0
# C_Vs_to_Am_M_A/Vsm_=_65563218390.804596
# pendiente_HvsI_1/m_=_3716.3
# ordenada_HvsI_A/m_=_1297.0
# frecuencia_Hz_=_302580.38855251577

Tiempo_(s)	Campo_(V.s)	Magnetizacion_(V.s)	Campo_(kA/m)	Magnetizacion_(A/m)
0.000000e+00	-8.011347e-06	-5.677678e-09	-5.685438e+01	-3.716437e+02
1.000000e-08	-8.008467e-06	-5.677572e-09	-5.683394e+01	-3.714085e+02
2.000000e-08	-8.002859e-06	-5.672202e-09	-5.679414e+01	-3.710998e+02
3.000000e-08	-7.994775e-06	-5.665620e-09	-5.673677e+01	-3.707393e+02
4.000000e-08	-7.983908e-06	-5.659952e-09	-5.665965e+01	-3.703510e+02
5.000000e-08	-7.970013e-06	-5.653659e-09	-5.656104e+01	-3.699576e+02
6.000000e-08	-7.953202e-06	-5.647304e-09	-5.644174e+01	-3.695777e+02
7.000000e-08	-7.933890e-06	-5.643289e-09	-5.630469e+01	-3.692229e+02
8.000000e-08	-7.912334e-06	-5.658648e-09	-5.615171e+01	-3.688959e+02
9.000000e-08	-7.887892e-06	-5.676910e-09	-5.597825e+01	-3.685904e+02
1.000000e-07	-7.860126e-06	-5.671916e-09	-5.578120e+01	-3.682908e+02
1.100000e-07	-7.829320e-06	-5.648960e-09	-5.556259e+01	-3.679746e+02
1.200000e-07	-7.795716e-06	-5.617399e-09	-5.532411e+01	-3.676147e+02
1.300000e-07	-7.759433e-06	-5.567472e-09	-5.506661e+01	-3.671825e+02
1.400000e-07	-7.720856e-06	-5.510633e-09	-5.479284e+01	-3.666516e+02
1.500000e-07	-7.680113e-06	-5.526277e-09	-5.450370e+01	-3.660005e+02
1.600000e-07	-7.636927e-06	-5.605479e-09	-5.419722e+01	-3.652150e+02
1.700000e-07	-7.591057e-06	-5.612915e-09	-5.387169e+01	-3.642895e+02
1.800000e-07	-7.542410e-06	-5.576829e-09	-5.352646e+01	-3.632276e+02
1.900000e-07	-7.490768e-06	-5.533152e-09	-5.315997e+01	-3.620406e+02
2.000000e-07	-7.436152e-06	-5.460261e-09	-5.277238e+01	-3.607459e+02
2.100000e-07	-7.378870e-06	-5.424151e-09	-5.236586e+01	-3.593647e+02
2.200000e-07	-7.318903e-06	-5.451166e-09	-5.194029e+01	-3.579188e+02
2.300000e-07	-7.256260e-06	-5.468017e-09	-5.149573e+01	-3.564280e+02
2.400000e-07	-7.190865e-06	-5.407861e-09	-5.103164e+01	-3.549078e+02
2.500000e-07	-7.122690e-06	-5.368189e-09	-5.054782e+01	-3.533680e+02
2.600000e-07	-7.051829e-06	-5.383020e-09	-5.004494e+01	-3.518117e+02
2.700000e-07	-6.978166e-06	-5.371135e-09	-4.952217e+01	-3.502356e+02
2.800000e-07	-6.901711e-06	-5.336388e-09	-4.897959e+01	-3.486311e+02
2.900000e-07	-6.822439e-06	-5.319406e-09	-4.841702e+01	-3.469863e+02
3.000000e-07	-6.740517e-06	-5.301680e-09	-4.783564e+01	-3.452870e+02
3.100000e-07	-6.656274e-06	-5.256428e-09	-4.723779e+01	-3.435197e+02
3.200000e-07	-6.569746e-06	-5.229016e-09	-4.662372e+01	-3.416727e+02
3.300000e-07	-6.480841e-06	-5.202910e-09	-4.599279e+01	-3.397372e+02
3.400000e-07	-6.389629e-06	-5.142992e-09	-4.534548e+01	-3.377084e+02
3.500000e-07	-6.296143e-06	-5.087929e-09	-4.468204e+01	-3.355853e+02
3.600000e-07	-6.200312e-06	-5.069157e-09	-4.400195e+01	-3.333696e+02
3.700000e-07	-6.102231e-06	-5.065252e-09	-4.330589e+01	-3.310653e+02
3.800000e-07	-6.001994e-06	-5.038105e-09	-4.259454e+01	-3.286773e+02
3.900000e-07	-5.899597e-06	-5.005529e-09	-4.186786e+01	-3.262101e+02
4.000000e-07	-5.795031e-06	-4.952995e-09	-4.112578e+01	-3.236670e+02
4.100000e-07	-5.688389e-06	-4.880459e-09	-4.036897e+01	-3.210491e+02
4.200000e-07	-5.579811e-06	-4.835656e-09	-3.959842e+01	-3.183558e+02
4.300000e-07	-5.469319e-06	-4.829944e-09	-3.881429e+01	-3.155840e+02
4.400000e-07	-5.356746e-06	-4.800002e-09	-3.801539e+01	-3.127295e+02
4.500000e-07	-5.242019e-06	-4.733835e-09	-3.720120e+01	-3.097871e+02
4.600000e-07	-5.125273e-06	-4.678648e-09	-3.637269e+01	-3.067518e+02
4.700000e-07	-5.006637e-06	-4.626965e-09	-3.553076e+01	-3.036188e+02
4.800000e-07	-4.886146e-06	-4.568467e-09	-3.467567e+01	-3.003847e+02
4.900000e-07	-4.763865e-06	-4.523792e-09	-3.380787e+01	-2.970470e+02
5.000000e-07	-4.639921e-06	-4.486926e-09	-3.292828e+01	-2.936043e+02
5.100000e-07	-4.514370e-06	-4.425458e-09	-3.203727e+01	-2.900558e+02
5.200000e-07	-4.387205e-06	-4.358490e-09	-3.113482e+01	-2.864009e+02
5.300000e-07	-4.258346e-06	-4.312628e-09	-3.022034e+01	-2.826384e+02
5.400000e-07	-4.127824e-06	-4.260225e-09	-2.929406e+01	-2.787667e+02
5.500000e-07	-3.995876e-06	-4.181593e-09	-2.835766e+01	-2.747829e+02
5.600000e-07	-3.862483e-06	-4.112590e-09	-2.741100e+01	-2.706833e+02
5.700000e-07	-3.727503e-06	-4.059823e-09	-2.645309e+01	-2.664635e+02
5.800000e-07	-3.591076e-06	-3.990513e-09	-2.548490e+01	-2.621188e+02
5.900000e-07	-3.453270e-06	-3.911734e-09	-2.450693e+01	-2.576444e+02
6.000000e-07	-3.314050e-06	-3.846879e-09	-2.351892e+01	-2.530362e+02
6.100000e-07	-3.173441e-06	-3.780971e-09	-2.252106e+01	-2.482907e+02
6.200000e-07	-3.031426e-06	-3.695678e-09	-2.151322e+01	-2.434050e+02
6.300000e-07	-2.888142e-06	-3.618126e-09	-2.049637e+01	-2.383767e+02
6.400000e-07	-2.743794e-06	-3.557260e-09	-1.947197e+01	-2.332028e+02
6.500000e-07	-2.598553e-06	-3.484335e-09	-1.844123e+01	-2.278797e+02
6.600000e-07	-2.452513e-06	-3.391787e-09	-1.740482e+01	-2.224019e+02
6.700000e-07	-2.305565e-06	-3.297156e-09	-1.636198e+01	-2.167617e+02
6.800000e-07	-2.157787e-06	-3.203423e-09	-1.531324e+01	-2.109488e+02
6.900000e-07	-2.009366e-06	-3.104039e-09	-1.425993e+01	-2.049507e+02
7.000000e-07	-1.860345e-06	-3.006711e-09	-1.320237e+01	-1.987529e+02
7.100000e-07	-1.710758e-06	-2.914741e-09	-1.214079e+01	-1.923396e+02
7.200000e-07	-1.560633e-06	-2.816459e-09	-1.107539e+01	-1.856955e+02
7.300000e-07	-1.409959e-06	-2.708907e-09	-1.000610e+01	-1.788064e+02
7.400000e-07	-1.258697e-06	-2.599681e-09	-8.932634e+00	-1.716602e+02
7.500000e-07	-1.106914e-06	-2.490132e-09	-7.855471e+00	-1.642478e+02
7.600000e-07	-9.547956e-07	-2.377832e-09	-6.775928e+00	-1.565629e+02
7.700000e-07	-8.024296e-07	-2.257594e-09	-5.694628e+00	-1.486012e+02
7.800000e-07	-6.498326e-07	-2.129282e-09	-4.611688e+00	-1.403593e+02
7.900000e-07	-4.969791e-07	-1.995687e-09	-3.526927e+00	-1.318327e+02
8.000000e-07	-3.439143e-07	-1.858051e-09	-2.440668e+00	-1.230137e+02
8.100000e-07	-1.907675e-07	-1.716625e-09	-1.353825e+00	-1.138893e+02
8.200000e-07	-3.755839e-08	-1.569958e-09	-2.665418e-01	-1.044400e+02
8.300000e-07	1.156930e-07	-1.417256e-09	8.210422e-01	-9.463911e+01
8.400000e-07	2.689667e-07	-1.259034e-09	1.908785e+00	-8.445302e+01
8.500000e-07	4.221730e-07	-1.096159e-09	2.996049e+00	-7.384356e+01
8.600000e-07	5.752582e-07	-9.281166e-10	4.082453e+00	-6.277115e+01
8.700000e-07	7.281429e-07	-7.544256e-10	5.167435e+00	-5.119922e+01
8.800000e-07	8.808325e-07	-5.728960e-10	6.251032e+00	-3.909950e+01
8.900000e-07	1.033361e-06	-3.829494e-10	7.333488e+00	-2.645748e+01
9.000000e-07	1.185570e-06	-1.863368e-10	8.413670e+00	-1.327744e+01
9.100000e-07	1.337372e-06	1.561985e-11	9.490968e+00	4.134828e-01
9.200000e-07	1.488723e-06	2.264839e-10	1.056506e+01	1.456290e+01
9.300000e-07	1.639455e-06	4.494906e-10	1.163477e+01	2.909282e+01
9.400000e-07	1.789470e-06	6.795424e-10	1.269939e+01	4.390157e+01
9.500000e-07	1.938835e-06	9.106468e-10	1.375939e+01	5.886793e+01
9.600000e-07	2.087523e-06	1.142185e-09	1.481459e+01	7.385718e+01
9.700000e-07	2.235436e-06	1.370858e-09	1.586429e+01	8.872865e+01
9.800000e-07	2.382577e-06	1.590711e-09	1.690851e+01	1.033439e+02
9.900000e-07	2.528808e-06	1.802506e-09	1.794627e+01	1.175747e+02
1.000000e-06	2.674066e-06	2.005556e-09	1.897713e+01	1.313104e+02
1.010000e-06	2.818395e-06	2.203279e-09	2.000139e+01	1.444636e+02
1.020000e-06	2.961656e-06	2.391748e-09	2.101808e+01	1.569734e+02
1.030000e-06	3.103786e-06	2.567838e-09	2.202673e+01	1.688068e+02
1.040000e-06	3.244621e-06	2.736746e-09	2.302620e+01	1.799572e+02
1.050000e-06	3.384124e-06	2.896744e-09	2.401622e+01	1.904414e+02
1.060000e-06	3.522338e-06	3.047232e-09	2.499709e+01	2.002940e+02
1.070000e-06	3.659210e-06	3.188223e-09	2.596843e+01	2.095620e+02
1.080000e-06	3.794630e-06	3.323397e-09	2.692947e+01	2.182985e+02
1.090000e-06	3.928627e-06	3.451622e-09	2.788041e+01	2.265567e+02
1.100000e-06	4.061272e-06	3.572499e-09	2.882176e+01	2.343856e+02
1.110000e-06	4.192432e-06	3.688877e-09	2.975257e+01	2.418264e+02
1.120000e-06	4.322094e-06	3.799258e-09	3.067274e+01	2.489118e+02
1.130000e-06	4.450308e-06	3.901041e-09	3.158264e+01	2.556651e+02
1.140000e-06	4.577010e-06	3.994081e-09	3.248181e+01	2.621024e+02
1.150000e-06	4.702136e-06	4.084377e-09	3.336980e+01	2.682349e+02
1.160000e-06	4.825631e-06	4.173872e-09	3.424621e+01	2.740713e+02
1.170000e-06	4.947424e-06	4.257915e-09	3.511054e+01	2.796208e+02
1.180000e-06	5.067409e-06	4.335737e-09	3.596204e+01	2.848950e+02
1.190000e-06	5.185518e-06	4.409922e-09	3.680023e+01	2.899092e+02
1.200000e-06	5.301678e-06	4.484637e-09	3.762459e+01	2.946822e+02
1.210000e-06	5.415770e-06	4.560042e-09	3.843426e+01	2.992355e+02
1.220000e-06	5.527797e-06	4.629678e-09	3.922929e+01	3.035915e+02
1.230000e-06	5.637898e-06	4.690613e-09	4.001065e+01	3.077715e+02
1.240000e-06	5.746059e-06	4.746515e-09	4.077824e+01	3.117931e+02
1.250000e-06	5.852151e-06	4.803294e-09	4.153115e+01	3.156689e+02
1.260000e-06	5.956042e-06	4.861236e-09	4.226843e+01	3.194047e+02
1.270000e-06	6.057744e-06	4.915366e-09	4.299019e+01	3.229999e+02
1.280000e-06	6.157230e-06	4.963971e-09	4.369621e+01	3.264484e+02
1.290000e-06	6.254315e-06	5.009683e-09	4.438519e+01	3.297396e+02
1.300000e-06	6.349060e-06	5.056123e-09	4.505757e+01	3.328618e+02
1.310000e-06	6.441581e-06	5.102205e-09	4.571417e+01	3.358040e+02
1.320000e-06	6.531785e-06	5.144437e-09	4.635433e+01	3.385588e+02
1.330000e-06	6.619572e-06	5.181703e-09	4.697732e+01	3.411244e+02
1.340000e-06	6.705128e-06	5.215772e-09	4.758449e+01	3.435054e+02
1.350000e-06	6.788409e-06	5.249562e-09	4.817552e+01	3.457134e+02
1.360000e-06	6.869184e-06	5.283443e-09	4.874876e+01	3.477654e+02
1.370000e-06	6.947443e-06	5.314154e-09	4.930414e+01	3.496826e+02
1.380000e-06	7.023070e-06	5.341161e-09	4.984084e+01	3.514875e+02
1.390000e-06	7.095994e-06	5.367284e-09	5.035836e+01	3.532015e+02
1.400000e-06	7.166422e-06	5.392523e-09	5.085817e+01	3.548425e+02
1.410000e-06	7.234418e-06	5.417464e-09	5.134072e+01	3.564225e+02
1.420000e-06	7.299748e-06	5.440957e-09	5.180435e+01	3.579473e+02
1.430000e-06	7.362440e-06	5.462265e-09	5.224926e+01	3.594157e+02
1.440000e-06	7.422773e-06	5.482157e-09	5.267743e+01	3.608210e+02
1.450000e-06	7.480531e-06	5.500169e-09	5.308732e+01	3.621527e+02
1.460000e-06	7.535535e-06	5.516666e-09	5.347767e+01	3.633988e+02
1.470000e-06	7.587581e-06	5.531376e-09	5.384703e+01	3.645481e+02
1.480000e-06	7.636492e-06	5.546128e-09	5.419413e+01	3.655931e+02
1.490000e-06	7.682565e-06	5.560495e-09	5.452110e+01	3.665310e+02
1.500000e-06	7.726025e-06	5.572662e-09	5.482953e+01	3.673651e+02
1.510000e-06	7.766747e-06	5.586198e-09	5.511852e+01	3.681041e+02
1.520000e-06	7.804612e-06	5.600254e-09	5.538724e+01	3.687612e+02
1.530000e-06	7.839682e-06	5.612424e-09	5.563612e+01	3.693523e+02
1.540000e-06	7.872002e-06	5.622002e-09	5.586548e+01	3.698931e+02
1.550000e-06	7.901668e-06	5.628332e-09	5.607601e+01	3.703972e+02
1.560000e-06	7.928556e-06	5.633849e-09	5.626683e+01	3.708735e+02
1.570000e-06	7.952414e-06	5.640582e-09	5.643614e+01	3.713248e+02
1.580000e-06	7.973419e-06	5.647644e-09	5.658522e+01	3.717477e+02
1.590000e-06	7.991657e-06	5.652841e-09	5.671465e+01	3.721326e+02
1.600000e-06	8.006903e-06	5.657025e-09	5.682284e+01	3.724655e+02
1.610000e-06	8.019041e-06	5.661124e-09	5.690898e+01	3.727300e+02
1.620000e-06	8.028038e-06	5.664492e-09	5.697283e+01	3.729107e+02
1.630000e-06	8.034098e-06	5.667328e-09	5.701584e+01	3.729952e+02
1.640000e-06	8.037340e-06	5.669214e-09	5.703885e+01	3.729768e+02
1.650000e-06	8.037714e-06	5.667467e-09	5.704150e+01	3.728563e+02
1.660000e-06	8.035393e-06	5.662125e-09	5.702503e+01	3.726418e+02
1.670000e-06	8.030430e-06	5.657891e-09	5.698981e+01	3.723491e+02
1.680000e-06	8.022757e-06	5.654713e-09	5.693536e+01	3.719988e+02
1.690000e-06	8.012436e-06	5.649972e-09	5.686211e+01	3.716147e+02
1.700000e-06	7.999299e-06	5.645252e-09	5.676888e+01	3.712201e+02
1.710000e-06	7.983376e-06	5.642446e-09	5.665587e+01	3.708349e+02
1.720000e-06	7.965055e-06	5.636485e-09	5.652586e+01	3.704727e+02
1.730000e-06	7.944465e-06	5.598988e-09	5.637974e+01	3.701385e+02
1.740000e-06	7.921042e-06	5.569855e-09	5.621351e+01	3.698282e+02
1.750000e-06	7.894090e-06	5.574020e-09	5.602224e+01	3.695285e+02
1.760000e-06	7.863508e-06	5.575695e-09	5.580521e+01	3.692184e+02
1.770000e-06	7.829939e-06	5.584879e-09	5.556698e+01	3.688715e+02
1.780000e-06	7.794056e-06	5.633079e-09	5.531232e+01	3.684595e+02
1.790000e-06	7.755895e-06	5.656120e-09	5.504151e+01	3.679551e+02
1.800000e-06	7.715658e-06	5.601483e-09	5.475595e+01	3.673351e+02
1.810000e-06	7.673182e-06	5.580977e-09	5.445451e+01	3.665835e+02
1.820000e-06	7.627971e-06	5.556407e-09	5.413367e+01	3.656926e+02
1.830000e-06	7.580144e-06	5.547525e-09	5.379425e+01	3.646635e+02
1.840000e-06	7.529362e-06	5.577155e-09	5.343386e+01	3.635057e+02
1.850000e-06	7.475498e-06	5.582801e-09	5.305160e+01	3.622356e+02
1.860000e-06	7.418938e-06	5.563576e-09	5.265021e+01	3.608734e+02
1.870000e-06	7.359715e-06	5.449832e-09	5.222992e+01	3.594412e+02
1.880000e-06	7.297876e-06	5.398286e-09	5.179107e+01	3.579594e+02
1.890000e-06	7.233211e-06	5.416701e-09	5.133216e+01	3.564450e+02
1.900000e-06	7.165705e-06	5.400310e-09	5.085308e+01	3.549090e+02
1.910000e-06	7.095446e-06	5.412634e-09	5.035448e+01	3.533564e+02
1.920000e-06	7.022370e-06	5.376002e-09	4.983588e+01	3.517853e+02
1.930000e-06	6.946573e-06	5.314081e-09	4.929796e+01	3.501885e+02
1.940000e-06	6.868015e-06	5.278097e-09	4.874046e+01	3.485545e+02
1.950000e-06	6.786841e-06	5.283188e-09	4.816439e+01	3.468696e+02
1.960000e-06	6.703248e-06	5.275493e-09	4.757115e+01	3.451200e+02
1.970000e-06	6.617178e-06	5.223520e-09	4.696033e+01	3.432933e+02
1.980000e-06	6.528600e-06	5.197518e-09	4.633172e+01	3.413800e+02
1.990000e-06	6.437692e-06	5.172551e-09	4.568657e+01	3.393743e+02
2.000000e-06	6.344501e-06	5.149962e-09	4.502522e+01	3.372742e+02
2.010000e-06	6.248954e-06	5.113863e-09	4.434715e+01	3.350808e+02
2.020000e-06	6.151247e-06	5.078254e-09	4.365375e+01	3.327977e+02
2.030000e-06	6.051431e-06	5.017912e-09	4.294538e+01	3.304296e+02
2.040000e-06	5.949418e-06	4.966420e-09	4.222142e+01	3.279814e+02
2.050000e-06	5.845249e-06	4.972733e-09	4.148217e+01	3.254565e+02
2.060000e-06	5.739125e-06	4.972541e-09	4.072903e+01	3.228568e+02
2.070000e-06	5.631082e-06	4.914179e-09	3.996228e+01	3.201820e+02
2.080000e-06	5.520967e-06	4.830836e-09	3.918082e+01	3.174297e+02
2.090000e-06	5.408795e-06	4.772626e-09	3.838477e+01	3.145958e+02
2.100000e-06	5.294576e-06	4.724914e-09	3.757419e+01	3.116754e+02
2.110000e-06	5.178317e-06	4.707673e-09	3.674912e+01	3.086632e+02
2.120000e-06	5.060042e-06	4.702614e-09	3.590976e+01	3.055545e+02
2.130000e-06	4.939889e-06	4.653690e-09	3.505707e+01	3.023455e+02
2.140000e-06	4.818001e-06	4.559285e-09	3.419206e+01	2.990333e+02
2.150000e-06	4.694415e-06	4.489159e-09	3.331500e+01	2.956165e+02
2.160000e-06	4.569015e-06	4.457640e-09	3.242507e+01	2.920940e+02
2.170000e-06	4.441845e-06	4.418365e-09	3.152258e+01	2.884652e+02
2.180000e-06	4.313106e-06	4.358633e-09	3.060896e+01	2.847292e+02
2.190000e-06	4.182844e-06	4.299059e-09	2.968452e+01	2.808845e+02
2.200000e-06	4.051091e-06	4.232844e-09	2.874950e+01	2.769285e+02
2.210000e-06	3.917773e-06	4.161207e-09	2.780338e+01	2.728578e+02
2.220000e-06	3.782923e-06	4.110845e-09	2.684639e+01	2.686680e+02
2.230000e-06	3.646675e-06	4.064843e-09	2.587948e+01	2.643544e+02
2.240000e-06	3.509034e-06	3.989499e-09	2.490267e+01	2.599123e+02
2.250000e-06	3.369949e-06	3.900344e-09	2.391563e+01	2.553374e+02
2.260000e-06	3.229561e-06	3.836555e-09	2.291933e+01	2.506260e+02
2.270000e-06	3.087927e-06	3.780622e-09	2.191419e+01	2.457751e+02
2.280000e-06	2.945093e-06	3.700879e-09	2.090053e+01	2.407822e+02
2.290000e-06	2.801230e-06	3.605934e-09	1.987958e+01	2.356445e+02
2.300000e-06	2.656390e-06	3.515174e-09	1.885169e+01	2.303586e+02
2.310000e-06	2.510602e-06	3.430776e-09	1.781707e+01	2.249196e+02
2.320000e-06	2.363967e-06	3.358559e-09	1.677644e+01	2.193203e+02
2.330000e-06	2.216541e-06	3.293522e-09	1.573020e+01	2.135512e+02
2.340000e-06	2.068332e-06	3.210551e-09	1.467840e+01	2.076002e+02
2.350000e-06	1.919480e-06	3.098611e-09	1.362204e+01	2.014532e+02
2.360000e-06	1.770013e-06	2.984166e-09	1.256130e+01	1.950947e+02
2.370000e-06	1.619921e-06	2.887225e-09	1.149615e+01	1.885092e+02
2.380000e-06	1.469235e-06	2.797775e-09	1.042677e+01	1.816821e+02
2.390000e-06	1.318040e-06	2.697521e-09	9.353778e+00	1.746006e+02
2.400000e-06	1.166475e-06	2.579551e-09	8.278163e+00	1.672549e+02
2.410000e-06	1.014586e-06	2.452688e-09	7.200241e+00	1.596381e+02
2.420000e-06	8.624208e-07	2.329079e-09	6.120369e+00	1.517454e+02
2.430000e-06	7.099994e-07	2.214156e-09	5.038675e+00	1.435734e+02
2.440000e-06	5.572985e-07	2.097761e-09	3.954998e+00	1.351180e+02
2.450000e-06	4.043865e-07	1.968458e-09	2.869823e+00	1.263726e+02
2.460000e-06	2.513039e-07	1.826776e-09	1.783437e+00	1.173256e+02
2.470000e-06	9.807249e-08	1.679094e-09	6.959941e-01	1.079592e+02
2.480000e-06	-5.518956e-08	1.528768e-09	-3.916655e-01	9.824862e+01
2.490000e-06	-2.084274e-07	1.374875e-09	-1.479153e+00	8.816174e+01
2.500000e-06	-3.616423e-07	1.214902e-09	-2.566478e+00	7.766134e+01
2.510000e-06	-5.147801e-07	1.046595e-09	-3.653256e+00	6.670778e+01
2.520000e-06	-6.677041e-07	8.717306e-10	-4.738516e+00	5.526328e+01
2.530000e-06	-8.204000e-07	6.937064e-10	-5.822159e+00	4.329698e+01
2.540000e-06	-9.728333e-07	5.111261e-10	-6.903937e+00	3.079043e+01
2.550000e-06	-1.124919e-06	3.153872e-10	-7.983251e+00	1.774278e+01
2.560000e-06	-1.276653e-06	1.029758e-10	-9.060063e+00	4.175165e+00
2.570000e-06	-1.428000e-06	-1.177877e-10	-1.013413e+01	-9.866466e+00
2.580000e-06	-1.578852e-06	-3.407264e-10	-1.120469e+01	-2.431044e+01
2.590000e-06	-1.729007e-06	-5.650567e-10	-1.227030e+01	-3.906069e+01
2.600000e-06	-1.878448e-06	-7.948946e-10	-1.333084e+01	-5.400038e+01
2.610000e-06	-2.027268e-06	-1.028825e-09	-1.438698e+01	-6.899752e+01
2.620000e-06	-2.175334e-06	-1.262762e-09	-1.543776e+01	-8.391217e+01
2.630000e-06	-2.322509e-06	-1.492104e-09	-1.648223e+01	-9.860451e+01
2.640000e-06	-2.468760e-06	-1.711025e-09	-1.752013e+01	-1.129431e+02
2.650000e-06	-2.614119e-06	-1.919303e-09	-1.855170e+01	-1.268123e+02
2.660000e-06	-2.758548e-06	-2.119635e-09	-1.957667e+01	-1.401184e+02
2.670000e-06	-2.901919e-06	-2.314595e-09	-2.059414e+01	-1.527938e+02
2.680000e-06	-3.044074e-06	-2.499926e-09	-2.160298e+01	-1.647984e+02
2.690000e-06	-3.185050e-06	-2.672988e-09	-2.260345e+01	-1.761193e+02
2.700000e-06	-3.324781e-06	-2.833873e-09	-2.359508e+01	-1.867679e+02
2.710000e-06	-3.463170e-06	-2.983391e-09	-2.457719e+01	-1.967749e+02
2.720000e-06	-3.600314e-06	-3.126211e-09	-2.555046e+01	-2.061848e+02
2.730000e-06	-3.736166e-06	-3.264459e-09	-2.651457e+01	-2.150496e+02
2.740000e-06	-3.870675e-06	-3.397873e-09	-2.746914e+01	-2.234231e+02
2.750000e-06	-4.003810e-06	-3.522936e-09	-2.841396e+01	-2.313555e+02
2.760000e-06	-4.135465e-06	-3.639214e-09	-2.934828e+01	-2.388905e+02
2.770000e-06	-4.265666e-06	-3.749089e-09	-3.027229e+01	-2.460627e+02
2.780000e-06	-4.394488e-06	-3.853087e-09	-3.118650e+01	-2.528978e+02
2.790000e-06	-4.521755e-06	-3.950409e-09	-3.208968e+01	-2.594134e+02
2.800000e-06	-4.647451e-06	-4.040311e-09	-3.298171e+01	-2.656218e+02
2.810000e-06	-4.771514e-06	-4.125618e-09	-3.386215e+01	-2.715319e+02
2.820000e-06	-4.893879e-06	-4.208917e-09	-3.473055e+01	-2.771527e+02
2.830000e-06	-5.014528e-06	-4.291511e-09	-3.558676e+01	-2.824950e+02
2.840000e-06	-5.133194e-06	-4.372041e-09	-3.642890e+01	-2.875731e+02
2.850000e-06	-5.249792e-06	-4.446950e-09	-3.725637e+01	-2.924049e+02
2.860000e-06	-5.364348e-06	-4.517845e-09	-3.806934e+01	-2.970116e+02
2.870000e-06	-5.476736e-06	-4.587242e-09	-3.886693e+01	-3.014153e+02
2.880000e-06	-5.586886e-06	-4.655993e-09	-3.964863e+01	-3.056380e+02
2.890000e-06	-5.695036e-06	-4.724042e-09	-4.041614e+01	-3.096983e+02
2.900000e-06	-5.801349e-06	-4.788930e-09	-4.117062e+01	-3.136103e+02
2.910000e-06	-5.905557e-06	-4.848773e-09	-4.191015e+01	-3.173814e+02
2.920000e-06	-6.007497e-06	-4.901761e-09	-4.263359e+01	-3.210127e+02
2.930000e-06	-6.107220e-06	-4.951800e-09	-4.334130e+01	-3.244992e+02
2.940000e-06	-6.204828e-06	-5.002564e-09	-4.403400e+01	-3.278313e+02
