# Temperatura_=_42.48
# Concentracion g/m^3_=_5000.0
# C_Vs_to_Am_M_A/Vsm_=_65563218390.804596
# pendiente_HvsI_1/m_=_3716.3
# ordenada_HvsI_A/m_=_1297.0
# frecuencia_Hz_=_302567.94579473004

Tiempo_(s)	Campo_(V.s)	Magnetizacion_(V.s)	Campo_(kA/m)	Magnetizacion_(A/m)
0.000000e+00	-7.929248e-06	-5.695700e-09	-5.685688e+01	-3.727363e+02
1.000000e-08	-7.926161e-06	-5.691508e-09	-5.683474e+01	-3.724937e+02
2.000000e-08	-7.920461e-06	-5.688089e-09	-5.679387e+01	-3.721651e+02
3.000000e-08	-7.912248e-06	-5.682693e-09	-5.673497e+01	-3.717705e+02
4.000000e-08	-7.901249e-06	-5.677554e-09	-5.665611e+01	-3.713334e+02
5.000000e-08	-7.887325e-06	-5.671726e-09	-5.655626e+01	-3.708786e+02
6.000000e-08	-7.870508e-06	-5.664867e-09	-5.643568e+01	-3.704285e+02
7.000000e-08	-7.851232e-06	-5.658501e-09	-5.629746e+01	-3.700008e+02
8.000000e-08	-7.829659e-06	-5.659526e-09	-5.614277e+01	-3.696053e+02
9.000000e-08	-7.805205e-06	-5.646988e-09	-5.596742e+01	-3.692433e+02
1.000000e-07	-7.777463e-06	-5.680644e-09	-5.576849e+01	-3.689062e+02
1.100000e-07	-7.746639e-06	-5.686366e-09	-5.554747e+01	-3.685771e+02
1.200000e-07	-7.713126e-06	-5.638117e-09	-5.530717e+01	-3.682319e+02
1.300000e-07	-7.677046e-06	-5.576895e-09	-5.504846e+01	-3.678424e+02
1.400000e-07	-7.638608e-06	-5.520245e-09	-5.477283e+01	-3.673787e+02
1.500000e-07	-7.598088e-06	-5.539664e-09	-5.448228e+01	-3.668130e+02
1.600000e-07	-7.555238e-06	-5.564281e-09	-5.417503e+01	-3.661222e+02
1.700000e-07	-7.509653e-06	-5.648706e-09	-5.384816e+01	-3.652900e+02
1.800000e-07	-7.461365e-06	-5.619354e-09	-5.350191e+01	-3.643085e+02
1.900000e-07	-7.410141e-06	-5.524981e-09	-5.313460e+01	-3.631784e+02
2.000000e-07	-7.355896e-06	-5.499582e-09	-5.274564e+01	-3.619082e+02
2.100000e-07	-7.298923e-06	-5.430530e-09	-5.233711e+01	-3.605129e+02
2.200000e-07	-7.239300e-06	-5.447119e-09	-5.190958e+01	-3.590116e+02
2.300000e-07	-7.177102e-06	-5.447515e-09	-5.146359e+01	-3.574254e+02
2.400000e-07	-7.112262e-06	-5.409915e-09	-5.099866e+01	-3.557743e+02
2.500000e-07	-7.044684e-06	-5.393208e-09	-5.051409e+01	-3.540755e+02
2.600000e-07	-6.974377e-06	-5.373177e-09	-5.000995e+01	-3.523416e+02
2.700000e-07	-6.901312e-06	-5.381328e-09	-4.948604e+01	-3.505797e+02
2.800000e-07	-6.825477e-06	-5.339439e-09	-4.894226e+01	-3.487911e+02
2.900000e-07	-6.746918e-06	-5.314216e-09	-4.837895e+01	-3.469722e+02
3.000000e-07	-6.665719e-06	-5.280952e-09	-4.779671e+01	-3.451149e+02
3.100000e-07	-6.582090e-06	-5.248172e-09	-4.719704e+01	-3.432089e+02
3.200000e-07	-6.496225e-06	-5.246934e-09	-4.658135e+01	-3.412426e+02
3.300000e-07	-6.408069e-06	-5.193294e-09	-4.594922e+01	-3.392050e+02
3.400000e-07	-6.317617e-06	-5.133590e-09	-4.530063e+01	-3.370865e+02
3.500000e-07	-6.224933e-06	-5.070768e-09	-4.463604e+01	-3.348804e+02
3.600000e-07	-6.129979e-06	-5.058460e-09	-4.395517e+01	-3.325826e+02
3.700000e-07	-6.032814e-06	-5.045328e-09	-4.325845e+01	-3.301917e+02
3.800000e-07	-5.933428e-06	-5.020175e-09	-4.254580e+01	-3.277090e+02
3.900000e-07	-5.831889e-06	-5.002230e-09	-4.181771e+01	-3.251371e+02
4.000000e-07	-5.728297e-06	-4.938139e-09	-4.107490e+01	-3.224794e+02
4.100000e-07	-5.622770e-06	-4.856873e-09	-4.031821e+01	-3.197394e+02
4.200000e-07	-5.515289e-06	-4.803078e-09	-3.954752e+01	-3.169198e+02
4.300000e-07	-5.405762e-06	-4.809771e-09	-3.876215e+01	-3.140221e+02
4.400000e-07	-5.294288e-06	-4.774792e-09	-3.796283e+01	-3.110459e+02
4.500000e-07	-5.180813e-06	-4.706113e-09	-3.714915e+01	-3.079897e+02
4.600000e-07	-5.065304e-06	-4.651497e-09	-3.632089e+01	-3.048502e+02
4.700000e-07	-4.947863e-06	-4.602723e-09	-3.547878e+01	-3.016229e+02
4.800000e-07	-4.828574e-06	-4.538570e-09	-3.462341e+01	-2.983029e+02
4.900000e-07	-4.707529e-06	-4.483987e-09	-3.375546e+01	-2.948844e+02
5.000000e-07	-4.584801e-06	-4.450211e-09	-3.287543e+01	-2.913619e+02
5.100000e-07	-4.460354e-06	-4.389812e-09	-3.198308e+01	-2.877300e+02
5.200000e-07	-4.334284e-06	-4.324500e-09	-3.107909e+01	-2.839840e+02
5.300000e-07	-4.206613e-06	-4.275288e-09	-3.016363e+01	-2.801198e+02
5.400000e-07	-4.077368e-06	-4.224057e-09	-2.923687e+01	-2.761341e+02
5.500000e-07	-3.946669e-06	-4.142037e-09	-2.829969e+01	-2.720245e+02
5.600000e-07	-3.814424e-06	-4.069137e-09	-2.735142e+01	-2.677897e+02
5.700000e-07	-3.680679e-06	-4.015656e-09	-2.639240e+01	-2.634290e+02
5.800000e-07	-3.545564e-06	-3.945021e-09	-2.542356e+01	-2.589425e+02
5.900000e-07	-3.409129e-06	-3.863022e-09	-2.444524e+01	-2.543308e+02
6.000000e-07	-3.271501e-06	-3.792894e-09	-2.345838e+01	-2.495946e+02
6.100000e-07	-3.132478e-06	-3.725577e-09	-2.246151e+01	-2.447339e+02
6.200000e-07	-2.991950e-06	-3.639904e-09	-2.145386e+01	-2.397481e+02
6.300000e-07	-2.850186e-06	-3.561236e-09	-2.043733e+01	-2.346349e+02
6.400000e-07	-2.707378e-06	-3.497314e-09	-1.941332e+01	-2.293899e+02
6.500000e-07	-2.563705e-06	-3.425298e-09	-1.838311e+01	-2.240063e+02
6.600000e-07	-2.419109e-06	-3.334826e-09	-1.734628e+01	-2.184745e+02
6.700000e-07	-2.273447e-06	-3.239361e-09	-1.630181e+01	-2.127827e+02
6.800000e-07	-2.126933e-06	-3.144442e-09	-1.525122e+01	-2.069166e+02
6.900000e-07	-1.979785e-06	-3.043717e-09	-1.419610e+01	-2.008607e+02
7.000000e-07	-1.832043e-06	-2.944408e-09	-1.313671e+01	-1.945990e+02
7.100000e-07	-1.683717e-06	-2.849909e-09	-1.207314e+01	-1.881162e+02
7.200000e-07	-1.534826e-06	-2.750934e-09	-1.100551e+01	-1.813990e+02
7.300000e-07	-1.385440e-06	-2.642148e-09	-9.934336e+00	-1.744362e+02
7.400000e-07	-1.235673e-06	-2.531692e-09	-8.860424e+00	-1.672200e+02
7.500000e-07	-1.085554e-06	-2.419476e-09	-7.783996e+00	-1.597453e+02
7.600000e-07	-9.351287e-07	-2.306700e-09	-6.705364e+00	-1.520092e+02
7.700000e-07	-7.843952e-07	-2.189051e-09	-5.624526e+00	-1.440099e+02
7.800000e-07	-6.332990e-07	-2.063018e-09	-4.541087e+00	-1.357444e+02
7.900000e-07	-4.819036e-07	-1.929842e-09	-3.455502e+00	-1.272068e+02
8.000000e-07	-3.303024e-07	-1.789216e-09	-2.368442e+00	-1.183866e+02
8.100000e-07	-1.786389e-07	-1.645355e-09	-1.280935e+00	-1.092665e+02
8.200000e-07	-2.688493e-08	-1.496320e-09	-1.927791e-01	-9.982193e+01
8.300000e-07	1.249663e-07	-1.343953e-09	8.960741e-01	-9.002107e+01
8.400000e-07	2.768051e-07	-1.188264e-09	1.984838e+00	-7.982631e+01
8.500000e-07	4.285386e-07	-1.026458e-09	3.072847e+00	-6.919685e+01
8.600000e-07	5.801335e-07	-8.580923e-10	4.159862e+00	-5.809251e+01
8.700000e-07	7.316140e-07	-6.837291e-10	5.246057e+00	-4.647848e+01
8.800000e-07	8.828198e-07	-5.043445e-10	6.330282e+00	-3.433049e+01
8.900000e-07	1.033692e-06	-3.139917e-10	7.412118e+00	-2.163995e+01
9.000000e-07	1.184254e-06	-1.138706e-10	8.491721e+00	-8.418392e+00
9.100000e-07	1.334403e-06	9.252932e-11	9.568373e+00	5.299228e+00
9.200000e-07	1.484085e-06	3.052851e-10	1.064167e+01	1.945298e+01
9.300000e-07	1.633285e-06	5.269949e-10	1.171151e+01	3.395840e+01
9.400000e-07	1.781904e-06	7.554604e-10	1.277718e+01	4.870906e+01
9.500000e-07	1.929830e-06	9.824619e-10	1.383790e+01	6.358116e+01
9.600000e-07	2.077016e-06	1.210937e-09	1.489329e+01	7.843978e+01
9.700000e-07	2.223427e-06	1.438267e-09	1.594314e+01	9.314630e+01
9.800000e-07	2.368956e-06	1.655771e-09	1.698666e+01	1.075662e+02
9.900000e-07	2.513606e-06	1.863748e-09	1.802388e+01	1.215769e+02
1.000000e-06	2.657412e-06	2.063482e-09	1.905504e+01	1.350739e+02
1.010000e-06	2.800248e-06	2.259847e-09	2.007925e+01	1.479762e+02
1.020000e-06	2.942008e-06	2.445937e-09	2.109574e+01	1.602291e+02
1.030000e-06	3.082517e-06	2.617369e-09	2.210327e+01	1.718049e+02
1.040000e-06	3.221628e-06	2.780485e-09	2.310076e+01	1.827011e+02
1.050000e-06	3.359435e-06	2.934695e-09	2.408891e+01	1.929377e+02
1.060000e-06	3.496065e-06	3.082777e-09	2.506862e+01	2.025515e+02
1.070000e-06	3.631429e-06	3.220557e-09	2.603925e+01	2.115909e+02
1.080000e-06	3.765427e-06	3.352117e-09	2.700009e+01	2.201095e+02
1.090000e-06	3.898048e-06	3.478297e-09	2.795105e+01	2.281614e+02
1.100000e-06	4.029150e-06	3.598468e-09	2.889113e+01	2.357962e+02
1.110000e-06	4.158792e-06	3.713770e-09	2.982073e+01	2.430562e+02
1.120000e-06	4.287051e-06	3.820761e-09	3.074041e+01	2.499749e+02
1.130000e-06	4.413834e-06	3.919244e-09	3.164951e+01	2.565773e+02
1.140000e-06	4.539217e-06	4.009419e-09	3.254857e+01	2.628807e+02
1.150000e-06	4.663014e-06	4.095622e-09	3.343626e+01	2.688974e+02
1.160000e-06	4.785039e-06	4.181578e-09	3.431125e+01	2.746368e+02
1.170000e-06	4.905369e-06	4.263942e-09	3.517407e+01	2.801084e+02
1.180000e-06	5.023992e-06	4.341295e-09	3.602466e+01	2.853231e+02
1.190000e-06	5.140727e-06	4.416184e-09	3.686171e+01	2.902949e+02
1.200000e-06	5.255403e-06	4.492140e-09	3.768400e+01	2.950409e+02
1.210000e-06	5.368141e-06	4.569134e-09	3.849239e+01	2.995802e+02
1.220000e-06	5.478928e-06	4.639288e-09	3.928679e+01	3.039330e+02
1.230000e-06	5.587780e-06	4.699984e-09	4.006732e+01	3.081184e+02
1.240000e-06	5.694660e-06	4.756310e-09	4.083370e+01	3.121520e+02
1.250000e-06	5.799431e-06	4.813003e-09	4.158497e+01	3.160449e+02
1.260000e-06	5.902072e-06	4.868874e-09	4.232096e+01	3.198024e+02
1.270000e-06	6.002548e-06	4.922579e-09	4.304142e+01	3.234233e+02
1.280000e-06	6.100770e-06	4.971360e-09	4.374573e+01	3.269015e+02
1.290000e-06	6.196652e-06	5.018116e-09	4.443325e+01	3.302266e+02
1.300000e-06	6.290371e-06	5.066887e-09	4.510527e+01	3.333868e+02
1.310000e-06	6.381848e-06	5.115606e-09	4.576120e+01	3.363710e+02
1.320000e-06	6.470967e-06	5.158989e-09	4.640023e+01	3.391710e+02
1.330000e-06	6.557800e-06	5.195990e-09	4.702287e+01	3.417838e+02
1.340000e-06	6.642473e-06	5.230439e-09	4.763002e+01	3.442124e+02
1.350000e-06	6.724833e-06	5.264979e-09	4.822059e+01	3.464664e+02
1.360000e-06	6.804630e-06	5.298719e-09	4.879278e+01	3.485611e+02
1.370000e-06	6.881867e-06	5.329652e-09	4.934660e+01	3.505158e+02
1.380000e-06	6.956501e-06	5.358724e-09	4.988177e+01	3.523521e+02
1.390000e-06	7.028571e-06	5.385689e-09	5.039854e+01	3.540909e+02
1.400000e-06	7.098170e-06	5.410707e-09	5.089761e+01	3.557502e+02
1.410000e-06	7.165223e-06	5.435695e-09	5.137842e+01	3.573433e+02
1.420000e-06	7.229689e-06	5.460134e-09	5.184067e+01	3.588776e+02
1.430000e-06	7.291699e-06	5.482598e-09	5.228531e+01	3.603540e+02
1.440000e-06	7.351272e-06	5.503143e-09	5.271249e+01	3.617679e+02
1.450000e-06	7.408250e-06	5.522253e-09	5.312105e+01	3.631103e+02
1.460000e-06	7.462461e-06	5.538637e-09	5.350977e+01	3.643704e+02
1.470000e-06	7.513615e-06	5.551932e-09	5.387657e+01	3.655374e+02
1.480000e-06	7.561699e-06	5.565349e-09	5.422136e+01	3.666032e+02
1.490000e-06	7.607136e-06	5.581355e-09	5.454716e+01	3.675636e+02
1.500000e-06	7.649914e-06	5.595836e-09	5.485390e+01	3.684200e+02
1.510000e-06	7.689859e-06	5.609509e-09	5.514033e+01	3.691791e+02
1.520000e-06	7.727139e-06	5.622995e-09	5.540765e+01	3.698522e+02
1.530000e-06	7.761715e-06	5.635093e-09	5.565558e+01	3.704536e+02
1.540000e-06	7.793458e-06	5.644223e-09	5.588319e+01	3.709986e+02
1.550000e-06	7.822520e-06	5.649303e-09	5.609158e+01	3.715010e+02
1.560000e-06	7.848822e-06	5.655538e-09	5.628018e+01	3.719711e+02
1.570000e-06	7.872154e-06	5.663593e-09	5.644748e+01	3.724137e+02
1.580000e-06	7.892720e-06	5.670813e-09	5.659495e+01	3.728276e+02
1.590000e-06	7.910596e-06	5.674938e-09	5.672313e+01	3.732056e+02
1.600000e-06	7.925483e-06	5.678129e-09	5.682988e+01	3.735354e+02
1.610000e-06	7.937252e-06	5.682336e-09	5.691427e+01	3.738015e+02
1.620000e-06	7.945942e-06	5.685027e-09	5.697658e+01	3.739878e+02
1.630000e-06	7.951769e-06	5.685006e-09	5.701836e+01	3.740804e+02
1.640000e-06	7.954811e-06	5.684200e-09	5.704018e+01	3.740696e+02
1.650000e-06	7.954996e-06	5.681469e-09	5.704150e+01	3.739524e+02
1.660000e-06	7.952510e-06	5.681269e-09	5.702368e+01	3.737331e+02
1.670000e-06	7.947402e-06	5.675397e-09	5.698705e+01	3.734239e+02
1.680000e-06	7.939578e-06	5.671501e-09	5.693095e+01	3.730431e+02
1.690000e-06	7.929116e-06	5.669832e-09	5.685593e+01	3.726138e+02
1.700000e-06	7.915881e-06	5.666205e-09	5.676103e+01	3.721607e+02
1.710000e-06	7.899967e-06	5.660062e-09	5.664691e+01	3.717070e+02
1.720000e-06	7.881750e-06	5.650316e-09	5.651629e+01	3.712719e+02
1.730000e-06	7.861199e-06	5.636889e-09	5.636893e+01	3.708674e+02
1.740000e-06	7.837788e-06	5.621285e-09	5.620106e+01	3.704969e+02
1.750000e-06	7.810896e-06	5.578730e-09	5.600823e+01	3.701544e+02
1.760000e-06	7.780388e-06	5.575724e-09	5.578947e+01	3.698248e+02
1.770000e-06	7.746926e-06	5.603368e-09	5.554953e+01	3.694857e+02
1.780000e-06	7.711179e-06	5.648091e-09	5.529320e+01	3.691095e+02
1.790000e-06	7.673174e-06	5.647084e-09	5.502069e+01	3.686665e+02
1.800000e-06	7.633110e-06	5.666302e-09	5.473341e+01	3.681282e+02
1.810000e-06	7.590837e-06	5.600948e-09	5.443029e+01	3.674700e+02
1.820000e-06	7.545952e-06	5.534585e-09	5.410844e+01	3.666737e+02
1.830000e-06	7.498528e-06	5.610492e-09	5.376839e+01	3.657293e+02
1.840000e-06	7.448265e-06	5.576934e-09	5.340797e+01	3.646353e+02
1.850000e-06	7.394993e-06	5.638927e-09	5.302599e+01	3.633984e+02
1.860000e-06	7.338867e-06	5.593244e-09	5.262353e+01	3.620322e+02
1.870000e-06	7.279993e-06	5.492365e-09	5.220137e+01	3.605550e+02
1.880000e-06	7.218576e-06	5.454055e-09	5.176099e+01	3.589876e+02
1.890000e-06	7.154399e-06	5.374136e-09	5.130080e+01	3.573504e+02
1.900000e-06	7.087402e-06	5.424827e-09	5.082040e+01	3.556616e+02
1.910000e-06	7.017630e-06	5.406726e-09	5.032009e+01	3.539351e+02
1.920000e-06	6.945121e-06	5.392173e-09	4.980017e+01	3.521793e+02
1.930000e-06	6.869966e-06	5.318710e-09	4.926127e+01	3.503971e+02
1.940000e-06	6.792017e-06	5.272423e-09	4.870233e+01	3.485858e+02
1.950000e-06	6.711497e-06	5.305706e-09	4.812496e+01	3.467385e+02
1.960000e-06	6.628492e-06	5.239091e-09	4.752977e+01	3.448453e+02
1.970000e-06	6.543044e-06	5.228271e-09	4.691706e+01	3.428946e+02
1.980000e-06	6.455224e-06	5.180933e-09	4.628735e+01	3.408752e+02
1.990000e-06	6.365045e-06	5.173348e-09	4.564072e+01	3.387772e+02
2.000000e-06	6.272707e-06	5.134966e-09	4.497860e+01	3.365930e+02
2.010000e-06	6.178074e-06	5.103394e-09	4.430004e+01	3.343178e+02
2.020000e-06	6.081191e-06	5.077572e-09	4.360533e+01	3.319497e+02
2.030000e-06	5.982198e-06	4.983360e-09	4.289550e+01	3.294892e+02
2.040000e-06	5.881107e-06	4.938743e-09	4.217063e+01	3.269387e+02
2.050000e-06	5.777934e-06	4.937087e-09	4.143082e+01	3.243016e+02
2.060000e-06	5.672708e-06	4.965780e-09	4.067630e+01	3.215814e+02
2.070000e-06	5.565550e-06	4.890234e-09	3.990792e+01	3.187811e+02
2.080000e-06	5.456471e-06	4.812178e-09	3.912577e+01	3.159023e+02
2.090000e-06	5.345311e-06	4.741989e-09	3.832869e+01	3.129453e+02
2.100000e-06	5.232115e-06	4.692188e-09	3.751702e+01	3.099089e+02
2.110000e-06	5.117048e-06	4.670151e-09	3.669192e+01	3.067900e+02
2.120000e-06	5.000062e-06	4.667751e-09	3.585307e+01	3.035846e+02
2.130000e-06	4.881156e-06	4.629336e-09	3.500045e+01	3.002878e+02
2.140000e-06	4.760337e-06	4.526701e-09	3.413412e+01	2.968939e+02
2.150000e-06	4.637757e-06	4.452967e-09	3.325515e+01	2.933974e+02
2.160000e-06	4.513435e-06	4.412951e-09	3.236370e+01	2.897929e+02
2.170000e-06	4.387522e-06	4.381284e-09	3.146084e+01	2.860753e+02
2.180000e-06	4.260051e-06	4.313509e-09	3.054680e+01	2.822405e+02
2.190000e-06	4.130986e-06	4.253964e-09	2.962134e+01	2.782848e+02
2.200000e-06	4.000446e-06	4.180823e-09	2.868530e+01	2.742059e+02
2.210000e-06	3.868323e-06	4.111665e-09	2.773791e+01	2.700020e+02
2.220000e-06	3.734809e-06	4.058953e-09	2.678054e+01	2.656722e+02
2.230000e-06	3.599943e-06	4.012029e-09	2.581348e+01	2.612166e+02
2.240000e-06	3.463553e-06	3.933364e-09	2.483550e+01	2.566357e+02
2.250000e-06	3.325784e-06	3.841419e-09	2.384762e+01	2.519300e+02
2.260000e-06	3.186880e-06	3.778206e-09	2.285161e+01	2.470999e+02
2.270000e-06	3.046815e-06	3.722312e-09	2.184726e+01	2.421450e+02
2.280000e-06	2.905594e-06	3.643839e-09	2.083463e+01	2.370635e+02
2.290000e-06	2.763293e-06	3.545755e-09	1.981426e+01	2.318515e+02
2.300000e-06	2.619924e-06	3.451305e-09	1.878624e+01	2.265028e+02
2.310000e-06	2.475477e-06	3.360172e-09	1.775047e+01	2.210086e+02
2.320000e-06	2.330135e-06	3.286745e-09	1.670829e+01	2.153575e+02
2.330000e-06	2.184069e-06	3.223785e-09	1.566092e+01	2.095359e+02
2.340000e-06	2.037229e-06	3.143787e-09	1.460800e+01	2.035284e+02
2.350000e-06	1.889672e-06	3.031295e-09	1.354994e+01	1.973191e+02
2.360000e-06	1.741501e-06	2.914007e-09	1.248748e+01	1.908925e+02
2.370000e-06	1.592855e-06	2.815828e-09	1.142161e+01	1.842345e+02
2.380000e-06	1.443696e-06	2.726480e-09	1.035206e+01	1.773334e+02
2.390000e-06	1.294049e-06	2.625726e-09	9.279011e+00	1.701806e+02
2.400000e-06	1.144071e-06	2.508172e-09	8.203592e+00	1.627704e+02
2.410000e-06	9.938055e-07	2.379712e-09	7.126108e+00	1.550993e+02
2.420000e-06	8.433089e-07	2.252675e-09	6.046968e+00	1.471655e+02
2.430000e-06	6.925598e-07	2.135149e-09	4.966017e+00	1.389664e+02
2.440000e-06	5.415716e-07	2.019308e-09	3.883353e+00	1.304971e+02
2.450000e-06	3.902990e-07	1.891494e-09	2.798649e+00	1.217484e+02
2.460000e-06	2.387762e-07	1.750541e-09	1.712151e+00	1.127048e+02
2.470000e-06	8.716362e-08	1.604418e-09	6.250090e-01	1.033435e+02
2.480000e-06	-6.454009e-08	1.455193e-09	-4.627863e-01	9.363454e+01
2.490000e-06	-2.162776e-07	1.299992e-09	-1.550824e+00	8.354150e+01
2.500000e-06	-3.679254e-07	1.138673e-09	-2.638219e+00	7.302406e+01
2.510000e-06	-5.193910e-07	9.699080e-10	-3.724306e+00	6.204149e+01
2.520000e-06	-6.706216e-07	7.936793e-10	-4.808709e+00	5.055715e+01
2.530000e-06	-8.216027e-07	6.138488e-10	-5.891323e+00	3.854364e+01
2.540000e-06	-9.723380e-07	4.316208e-10	-6.972174e+00	2.598799e+01
2.550000e-06	-1.122760e-06	2.368642e-10	-8.050780e+00	1.289635e+01
2.560000e-06	-1.272820e-06	2.456366e-11	-9.126786e+00	-7.024026e-01
2.570000e-06	-1.422530e-06	-1.954973e-10	-1.020029e+01	-1.475462e+01
2.580000e-06	-1.571797e-06	-4.167396e-10	-1.127061e+01	-2.918183e+01
2.590000e-06	-1.720474e-06	-6.412622e-10	-1.233670e+01	-4.388272e+01
2.600000e-06	-1.868545e-06	-8.710410e-10	-1.339845e+01	-5.873731e+01
2.610000e-06	-2.015975e-06	-1.103242e-09	-1.445560e+01	-7.361279e+01
2.620000e-06	-2.162645e-06	-1.335084e-09	-1.550730e+01	-8.837076e+01
2.630000e-06	-2.308461e-06	-1.560899e-09	-1.655288e+01	-1.028749e+02
2.640000e-06	-2.453397e-06	-1.776198e-09	-1.759214e+01	-1.169990e+02
2.650000e-06	-2.597364e-06	-1.979177e-09	-1.862447e+01	-1.306336e+02
2.660000e-06	-2.740150e-06	-2.177717e-09	-1.964831e+01	-1.436912e+02
2.670000e-06	-2.881783e-06	-2.370531e-09	-2.066390e+01	-1.561107e+02
2.680000e-06	-3.022370e-06	-2.549920e-09	-2.167198e+01	-1.678574e+02
2.690000e-06	-3.161804e-06	-2.717377e-09	-2.267180e+01	-1.789229e+02
2.700000e-06	-3.300001e-06	-2.872626e-09	-2.366274e+01	-1.893221e+02
2.710000e-06	-3.436981e-06	-3.018590e-09	-2.464496e+01	-1.990879e+02
2.720000e-06	-3.572606e-06	-3.158906e-09	-2.561746e+01	-2.082664e+02
2.730000e-06	-3.706784e-06	-3.296116e-09	-2.657959e+01	-2.169106e+02
2.740000e-06	-3.839687e-06	-3.427109e-09	-2.753258e+01	-2.250749e+02
2.750000e-06	-3.971339e-06	-3.548572e-09	-2.847659e+01	-2.328102e+02
2.760000e-06	-4.101619e-06	-3.660986e-09	-2.941076e+01	-2.401609e+02
2.770000e-06	-4.230551e-06	-3.767229e-09	-3.033527e+01	-2.471628e+02
2.780000e-06	-4.357942e-06	-3.869075e-09	-3.124873e+01	-2.538429e+02
2.790000e-06	-4.483715e-06	-3.964918e-09	-3.215059e+01	-2.602202e+02
2.800000e-06	-4.608074e-06	-4.054677e-09	-3.304231e+01	-2.663081e+02
2.810000e-06	-4.730844e-06	-4.138785e-09	-3.392264e+01	-2.721166e+02
2.820000e-06	-4.851874e-06	-4.220361e-09	-3.479049e+01	-2.776547e+02
2.830000e-06	-4.971003e-06	-4.302178e-09	-3.564470e+01	-2.829329e+02
2.840000e-06	-5.088168e-06	-4.382170e-09	-3.648484e+01	-2.879645e+02
2.850000e-06	-5.203362e-06	-4.457150e-09	-3.731084e+01	-2.927657e+02
2.860000e-06	-5.316321e-06	-4.528170e-09	-3.812081e+01	-2.973553e+02
2.870000e-06	-5.427215e-06	-4.598532e-09	-3.891598e+01	-3.017534e+02
2.880000e-06	-5.536267e-06	-4.668727e-09	-3.969795e+01	-3.059795e+02
2.890000e-06	-5.643417e-06	-4.734502e-09	-4.046626e+01	-3.100503e+02
2.900000e-06	-5.748623e-06	-4.795872e-09	-4.122065e+01	-3.139782e+02
2.910000e-06	-5.851671e-06	-4.854790e-09	-4.195956e+01	-3.177699e+02
2.920000e-06	-5.952457e-06	-4.910561e-09	-4.268225e+01	-3.214259e+02
2.930000e-06	-6.051108e-06	-4.964056e-09	-4.338962e+01	-3.249411e+02
2.940000e-06	-6.147688e-06	-5.015656e-09	-4.408215e+01	-3.283061e+02
