# Temperatura_=_49.27
# Concentracion g/m^3_=_5000.0
# C_Vs_to_Am_M_A/Vsm_=_65563218390.804596
# pendiente_HvsI_1/m_=_3716.3
# ordenada_HvsI_A/m_=_1297.0
# frecuencia_Hz_=_302568.07773250755

Tiempo_(s)	Campo_(V.s)	Magnetizacion_(V.s)	Campo_(kA/m)	Magnetizacion_(A/m)
0.000000e+00	-7.945060e-06	-6.044466e-09	-5.685125e+01	-3.950825e+02
1.000000e-08	-7.941611e-06	-6.043135e-09	-5.682657e+01	-3.948724e+02
2.000000e-08	-7.935528e-06	-6.036361e-09	-5.678304e+01	-3.945654e+02
3.000000e-08	-7.926876e-06	-6.029988e-09	-5.672113e+01	-3.941725e+02
4.000000e-08	-7.915377e-06	-6.024836e-09	-5.663885e+01	-3.937088e+02
5.000000e-08	-7.900890e-06	-6.018251e-09	-5.653519e+01	-3.931920e+02
6.000000e-08	-7.883589e-06	-6.008895e-09	-5.641139e+01	-3.926401e+02
7.000000e-08	-7.863941e-06	-5.990342e-09	-5.627079e+01	-3.920700e+02
8.000000e-08	-7.841973e-06	-5.999415e-09	-5.611360e+01	-3.914956e+02
9.000000e-08	-7.817039e-06	-6.038236e-09	-5.593519e+01	-3.909258e+02
1.000000e-07	-7.788829e-06	-6.031970e-09	-5.573333e+01	-3.903645e+02
1.100000e-07	-7.757657e-06	-5.993928e-09	-5.551028e+01	-3.898093e+02
1.200000e-07	-7.723729e-06	-5.961735e-09	-5.526750e+01	-3.892524e+02
1.300000e-07	-7.687195e-06	-5.932050e-09	-5.500608e+01	-3.886810e+02
1.400000e-07	-7.648417e-06	-5.881936e-09	-5.472861e+01	-3.880787e+02
1.500000e-07	-7.607528e-06	-5.871150e-09	-5.443602e+01	-3.874267e+02
1.600000e-07	-7.564164e-06	-5.939061e-09	-5.412573e+01	-3.867059e+02
1.700000e-07	-7.518077e-06	-5.897559e-09	-5.379595e+01	-3.858980e+02
1.800000e-07	-7.469294e-06	-5.864982e-09	-5.344688e+01	-3.849870e+02
1.900000e-07	-7.417490e-06	-5.877322e-09	-5.307620e+01	-3.839604e+02
2.000000e-07	-7.362754e-06	-5.818794e-09	-5.268453e+01	-3.828095e+02
2.100000e-07	-7.305336e-06	-5.780844e-09	-5.227367e+01	-3.815299e+02
2.200000e-07	-7.245222e-06	-5.767877e-09	-5.184352e+01	-3.801216e+02
2.300000e-07	-7.182519e-06	-5.771072e-09	-5.139485e+01	-3.785880e+02
2.400000e-07	-7.117128e-06	-5.725198e-09	-5.092694e+01	-3.769357e+02
2.500000e-07	-7.048951e-06	-5.692859e-09	-5.043909e+01	-3.751734e+02
2.600000e-07	-6.978081e-06	-5.698802e-09	-4.993198e+01	-3.733110e+02
2.700000e-07	-6.904525e-06	-5.671930e-09	-4.940565e+01	-3.713587e+02
2.800000e-07	-6.828201e-06	-5.623631e-09	-4.885951e+01	-3.693261e+02
2.900000e-07	-6.749075e-06	-5.599176e-09	-4.829332e+01	-3.672215e+02
3.000000e-07	-6.667294e-06	-5.592402e-09	-4.770813e+01	-3.650513e+02
3.100000e-07	-6.583185e-06	-5.550641e-09	-4.710629e+01	-3.628195e+02
3.200000e-07	-6.496868e-06	-5.501474e-09	-4.648864e+01	-3.605276e+02
3.300000e-07	-6.408232e-06	-5.466488e-09	-4.585440e+01	-3.581746e+02
3.400000e-07	-6.317283e-06	-5.414664e-09	-4.520361e+01	-3.557573e+02
3.500000e-07	-6.224083e-06	-5.366038e-09	-4.453672e+01	-3.532707e+02
3.600000e-07	-6.128618e-06	-5.340570e-09	-4.385361e+01	-3.507084e+02
3.700000e-07	-6.030893e-06	-5.318107e-09	-4.315433e+01	-3.480634e+02
3.800000e-07	-5.930910e-06	-5.278588e-09	-4.243891e+01	-3.453288e+02
3.900000e-07	-5.828818e-06	-5.229159e-09	-4.170838e+01	-3.424985e+02
4.000000e-07	-5.724711e-06	-5.181151e-09	-4.096344e+01	-3.395676e+02
4.100000e-07	-5.618586e-06	-5.127811e-09	-4.020405e+01	-3.365331e+02
4.200000e-07	-5.510467e-06	-5.078508e-09	-3.943040e+01	-3.333939e+02
4.300000e-07	-5.400423e-06	-5.039912e-09	-3.864298e+01	-3.301505e+02
4.400000e-07	-5.288418e-06	-4.992361e-09	-3.784152e+01	-3.268054e+02
4.500000e-07	-5.174345e-06	-4.934356e-09	-3.702527e+01	-3.233617e+02
4.600000e-07	-5.058204e-06	-4.881907e-09	-3.619421e+01	-3.198229e+02
4.700000e-07	-4.940218e-06	-4.825896e-09	-3.534996e+01	-3.161919e+02
4.800000e-07	-4.820457e-06	-4.762269e-09	-3.449300e+01	-3.124706e+02
4.900000e-07	-4.698903e-06	-4.707884e-09	-3.362322e+01	-3.086587e+02
5.000000e-07	-4.575645e-06	-4.651828e-09	-3.274124e+01	-3.047540e+02
5.100000e-07	-4.450717e-06	-4.583900e-09	-3.184731e+01	-3.007518e+02
5.200000e-07	-4.324226e-06	-4.517368e-09	-3.094220e+01	-2.966456e+02
5.300000e-07	-4.196049e-06	-4.457239e-09	-3.002502e+01	-2.924274e+02
5.400000e-07	-4.066340e-06	-4.388399e-09	-2.909688e+01	-2.880888e+02
5.500000e-07	-3.935162e-06	-4.308927e-09	-2.815824e+01	-2.836215e+02
5.600000e-07	-3.802424e-06	-4.242955e-09	-2.720842e+01	-2.790188e+02
5.700000e-07	-3.668322e-06	-4.181227e-09	-2.624885e+01	-2.742757e+02
5.800000e-07	-3.532821e-06	-4.103096e-09	-2.527927e+01	-2.693897e+02
5.900000e-07	-3.395873e-06	-4.019259e-09	-2.429933e+01	-2.643608e+02
6.000000e-07	-3.257672e-06	-3.942966e-09	-2.331042e+01	-2.591907e+02
6.100000e-07	-3.118202e-06	-3.861943e-09	-2.231244e+01	-2.538825e+02
6.200000e-07	-2.977302e-06	-3.772891e-09	-2.130422e+01	-2.484392e+02
6.300000e-07	-2.835050e-06	-3.691381e-09	-2.028633e+01	-2.428627e+02
6.400000e-07	-2.691707e-06	-3.613846e-09	-1.926063e+01	-2.371523e+02
6.500000e-07	-2.547491e-06	-3.524615e-09	-1.822869e+01	-2.313042e+02
6.600000e-07	-2.402385e-06	-3.427558e-09	-1.719038e+01	-2.253104e+02
6.700000e-07	-2.256319e-06	-3.332316e-09	-1.614519e+01	-2.191593e+02
6.800000e-07	-2.109511e-06	-3.235424e-09	-1.509470e+01	-2.128357e+02
6.900000e-07	-1.962025e-06	-3.132909e-09	-1.403936e+01	-2.063222e+02
7.000000e-07	-1.813871e-06	-3.026104e-09	-1.297924e+01	-1.996006e+02
7.100000e-07	-1.665160e-06	-2.920877e-09	-1.191513e+01	-1.926534e+02
7.200000e-07	-1.515955e-06	-2.810383e-09	-1.084749e+01	-1.854656e+02
7.300000e-07	-1.366400e-06	-2.695846e-09	-9.777338e+00	-1.780253e+02
7.400000e-07	-1.216462e-06	-2.579059e-09	-8.704449e+00	-1.703248e+02
7.500000e-07	-1.066096e-06	-2.458895e-09	-7.628501e+00	-1.623599e+02
7.600000e-07	-9.152973e-07	-2.337969e-09	-6.549452e+00	-1.541293e+02
7.700000e-07	-7.641538e-07	-2.210764e-09	-5.467938e+00	-1.456322e+02
7.800000e-07	-6.128175e-07	-2.078677e-09	-4.385044e+00	-1.368669e+02
7.900000e-07	-4.612572e-07	-1.939773e-09	-3.300548e+00	-1.278276e+02
8.000000e-07	-3.094962e-07	-1.794690e-09	-2.214615e+00	-1.185023e+02
8.100000e-07	-1.575624e-07	-1.643758e-09	-1.127445e+00	-1.088712e+02
8.200000e-07	-5.514830e-09	-1.485654e-09	-3.946162e-02	-9.890619e+01
8.300000e-07	1.465622e-07	-1.322809e-09	1.048733e+00	-8.857118e+01
8.400000e-07	2.985975e-07	-1.156072e-09	2.136628e+00	-7.782427e+01
8.500000e-07	4.505123e-07	-9.858975e-10	3.223661e+00	-6.662116e+01
8.600000e-07	6.022846e-07	-8.098387e-10	4.309676e+00	-5.491977e+01
8.700000e-07	7.539102e-07	-6.274781e-10	5.394640e+00	-4.268562e+01
8.800000e-07	9.053572e-07	-4.365461e-10	6.478326e+00	-2.989747e+01
8.900000e-07	1.056504e-06	-2.376216e-10	7.559867e+00	-1.655258e+01
9.000000e-07	1.207255e-06	-3.164238e-11	8.638572e+00	-2.670928e+00
9.100000e-07	1.357561e-06	1.833879e-10	9.714093e+00	1.170207e+01
9.200000e-07	1.507395e-06	4.100152e-10	1.078624e+01	2.649485e+01
9.300000e-07	1.656771e-06	6.449827e-10	1.185510e+01	4.161123e+01
9.400000e-07	1.805601e-06	8.803205e-10	1.292006e+01	5.693409e+01
9.500000e-07	1.953684e-06	1.115385e-09	1.397968e+01	7.233097e+01
9.600000e-07	2.100991e-06	1.351198e-09	1.503374e+01	8.766125e+01
9.700000e-07	2.247627e-06	1.583314e-09	1.608300e+01	1.027840e+02
9.800000e-07	2.393496e-06	1.804533e-09	1.712677e+01	1.175662e+02
9.900000e-07	2.538423e-06	2.016850e-09	1.816380e+01	1.318897e+02
1.000000e-06	2.682407e-06	2.222095e-09	1.919409e+01	1.456577e+02
1.010000e-06	2.825357e-06	2.422016e-09	2.021697e+01	1.587988e+02
1.020000e-06	2.967161e-06	2.612485e-09	2.123166e+01	1.712686e+02
1.030000e-06	3.107745e-06	2.790303e-09	2.223761e+01	1.830498e+02
1.040000e-06	3.247019e-06	2.958741e-09	2.323419e+01	1.941495e+02
1.050000e-06	3.385052e-06	3.113919e-09	2.422190e+01	2.045950e+02
1.060000e-06	3.521797e-06	3.259631e-09	2.520038e+01	2.144288e+02
1.070000e-06	3.657155e-06	3.398351e-09	2.616895e+01	2.237019e+02
1.080000e-06	3.791203e-06	3.533603e-09	2.712813e+01	2.324690e+02
1.090000e-06	3.923938e-06	3.662942e-09	2.807792e+01	2.407827e+02
1.100000e-06	4.055255e-06	3.786075e-09	2.901756e+01	2.486898e+02
1.110000e-06	4.185098e-06	3.907623e-09	2.994666e+01	2.562292e+02
1.120000e-06	4.313434e-06	4.023577e-09	3.086498e+01	2.634305e+02
1.130000e-06	4.440224e-06	4.128809e-09	3.177223e+01	2.703150e+02
1.140000e-06	4.565555e-06	4.224520e-09	3.266904e+01	2.768971e+02
1.150000e-06	4.689405e-06	4.316779e-09	3.355525e+01	2.831866e+02
1.160000e-06	4.811581e-06	4.406491e-09	3.442949e+01	2.891914e+02
1.170000e-06	4.932049e-06	4.490120e-09	3.529150e+01	2.949200e+02
1.180000e-06	5.050734e-06	4.567427e-09	3.614076e+01	3.003829e+02
1.190000e-06	5.167468e-06	4.645362e-09	3.697606e+01	3.055939e+02
1.200000e-06	5.282177e-06	4.725790e-09	3.779686e+01	3.105701e+02
1.210000e-06	5.394849e-06	4.806003e-09	3.860309e+01	3.153310e+02
1.220000e-06	5.505549e-06	4.881862e-09	3.939521e+01	3.198972e+02
1.230000e-06	5.614347e-06	4.948575e-09	4.017372e+01	3.242882e+02
1.240000e-06	5.721142e-06	5.008041e-09	4.093790e+01	3.285210e+02
1.250000e-06	5.825780e-06	5.065014e-09	4.168664e+01	3.326083e+02
1.260000e-06	5.928264e-06	5.122761e-09	4.241997e+01	3.365574e+02
1.270000e-06	6.028639e-06	5.179169e-09	4.313821e+01	3.403702e+02
1.280000e-06	6.126745e-06	5.231362e-09	4.384021e+01	3.440437e+02
1.290000e-06	6.222465e-06	5.281323e-09	4.452514e+01	3.475711e+02
1.300000e-06	6.316008e-06	5.334247e-09	4.519449e+01	3.509437e+02
1.310000e-06	6.407337e-06	5.387808e-09	4.584800e+01	3.541529e+02
1.320000e-06	6.496336e-06	5.434437e-09	4.648484e+01	3.571919e+02
1.330000e-06	6.583014e-06	5.476161e-09	4.710506e+01	3.600579e+02
1.340000e-06	6.667437e-06	5.514871e-09	4.770916e+01	3.627524e+02
1.350000e-06	6.749562e-06	5.553157e-09	4.829680e+01	3.652817e+02
1.360000e-06	6.829139e-06	5.589453e-09	4.886622e+01	3.676568e+02
1.370000e-06	6.906220e-06	5.622615e-09	4.941778e+01	3.698915e+02
1.380000e-06	6.980712e-06	5.654718e-09	4.995081e+01	3.720015e+02
1.390000e-06	7.052527e-06	5.685188e-09	5.046468e+01	3.740023e+02
1.400000e-06	7.121900e-06	5.714891e-09	5.096108e+01	3.759071e+02
1.410000e-06	7.188795e-06	5.743835e-09	5.143976e+01	3.777259e+02
1.420000e-06	7.253035e-06	5.771176e-09	5.189943e+01	3.794643e+02
1.430000e-06	7.314778e-06	5.795442e-09	5.234123e+01	3.811234e+02
1.440000e-06	7.374068e-06	5.817548e-09	5.276549e+01	3.827002e+02
1.450000e-06	7.430738e-06	5.839646e-09	5.317099e+01	3.841887e+02
1.460000e-06	7.484673e-06	5.859443e-09	5.355693e+01	3.855817e+02
1.470000e-06	7.535519e-06	5.876045e-09	5.392076e+01	3.868721e+02
1.480000e-06	7.583325e-06	5.891304e-09	5.426284e+01	3.880547e+02
1.490000e-06	7.628543e-06	5.906187e-09	5.458640e+01	3.891277e+02
1.500000e-06	7.671072e-06	5.921224e-09	5.489071e+01	3.900931e+02
1.510000e-06	7.710790e-06	5.937278e-09	5.517492e+01	3.909569e+02
1.520000e-06	7.747833e-06	5.953843e-09	5.543998e+01	3.917287e+02
1.530000e-06	7.782168e-06	5.967497e-09	5.568567e+01	3.924204e+02
1.540000e-06	7.813701e-06	5.975329e-09	5.591130e+01	3.930447e+02
1.550000e-06	7.842485e-06	5.980949e-09	5.611727e+01	3.936135e+02
1.560000e-06	7.868388e-06	5.988623e-09	5.630261e+01	3.941360e+02
1.570000e-06	7.891353e-06	5.997130e-09	5.646694e+01	3.946175e+02
1.580000e-06	7.911658e-06	6.003758e-09	5.661223e+01	3.950589e+02
1.590000e-06	7.929195e-06	6.009021e-09	5.673772e+01	3.954562e+02
1.600000e-06	7.943786e-06	6.014367e-09	5.684213e+01	3.958014e+02
1.610000e-06	7.955235e-06	6.020959e-09	5.692405e+01	3.960833e+02
1.620000e-06	7.963497e-06	6.024324e-09	5.698317e+01	3.962895e+02
1.630000e-06	7.968947e-06	6.024133e-09	5.702217e+01	3.964081e+02
1.640000e-06	7.971648e-06	6.023803e-09	5.704150e+01	3.964296e+02
1.650000e-06	7.971530e-06	6.020532e-09	5.704065e+01	3.963481e+02
1.660000e-06	7.968761e-06	6.012138e-09	5.702084e+01	3.961630e+02
1.670000e-06	7.963264e-06	6.007315e-09	5.698150e+01	3.958789e+02
1.680000e-06	7.955031e-06	6.004251e-09	5.692260e+01	3.955058e+02
1.690000e-06	7.944223e-06	6.000017e-09	5.684526e+01	3.950578e+02
1.700000e-06	7.930627e-06	5.996216e-09	5.674797e+01	3.945522e+02
1.710000e-06	7.914330e-06	5.996528e-09	5.663136e+01	3.940070e+02
1.720000e-06	7.895763e-06	6.000928e-09	5.649850e+01	3.934396e+02
1.730000e-06	7.874826e-06	5.934742e-09	5.634868e+01	3.928648e+02
1.740000e-06	7.850921e-06	5.894259e-09	5.617763e+01	3.922929e+02
1.750000e-06	7.823486e-06	5.911974e-09	5.598132e+01	3.917290e+02
1.760000e-06	7.792516e-06	5.912461e-09	5.575971e+01	3.911724e+02
1.770000e-06	7.758720e-06	5.907814e-09	5.551788e+01	3.906166e+02
1.780000e-06	7.722586e-06	5.962448e-09	5.525932e+01	3.900498e+02
1.790000e-06	7.684146e-06	5.964692e-09	5.498427e+01	3.894565e+02
1.800000e-06	7.643669e-06	5.849861e-09	5.469463e+01	3.888183e+02
1.810000e-06	7.600921e-06	5.929554e-09	5.438874e+01	3.881161e+02
1.820000e-06	7.555459e-06	5.922526e-09	5.406344e+01	3.873312e+02
1.830000e-06	7.507442e-06	5.895614e-09	5.371985e+01	3.864469e+02
1.840000e-06	7.456550e-06	5.952873e-09	5.335569e+01	3.854497e+02
1.850000e-06	7.402648e-06	5.897767e-09	5.296999e+01	3.843301e+02
1.860000e-06	7.345989e-06	5.913244e-09	5.256457e+01	3.830825e+02
1.870000e-06	7.286654e-06	5.813209e-09	5.213999e+01	3.817058e+02
1.880000e-06	7.224716e-06	5.782110e-09	5.169679e+01	3.802026e+02
1.890000e-06	7.159984e-06	5.807503e-09	5.123360e+01	3.785788e+02
1.900000e-06	7.092511e-06	5.729796e-09	5.075079e+01	3.768427e+02
1.910000e-06	7.022239e-06	5.737028e-09	5.024796e+01	3.750039e+02
1.920000e-06	6.949203e-06	5.703795e-09	4.972534e+01	3.730727e+02
1.930000e-06	6.873527e-06	5.677407e-09	4.918384e+01	3.710590e+02
1.940000e-06	6.795029e-06	5.624635e-09	4.862214e+01	3.689713e+02
1.950000e-06	6.713968e-06	5.592947e-09	4.804211e+01	3.668166e+02
1.960000e-06	6.630476e-06	5.583629e-09	4.744468e+01	3.645995e+02
1.970000e-06	6.544516e-06	5.512373e-09	4.682959e+01	3.623222e+02
1.980000e-06	6.456112e-06	5.502900e-09	4.619701e+01	3.599844e+02
1.990000e-06	6.365439e-06	5.473788e-09	4.554819e+01	3.575832e+02
2.000000e-06	6.272609e-06	5.443896e-09	4.488395e+01	3.551141e+02
2.010000e-06	6.177443e-06	5.380894e-09	4.420298e+01	3.525709e+02
2.020000e-06	6.080092e-06	5.335077e-09	4.350638e+01	3.499469e+02
2.030000e-06	5.980559e-06	5.304374e-09	4.279417e+01	3.472349e+02
2.040000e-06	5.878868e-06	5.257593e-09	4.206651e+01	3.444286e+02
2.050000e-06	5.775075e-06	5.231648e-09	4.132382e+01	3.415228e+02
2.060000e-06	5.669336e-06	5.190147e-09	4.056719e+01	3.385140e+02
2.070000e-06	5.561703e-06	5.130291e-09	3.979702e+01	3.354005e+02
2.080000e-06	5.452082e-06	5.058979e-09	3.901263e+01	3.321827e+02
2.090000e-06	5.340511e-06	5.012894e-09	3.821428e+01	3.288623e+02
2.100000e-06	5.226904e-06	4.964207e-09	3.740135e+01	3.254425e+02
2.110000e-06	5.111271e-06	4.926519e-09	3.657394e+01	3.219267e+02
2.120000e-06	4.993681e-06	4.878867e-09	3.573251e+01	3.183182e+02
2.130000e-06	4.874144e-06	4.819432e-09	3.487716e+01	3.146190e+02
2.140000e-06	4.752771e-06	4.751624e-09	3.400867e+01	3.108295e+02
2.150000e-06	4.629736e-06	4.688963e-09	3.312829e+01	3.069479e+02
2.160000e-06	4.505006e-06	4.637234e-09	3.223578e+01	3.029702e+02
2.170000e-06	4.378696e-06	4.573832e-09	3.133196e+01	2.988903e+02
2.180000e-06	4.250789e-06	4.508096e-09	3.041672e+01	2.947005e+02
2.190000e-06	4.121299e-06	4.445771e-09	2.949015e+01	2.903924e+02
2.200000e-06	3.990337e-06	4.377789e-09	2.855304e+01	2.859576e+02
2.210000e-06	3.857820e-06	4.300827e-09	2.760481e+01	2.813888e+02
2.220000e-06	3.723878e-06	4.235025e-09	2.664638e+01	2.766808e+02
2.230000e-06	3.588517e-06	4.165516e-09	2.567780e+01	2.718302e+02
2.240000e-06	3.451729e-06	4.087957e-09	2.469901e+01	2.668365e+02
2.250000e-06	3.313620e-06	4.011142e-09	2.371076e+01	2.617010e+02
2.260000e-06	3.174289e-06	3.941687e-09	2.271377e+01	2.564267e+02
2.270000e-06	3.033726e-06	3.862231e-09	2.170797e+01	2.510165e+02
2.280000e-06	2.891957e-06	3.765868e-09	2.069353e+01	2.454728e+02
2.290000e-06	2.749095e-06	3.672120e-09	1.967127e+01	2.397957e+02
2.300000e-06	2.605143e-06	3.583222e-09	1.864122e+01	2.339822e+02
2.310000e-06	2.460244e-06	3.493178e-09	1.760439e+01	2.280255e+02
2.320000e-06	2.314607e-06	3.404332e-09	1.656228e+01	2.219146e+02
2.330000e-06	2.168277e-06	3.315742e-09	1.551520e+01	2.156352e+02
2.340000e-06	2.021186e-06	3.217025e-09	1.446269e+01	2.091705e+02
2.350000e-06	1.873367e-06	3.108674e-09	1.340496e+01	2.025022e+02
2.360000e-06	1.724908e-06	3.002322e-09	1.234266e+01	1.956126e+02
2.370000e-06	1.575853e-06	2.899348e-09	1.127609e+01	1.884857e+02
2.380000e-06	1.426272e-06	2.790411e-09	1.020575e+01	1.811091e+02
2.390000e-06	1.276305e-06	2.672968e-09	9.132657e+00	1.734737e+02
2.400000e-06	1.126044e-06	2.549506e-09	8.057460e+00	1.655747e+02
2.410000e-06	9.754772e-07	2.422909e-09	6.980073e+00	1.574102e+02
2.420000e-06	8.245217e-07	2.294860e-09	5.899903e+00	1.489794e+02
2.430000e-06	6.732726e-07	2.166356e-09	4.817634e+00	1.402811e+02
2.440000e-06	5.217791e-07	2.034218e-09	3.733615e+00	1.313108e+02
2.450000e-06	3.700007e-07	1.895151e-09	2.647557e+00	1.220580e+02
2.460000e-06	2.180261e-07	1.750830e-09	1.560096e+00	1.125053e+02
2.470000e-06	6.594409e-08	1.599990e-09	4.718660e-01	1.026265e+02
2.480000e-06	-8.622630e-08	1.440429e-09	-6.169963e-01	9.238732e+01
2.490000e-06	-2.384053e-07	1.273644e-09	-1.705920e+00	8.174711e+01
2.500000e-06	-3.905022e-07	1.101467e-09	-2.794257e+00	7.066176e+01
2.510000e-06	-5.424990e-07	9.254511e-10	-3.881877e+00	5.908816e+01
2.520000e-06	-6.942444e-07	7.444000e-10	-4.967698e+00	4.698940e+01
2.530000e-06	-8.456407e-07	5.560596e-10	-6.051021e+00	3.434042e+01
2.540000e-06	-9.967390e-07	3.592695e-10	-7.132212e+00	2.113338e+01
2.550000e-06	-1.147470e-06	1.490924e-10	-8.210778e+00	7.382279e+00
2.560000e-06	-1.297817e-06	-7.211724e-11	-9.286588e+00	-6.873978e+00
2.570000e-06	-1.447778e-06	-2.982291e-10	-1.035964e+01	-2.157032e+01
2.580000e-06	-1.597284e-06	-5.290348e-10	-1.142944e+01	-3.661645e+01
2.590000e-06	-1.746176e-06	-7.642952e-10	-1.249484e+01	-5.190002e+01
2.600000e-06	-1.894331e-06	-1.004105e-09	-1.355498e+01	-6.729180e+01
2.610000e-06	-2.041813e-06	-1.243079e-09	-1.461029e+01	-8.265247e+01
2.620000e-06	-2.188535e-06	-1.478117e-09	-1.566017e+01	-9.784045e+01
2.630000e-06	-2.334403e-06	-1.707181e-09	-1.670393e+01	-1.127199e+02
2.640000e-06	-2.479469e-06	-1.928100e-09	-1.774196e+01	-1.271685e+02
2.650000e-06	-2.623588e-06	-2.141947e-09	-1.877321e+01	-1.410835e+02
2.660000e-06	-2.766588e-06	-2.346390e-09	-1.979645e+01	-1.543870e+02
2.670000e-06	-2.908492e-06	-2.539189e-09	-2.081185e+01	-1.670276e+02
2.680000e-06	-3.049255e-06	-2.719103e-09	-2.181909e+01	-1.789816e+02
2.690000e-06	-3.188771e-06	-2.889049e-09	-2.281740e+01	-1.902502e+02
2.700000e-06	-3.327030e-06	-3.050106e-09	-2.380672e+01	-2.008563e+02
2.710000e-06	-3.464095e-06	-3.202362e-09	-2.478749e+01	-2.108388e+02
2.720000e-06	-3.599849e-06	-3.348688e-09	-2.575889e+01	-2.202474e+02
2.730000e-06	-3.734269e-06	-3.488177e-09	-2.672074e+01	-2.291364e+02
2.740000e-06	-3.867346e-06	-3.621169e-09	-2.767297e+01	-2.375591e+02
2.750000e-06	-3.999002e-06	-3.745448e-09	-2.861504e+01	-2.455643e+02
2.760000e-06	-4.129269e-06	-3.862209e-09	-2.954718e+01	-2.531929e+02
2.770000e-06	-4.258178e-06	-3.974370e-09	-3.046959e+01	-2.604768e+02
2.780000e-06	-4.385582e-06	-4.080724e-09	-3.138124e+01	-2.674393e+02
2.790000e-06	-4.511414e-06	-4.180424e-09	-3.228163e+01	-2.740964e+02
2.800000e-06	-4.635740e-06	-4.273051e-09	-3.317125e+01	-2.804587e+02
2.810000e-06	-4.758456e-06	-4.361570e-09	-3.404935e+01	-2.865343e+02
2.820000e-06	-4.879511e-06	-4.448082e-09	-3.491557e+01	-2.923315e+02
2.830000e-06	-4.998715e-06	-4.533472e-09	-3.576854e+01	-2.978600e+02
2.840000e-06	-5.115860e-06	-4.616242e-09	-3.660677e+01	-3.031329e+02
2.850000e-06	-5.230974e-06	-4.694874e-09	-3.743048e+01	-3.081665e+02
2.860000e-06	-5.343969e-06	-4.770325e-09	-3.823902e+01	-3.129797e+02
2.870000e-06	-5.454814e-06	-4.843206e-09	-3.903217e+01	-3.175931e+02
2.880000e-06	-5.563668e-06	-4.914374e-09	-3.981109e+01	-3.220265e+02
2.890000e-06	-5.670683e-06	-4.983826e-09	-4.057684e+01	-3.262979e+02
2.900000e-06	-5.775803e-06	-5.050652e-09	-4.132903e+01	-3.304211e+02
2.910000e-06	-5.878715e-06	-5.112358e-09	-4.206542e+01	-3.344047e+02
2.920000e-06	-5.979407e-06	-5.169735e-09	-4.278593e+01	-3.382522e+02
2.930000e-06	-6.078017e-06	-5.226743e-09	-4.349153e+01	-3.419614e+02
2.940000e-06	-6.174478e-06	-5.281433e-09	-4.418177e+01	-3.455265e+02
