# Temperatura_=_39.74
# Concentracion g/m^3_=_5000.0
# C_Vs_to_Am_M_A/Vsm_=_65563218390.804596
# pendiente_HvsI_1/m_=_3716.3
# ordenada_HvsI_A/m_=_1297.0
# frecuencia_Hz_=_302577.72151431174

Tiempo_(s)	Campo_(V.s)	Magnetizacion_(V.s)	Campo_(kA/m)	Magnetizacion_(A/m)
0.000000e+00	-7.974461e-06	-5.615006e-09	-5.685202e+01	-3.675588e+02
1.000000e-08	-7.971599e-06	-5.608836e-09	-5.683162e+01	-3.673547e+02
2.000000e-08	-7.966046e-06	-5.605629e-09	-5.679203e+01	-3.670865e+02
3.000000e-08	-7.957948e-06	-5.600423e-09	-5.673429e+01	-3.667731e+02
4.000000e-08	-7.947101e-06	-5.594343e-09	-5.665696e+01	-3.664343e+02
5.000000e-08	-7.933252e-06	-5.591741e-09	-5.655823e+01	-3.660875e+02
6.000000e-08	-7.916486e-06	-5.592157e-09	-5.643870e+01	-3.657457e+02
7.000000e-08	-7.897270e-06	-5.593849e-09	-5.630170e+01	-3.654149e+02
8.000000e-08	-7.875755e-06	-5.610619e-09	-5.614832e+01	-3.650937e+02
9.000000e-08	-7.851378e-06	-5.561374e-09	-5.597452e+01	-3.647728e+02
1.000000e-07	-7.823730e-06	-5.569842e-09	-5.577742e+01	-3.644359e+02
1.100000e-07	-7.793065e-06	-5.600691e-09	-5.555880e+01	-3.640618e+02
1.200000e-07	-7.759645e-06	-5.562907e-09	-5.532054e+01	-3.636272e+02
1.300000e-07	-7.723524e-06	-5.505537e-09	-5.506302e+01	-3.631087e+02
1.400000e-07	-7.685078e-06	-5.472702e-09	-5.478893e+01	-3.624865e+02
1.500000e-07	-7.644533e-06	-5.534433e-09	-5.449988e+01	-3.617459e+02
1.600000e-07	-7.601561e-06	-5.475990e-09	-5.419352e+01	-3.608793e+02
1.700000e-07	-7.555907e-06	-5.524046e-09	-5.386804e+01	-3.598868e+02
1.800000e-07	-7.507491e-06	-5.555507e-09	-5.352286e+01	-3.587755e+02
1.900000e-07	-7.456041e-06	-5.405980e-09	-5.315607e+01	-3.575586e+02
2.000000e-07	-7.401655e-06	-5.433051e-09	-5.276833e+01	-3.562530e+02
2.100000e-07	-7.344568e-06	-5.405311e-09	-5.236134e+01	-3.548776e+02
2.200000e-07	-7.284774e-06	-5.406944e-09	-5.193506e+01	-3.534501e+02
2.300000e-07	-7.222409e-06	-5.411903e-09	-5.149045e+01	-3.519856e+02
2.400000e-07	-7.157326e-06	-5.315749e-09	-5.102645e+01	-3.504943e+02
2.500000e-07	-7.089465e-06	-5.335605e-09	-5.054265e+01	-3.489813e+02
2.600000e-07	-7.018931e-06	-5.316089e-09	-5.003979e+01	-3.474459e+02
2.700000e-07	-6.945615e-06	-5.312670e-09	-4.951711e+01	-3.458828e+02
2.800000e-07	-6.869541e-06	-5.283919e-09	-4.897475e+01	-3.442826e+02
2.900000e-07	-6.790682e-06	-5.275946e-09	-4.841255e+01	-3.426342e+02
3.000000e-07	-6.709093e-06	-5.236033e-09	-4.783088e+01	-3.409259e+02
3.100000e-07	-6.625148e-06	-5.161222e-09	-4.723241e+01	-3.391469e+02
3.200000e-07	-6.539048e-06	-5.194969e-09	-4.661859e+01	-3.372889e+02
3.300000e-07	-6.450586e-06	-5.147739e-09	-4.598792e+01	-3.353465e+02
3.400000e-07	-6.359750e-06	-5.087436e-09	-4.534032e+01	-3.333170e+02
3.500000e-07	-6.266668e-06	-5.043642e-09	-4.467672e+01	-3.312008e+02
3.600000e-07	-6.171304e-06	-5.040231e-09	-4.399684e+01	-3.289999e+02
3.700000e-07	-6.073612e-06	-5.015357e-09	-4.330037e+01	-3.267175e+02
3.800000e-07	-5.973716e-06	-4.962636e-09	-4.258818e+01	-3.243567e+02
3.900000e-07	-5.871734e-06	-4.952971e-09	-4.186112e+01	-3.219198e+02
4.000000e-07	-5.767646e-06	-4.903283e-09	-4.111906e+01	-3.194077e+02
4.100000e-07	-5.661467e-06	-4.838913e-09	-4.036208e+01	-3.168198e+02
4.200000e-07	-5.553284e-06	-4.784189e-09	-3.959082e+01	-3.141538e+02
4.300000e-07	-5.443236e-06	-4.791754e-09	-3.880625e+01	-3.114067e+02
4.400000e-07	-5.331254e-06	-4.750923e-09	-3.800791e+01	-3.085745e+02
4.500000e-07	-5.217153e-06	-4.668827e-09	-3.719445e+01	-3.056535e+02
4.600000e-07	-5.100988e-06	-4.615539e-09	-3.636628e+01	-3.026406e+02
4.700000e-07	-4.982933e-06	-4.580583e-09	-3.552463e+01	-2.995331e+02
4.800000e-07	-4.863073e-06	-4.529780e-09	-3.467012e+01	-2.963294e+02
4.900000e-07	-4.741439e-06	-4.477599e-09	-3.380296e+01	-2.930282e+02
5.000000e-07	-4.617992e-06	-4.442248e-09	-3.292288e+01	-2.896285e+02
5.100000e-07	-4.492859e-06	-4.376745e-09	-3.203076e+01	-2.861290e+02
5.200000e-07	-4.366199e-06	-4.312279e-09	-3.112778e+01	-2.825275e+02
5.300000e-07	-4.237960e-06	-4.261325e-09	-3.021353e+01	-2.788207e+02
5.400000e-07	-4.108143e-06	-4.213937e-09	-2.928803e+01	-2.750044e+02
5.500000e-07	-3.976812e-06	-4.138665e-09	-2.835174e+01	-2.710732e+02
5.600000e-07	-3.843956e-06	-4.070027e-09	-2.740457e+01	-2.670215e+02
5.700000e-07	-3.709591e-06	-4.014261e-09	-2.644664e+01	-2.628435e+02
5.800000e-07	-3.573883e-06	-3.943674e-09	-2.547914e+01	-2.585343e+02
5.900000e-07	-3.436822e-06	-3.866463e-09	-2.450200e+01	-2.540905e+02
6.000000e-07	-3.298316e-06	-3.798708e-09	-2.351456e+01	-2.495099e+02
6.100000e-07	-3.158384e-06	-3.732532e-09	-2.251694e+01	-2.447919e+02
6.200000e-07	-3.017096e-06	-3.649792e-09	-2.150967e+01	-2.399372e+02
6.300000e-07	-2.874595e-06	-3.576747e-09	-2.049374e+01	-2.349466e+02
6.400000e-07	-2.730951e-06	-3.510775e-09	-1.946967e+01	-2.298202e+02
6.500000e-07	-2.586318e-06	-3.434103e-09	-1.843854e+01	-2.245564e+02
6.600000e-07	-2.440783e-06	-3.340828e-09	-1.740098e+01	-2.191509e+02
6.700000e-07	-2.294312e-06	-3.250560e-09	-1.635675e+01	-2.135956e+02
6.800000e-07	-2.147072e-06	-3.162010e-09	-1.530703e+01	-2.078792e+02
6.900000e-07	-1.999259e-06	-3.066018e-09	-1.425324e+01	-2.019866e+02
7.000000e-07	-1.850802e-06	-2.972468e-09	-1.319485e+01	-1.959005e+02
7.100000e-07	-1.701752e-06	-2.878641e-09	-1.213224e+01	-1.896025e+02
7.200000e-07	-1.552229e-06	-2.779242e-09	-1.106625e+01	-1.830741e+02
7.300000e-07	-1.402236e-06	-2.670024e-09	-9.996906e+00	-1.762992e+02
7.400000e-07	-1.251758e-06	-2.564529e-09	-8.924111e+00	-1.692645e+02
7.500000e-07	-1.100802e-06	-2.457866e-09	-7.847902e+00	-1.619605e+02
7.600000e-07	-9.495037e-07	-2.345116e-09	-6.769260e+00	-1.543815e+02
7.700000e-07	-7.979176e-07	-2.225485e-09	-5.688564e+00	-1.465246e+02
7.800000e-07	-6.460705e-07	-2.100818e-09	-4.606006e+00	-1.383880e+02
7.900000e-07	-4.940133e-07	-1.971593e-09	-3.521950e+00	-1.299689e+02
8.000000e-07	-3.417717e-07	-1.834508e-09	-2.436580e+00	-1.212612e+02
8.100000e-07	-1.894463e-07	-1.695652e-09	-1.350612e+00	-1.122529e+02
8.200000e-07	-3.698844e-08	-1.550937e-09	-2.637003e-01	-1.029247e+02
8.300000e-07	1.155905e-07	-1.398837e-09	8.240747e-01	-9.324929e+01
8.400000e-07	2.680900e-07	-1.239909e-09	1.911284e+00	-8.319222e+01
8.500000e-07	4.204787e-07	-1.078550e-09	2.997702e+00	-7.271386e+01
8.600000e-07	5.727594e-07	-9.127120e-10	4.083352e+00	-6.177313e+01
8.700000e-07	7.248960e-07	-7.403524e-10	5.167973e+00	-5.033230e+01
8.800000e-07	8.768924e-07	-5.625903e-10	6.251595e+00	-3.836246e+01
8.900000e-07	1.028650e-06	-3.760485e-10	7.333513e+00	-2.584922e+01
9.000000e-07	1.180099e-06	-1.812811e-10	8.413234e+00	-1.279784e+01
9.100000e-07	1.331135e-06	2.235482e-11	9.490012e+00	7.628354e-01
9.200000e-07	1.481628e-06	2.344408e-10	1.056291e+01	1.477820e+01
9.300000e-07	1.631588e-06	4.555720e-10	1.163202e+01	2.916782e+01
9.400000e-07	1.780983e-06	6.820579e-10	1.269709e+01	4.382775e+01
9.500000e-07	1.929780e-06	9.089723e-10	1.375791e+01	5.863505e+01
9.600000e-07	2.077898e-06	1.136435e-09	1.481388e+01	7.345417e+01
9.700000e-07	2.225250e-06	1.360757e-09	1.586439e+01	8.814466e+01
9.800000e-07	2.371757e-06	1.577614e-09	1.690887e+01	1.025694e+02
9.900000e-07	2.517330e-06	1.786726e-09	1.794670e+01	1.166027e+02
1.000000e-06	2.662007e-06	1.987048e-09	1.897815e+01	1.301371e+02
1.010000e-06	2.805712e-06	2.182782e-09	2.000266e+01	1.430887e+02
1.020000e-06	2.948259e-06	2.369823e-09	2.101891e+01	1.554004e+02
1.030000e-06	3.089614e-06	2.544212e-09	2.202667e+01	1.670425e+02
1.040000e-06	3.229774e-06	2.710196e-09	2.302590e+01	1.780108e+02
1.050000e-06	3.368643e-06	2.868208e-09	2.401594e+01	1.883238e+02
1.060000e-06	3.506123e-06	3.017129e-09	2.499607e+01	1.980165e+02
1.070000e-06	3.642320e-06	3.154768e-09	2.596705e+01	2.071357e+02
1.080000e-06	3.777199e-06	3.286299e-09	2.692864e+01	2.157330e+02
1.090000e-06	3.910637e-06	3.412689e-09	2.787996e+01	2.238601e+02
1.100000e-06	4.042729e-06	3.532580e-09	2.882167e+01	2.315641e+02
1.110000e-06	4.173392e-06	3.648881e-09	2.975320e+01	2.388849e+02
1.120000e-06	4.302489e-06	3.757086e-09	3.067357e+01	2.458540e+02
1.130000e-06	4.430017e-06	3.856513e-09	3.158275e+01	2.524948e+02
1.140000e-06	4.556023e-06	3.948709e-09	3.248108e+01	2.588237e+02
1.150000e-06	4.680525e-06	4.037066e-09	3.336868e+01	2.648531e+02
1.160000e-06	4.803445e-06	4.124217e-09	3.424502e+01	2.705932e+02
1.170000e-06	4.924666e-06	4.206120e-09	3.510923e+01	2.760549e+02
1.180000e-06	5.044102e-06	4.283807e-09	3.596072e+01	2.812510e+02
1.190000e-06	5.161674e-06	4.358309e-09	3.679893e+01	2.861975e+02
1.200000e-06	5.277265e-06	4.433828e-09	3.762301e+01	2.909132e+02
1.210000e-06	5.390793e-06	4.508283e-09	3.843237e+01	2.954187e+02
1.220000e-06	5.502308e-06	4.576993e-09	3.922739e+01	2.997345e+02
1.230000e-06	5.611899e-06	4.637599e-09	4.000870e+01	3.038797e+02
1.240000e-06	5.719541e-06	4.692885e-09	4.077610e+01	3.078692e+02
1.250000e-06	5.825058e-06	4.748461e-09	4.152836e+01	3.117131e+02
1.260000e-06	5.928401e-06	4.804084e-09	4.226512e+01	3.154152e+02
1.270000e-06	6.029595e-06	4.858248e-09	4.298656e+01	3.189739e+02
1.280000e-06	6.128542e-06	4.908068e-09	4.369198e+01	3.223828e+02
1.290000e-06	6.225187e-06	4.954347e-09	4.438099e+01	3.256325e+02
1.300000e-06	6.319589e-06	5.001260e-09	4.505401e+01	3.287129e+02
1.310000e-06	6.411787e-06	5.048191e-09	4.571131e+01	3.316161e+02
1.320000e-06	6.501675e-06	5.090750e-09	4.635214e+01	3.343374e+02
1.330000e-06	6.589195e-06	5.128351e-09	4.697609e+01	3.368778e+02
1.340000e-06	6.674428e-06	5.162361e-09	4.758375e+01	3.392443e+02
1.350000e-06	6.757354e-06	5.195426e-09	4.817494e+01	3.414494e+02
1.360000e-06	6.837781e-06	5.228245e-09	4.874833e+01	3.435104e+02
1.370000e-06	6.915646e-06	5.258865e-09	4.930345e+01	3.454471e+02
1.380000e-06	6.990937e-06	5.288463e-09	4.984022e+01	3.472797e+02
1.390000e-06	7.063576e-06	5.318230e-09	5.035808e+01	3.490262e+02
1.400000e-06	7.133706e-06	5.346381e-09	5.085805e+01	3.507007e+02
1.410000e-06	7.201385e-06	5.370948e-09	5.134056e+01	3.523116e+02
1.420000e-06	7.266384e-06	5.391985e-09	5.180395e+01	3.538616e+02
1.430000e-06	7.328819e-06	5.412060e-09	5.224907e+01	3.553472e+02
1.440000e-06	7.388909e-06	5.432118e-09	5.267746e+01	3.567606e+02
1.450000e-06	7.446414e-06	5.451806e-09	5.308744e+01	3.580917e+02
1.460000e-06	7.501104e-06	5.470776e-09	5.347733e+01	3.593296e+02
1.470000e-06	7.552842e-06	5.486976e-09	5.384619e+01	3.604657e+02
1.480000e-06	7.601530e-06	5.500908e-09	5.419330e+01	3.614950e+02
1.490000e-06	7.647443e-06	5.514651e-09	5.452062e+01	3.624177e+02
1.500000e-06	7.690741e-06	5.527836e-09	5.482931e+01	3.632392e+02
1.510000e-06	7.731229e-06	5.541382e-09	5.511796e+01	3.639700e+02
1.520000e-06	7.768943e-06	5.554086e-09	5.538682e+01	3.646240e+02
1.530000e-06	7.803955e-06	5.565004e-09	5.563644e+01	3.652166e+02
1.540000e-06	7.836171e-06	5.573519e-09	5.586611e+01	3.657622e+02
1.550000e-06	7.865619e-06	5.579577e-09	5.607606e+01	3.662725e+02
1.560000e-06	7.892220e-06	5.586199e-09	5.626570e+01	3.667545e+02
1.570000e-06	7.915887e-06	5.594296e-09	5.643443e+01	3.672094e+02
1.580000e-06	7.936809e-06	5.602535e-09	5.658359e+01	3.676324e+02
1.590000e-06	7.955007e-06	5.607818e-09	5.671333e+01	3.680138e+02
1.600000e-06	7.970249e-06	5.611055e-09	5.682199e+01	3.683406e+02
1.610000e-06	7.982391e-06	5.615384e-09	5.690856e+01	3.685986e+02
1.620000e-06	7.991406e-06	5.618993e-09	5.697283e+01	3.687747e+02
1.630000e-06	7.997461e-06	5.620504e-09	5.701599e+01	3.688596e+02
1.640000e-06	8.000682e-06	5.621803e-09	5.703896e+01	3.688495e+02
1.650000e-06	8.001039e-06	5.617498e-09	5.704150e+01	3.687469e+02
1.660000e-06	7.998705e-06	5.617466e-09	5.702486e+01	3.685611e+02
1.670000e-06	7.993724e-06	5.612857e-09	5.698935e+01	3.683068e+02
1.680000e-06	7.986022e-06	5.608766e-09	5.693444e+01	3.680024e+02
1.690000e-06	7.975740e-06	5.607209e-09	5.686114e+01	3.676677e+02
1.700000e-06	7.962670e-06	5.603256e-09	5.676796e+01	3.673211e+02
1.710000e-06	7.946827e-06	5.593581e-09	5.665501e+01	3.669767e+02
1.720000e-06	7.928623e-06	5.570820e-09	5.652523e+01	3.666426e+02
1.730000e-06	7.908094e-06	5.545083e-09	5.637887e+01	3.663191e+02
1.740000e-06	7.884775e-06	5.587882e-09	5.621263e+01	3.659989e+02
1.750000e-06	7.857919e-06	5.542688e-09	5.602116e+01	3.656674e+02
1.760000e-06	7.827413e-06	5.519933e-09	5.580368e+01	3.653044e+02
1.770000e-06	7.794014e-06	5.560440e-09	5.556556e+01	3.648867e+02
1.780000e-06	7.758268e-06	5.590059e-09	5.531072e+01	3.643907e+02
1.790000e-06	7.720195e-06	5.519295e-09	5.503929e+01	3.637956e+02
1.800000e-06	7.680027e-06	5.582194e-09	5.475292e+01	3.630851e+02
1.810000e-06	7.637696e-06	5.558841e-09	5.445114e+01	3.622499e+02
1.820000e-06	7.592720e-06	5.405744e-09	5.413048e+01	3.612880e+02
1.830000e-06	7.545057e-06	5.557062e-09	5.379069e+01	3.602050e+02
1.840000e-06	7.494523e-06	5.453602e-09	5.343042e+01	3.590125e+02
1.850000e-06	7.440994e-06	5.497069e-09	5.304879e+01	3.577270e+02
1.860000e-06	7.384710e-06	5.458785e-09	5.264753e+01	3.563668e+02
1.870000e-06	7.325770e-06	5.306826e-09	5.222733e+01	3.549504e+02
1.880000e-06	7.264149e-06	5.420526e-09	5.178802e+01	3.534935e+02
1.890000e-06	7.199677e-06	5.303709e-09	5.132838e+01	3.520077e+02
1.900000e-06	7.132435e-06	5.346342e-09	5.084899e+01	3.504995e+02
1.910000e-06	7.062416e-06	5.344827e-09	5.034981e+01	3.489697e+02
1.920000e-06	6.989603e-06	5.271845e-09	4.983071e+01	3.474137e+02
1.930000e-06	6.914140e-06	5.228786e-09	4.929271e+01	3.458234e+02
1.940000e-06	6.835955e-06	5.160776e-09	4.873531e+01	3.441877e+02
1.950000e-06	6.755157e-06	5.272168e-09	4.815928e+01	3.424950e+02
1.960000e-06	6.671901e-06	5.177173e-09	4.756573e+01	3.407341e+02
1.970000e-06	6.586187e-06	5.149199e-09	4.695465e+01	3.388961e+02
1.980000e-06	6.498017e-06	5.130400e-09	4.632606e+01	3.369747e+02
1.990000e-06	6.407565e-06	5.079203e-09	4.568121e+01	3.349666e+02
2.000000e-06	6.314916e-06	5.061124e-09	4.502069e+01	3.328715e+02
2.010000e-06	6.219946e-06	5.014022e-09	4.434362e+01	3.306911e+02
2.020000e-06	6.122770e-06	5.031195e-09	4.365083e+01	3.284283e+02
2.030000e-06	6.023398e-06	4.937732e-09	4.294238e+01	3.260864e+02
2.040000e-06	5.921827e-06	4.891204e-09	4.221825e+01	3.236679e+02
2.050000e-06	5.818094e-06	4.873204e-09	4.147872e+01	3.211742e+02
2.060000e-06	5.712365e-06	4.887545e-09	4.072494e+01	3.186049e+02
2.070000e-06	5.604781e-06	4.819686e-09	3.995795e+01	3.159583e+02
2.080000e-06	5.495250e-06	4.746135e-09	3.917708e+01	3.132313e+02
2.090000e-06	5.383722e-06	4.718488e-09	3.838196e+01	3.104203e+02
2.100000e-06	5.270190e-06	4.665152e-09	3.757257e+01	3.075214e+02
2.110000e-06	5.154641e-06	4.641671e-09	3.674878e+01	3.045313e+02
2.120000e-06	5.037017e-06	4.614119e-09	3.591021e+01	3.014472e+02
2.130000e-06	4.917428e-06	4.568794e-09	3.505763e+01	2.982672e+02
2.140000e-06	4.796031e-06	4.467451e-09	3.419216e+01	2.949900e+02
2.150000e-06	4.672931e-06	4.409853e-09	3.331455e+01	2.916146e+02
2.160000e-06	4.548115e-06	4.383911e-09	3.242470e+01	2.881398e+02
2.170000e-06	4.421594e-06	4.358188e-09	3.152270e+01	2.845636e+02
2.180000e-06	4.293470e-06	4.292845e-09	3.060927e+01	2.808830e+02
2.190000e-06	4.163811e-06	4.227158e-09	2.968490e+01	2.770941e+02
2.200000e-06	4.032616e-06	4.156826e-09	2.874958e+01	2.731918e+02
2.210000e-06	3.899923e-06	4.086623e-09	2.780357e+01	2.691702e+02
2.220000e-06	3.765718e-06	4.043796e-09	2.684679e+01	2.650239e+02
2.230000e-06	3.630066e-06	3.999937e-09	2.587969e+01	2.607475e+02
2.240000e-06	3.493060e-06	3.928110e-09	2.490294e+01	2.563371e+02
2.250000e-06	3.354709e-06	3.836079e-09	2.391660e+01	2.517903e+02
2.260000e-06	3.215143e-06	3.770980e-09	2.292160e+01	2.471062e+02
2.270000e-06	3.074283e-06	3.712724e-09	2.191737e+01	2.422852e+02
2.280000e-06	2.932140e-06	3.640454e-09	2.090399e+01	2.373280e+02
2.290000e-06	2.788935e-06	3.550963e-09	1.988305e+01	2.322352e+02
2.300000e-06	2.644683e-06	3.465114e-09	1.885464e+01	2.270057e+02
2.310000e-06	2.499452e-06	3.378285e-09	1.781925e+01	2.216357e+02
2.320000e-06	2.353440e-06	3.303605e-09	1.677829e+01	2.161184e+02
2.330000e-06	2.206668e-06	3.237316e-09	1.573192e+01	2.104430e+02
2.340000e-06	2.059118e-06	3.152423e-09	1.467999e+01	2.045956e+02
2.350000e-06	1.910896e-06	3.042654e-09	1.362328e+01	1.985592e+02
2.360000e-06	1.762176e-06	2.934081e-09	1.256301e+01	1.923154e+02
2.370000e-06	1.612901e-06	2.845850e-09	1.149879e+01	1.858458e+02
2.380000e-06	1.462998e-06	2.760425e-09	1.043010e+01	1.791335e+02
2.390000e-06	1.312587e-06	2.657607e-09	9.357774e+00	1.721643e+02
2.400000e-06	1.161753e-06	2.537956e-09	8.282441e+00	1.649279e+02
2.410000e-06	1.010547e-06	2.411974e-09	7.204453e+00	1.574176e+02
2.420000e-06	8.590104e-07	2.288987e-09	6.124110e+00	1.496298e+02
2.430000e-06	7.071902e-07	2.177355e-09	5.041744e+00	1.415629e+02
2.440000e-06	5.550934e-07	2.065104e-09	3.957406e+00	1.332144e+02
2.450000e-06	4.027635e-07	1.936979e-09	2.871406e+00	1.245793e+02
2.460000e-06	2.502323e-07	1.794392e-09	1.783972e+00	1.156472e+02
2.470000e-06	9.755732e-08	1.649273e-09	6.955117e-01	1.064007e+02
2.480000e-06	-5.510909e-08	1.505261e-09	-3.928871e-01	9.681466e+01
2.490000e-06	-2.077205e-07	1.355130e-09	-1.480893e+00	8.685614e+01
2.500000e-06	-3.602938e-07	1.195012e-09	-2.568629e+00	7.648652e+01
2.510000e-06	-5.128272e-07	1.026189e-09	-3.656079e+00	6.566470e+01
2.520000e-06	-6.652241e-07	8.528755e-10	-4.742556e+00	5.435160e+01
2.530000e-06	-8.173757e-07	6.772163e-10	-5.827286e+00	4.251557e+01
2.540000e-06	-9.692385e-07	4.988260e-10	-6.909955e+00	3.013809e+01
2.550000e-06	-1.120716e-06	3.072937e-10	-7.989875e+00	1.721908e+01
2.560000e-06	-1.271799e-06	9.686026e-11	-9.066991e+00	3.781181e+00
2.570000e-06	-1.422433e-06	-1.218306e-10	-1.014090e+01	-1.012751e+01
2.580000e-06	-1.572498e-06	-3.419635e-10	-1.121075e+01	-2.443290e+01
2.590000e-06	-1.721910e-06	-5.649592e-10	-1.227594e+01	-3.903658e+01
2.600000e-06	-1.870640e-06	-7.941346e-10	-1.333628e+01	-5.381982e+01
2.610000e-06	-2.018788e-06	-1.025090e-09	-1.439247e+01	-6.864955e+01
2.620000e-06	-2.166226e-06	-1.254945e-09	-1.544360e+01	-8.338576e+01
2.630000e-06	-2.312779e-06	-1.479106e-09	-1.648841e+01	-9.788976e+01
2.640000e-06	-2.458459e-06	-1.694746e-09	-1.752700e+01	-1.120323e+02
2.650000e-06	-2.603230e-06	-1.902818e-09	-1.855911e+01	-1.257007e+02
2.660000e-06	-2.747019e-06	-2.102560e-09	-1.958422e+01	-1.388049e+02
2.670000e-06	-2.889673e-06	-2.294513e-09	-2.060123e+01	-1.512808e+02
2.680000e-06	-3.031085e-06	-2.473824e-09	-2.160940e+01	-1.630921e+02
2.690000e-06	-3.171320e-06	-2.641571e-09	-2.260917e+01	-1.742284e+02
2.700000e-06	-3.310364e-06	-2.799669e-09	-2.360045e+01	-1.847029e+02
2.710000e-06	-3.448165e-06	-2.947234e-09	-2.458287e+01	-1.945471e+02
2.720000e-06	-3.584715e-06	-3.089163e-09	-2.555637e+01	-2.038054e+02
2.730000e-06	-3.719958e-06	-3.226331e-09	-2.652055e+01	-2.125287e+02
2.740000e-06	-3.853770e-06	-3.356195e-09	-2.747454e+01	-2.207691e+02
2.750000e-06	-3.986224e-06	-3.475787e-09	-2.841884e+01	-2.285752e+02
2.760000e-06	-4.117315e-06	-3.589130e-09	-2.935341e+01	-2.359890e+02
2.770000e-06	-4.246943e-06	-3.699635e-09	-3.027757e+01	-2.430440e+02
2.780000e-06	-4.375148e-06	-3.803858e-09	-3.119158e+01	-2.497655e+02
2.790000e-06	-4.501803e-06	-3.899206e-09	-3.209453e+01	-2.561716e+02
2.800000e-06	-4.626838e-06	-3.986905e-09	-3.298594e+01	-2.622753e+02
2.810000e-06	-4.750260e-06	-4.071593e-09	-3.386585e+01	-2.680873e+02
2.820000e-06	-4.872064e-06	-4.153715e-09	-3.473422e+01	-2.736179e+02
2.830000e-06	-4.992159e-06	-4.234442e-09	-3.559041e+01	-2.788795e+02
2.840000e-06	-5.110299e-06	-4.314238e-09	-3.643266e+01	-2.838872e+02
2.850000e-06	-5.226277e-06	-4.389400e-09	-3.725950e+01	-2.886591e+02
2.860000e-06	-5.340133e-06	-4.460016e-09	-3.807121e+01	-2.932156e+02
2.870000e-06	-5.451876e-06	-4.529708e-09	-3.886785e+01	-2.975774e+02
2.880000e-06	-5.561534e-06	-4.598336e-09	-3.964963e+01	-3.017641e+02
2.890000e-06	-5.669322e-06	-4.663027e-09	-4.041808e+01	-3.057918e+02
2.900000e-06	-5.775188e-06	-4.723850e-09	-4.117283e+01	-3.096719e+02
2.910000e-06	-5.878949e-06	-4.781450e-09	-4.191257e+01	-3.134099e+02
2.920000e-06	-5.980414e-06	-4.835724e-09	-4.263594e+01	-3.170054e+02
2.930000e-06	-6.079654e-06	-4.887704e-09	-4.334344e+01	-3.204530e+02
2.940000e-06	-6.176833e-06	-4.938217e-09	-4.403626e+01	-3.237438e+02
