# Temperatura_=_38.96
# Concentracion g/m^3_=_10000.0
# C_Vs_to_Am_M_A/Vsm_=_65563218390.804596
# pendiente_HvsI_1/m_=_3716.3
# ordenada_HvsI_A/m_=_1297.0
# frecuencia_Hz_=_302552.93481733196

Tiempo_(s)	Campo_(V.s)	Magnetizacion_(V.s)	Campo_(kA/m)	Magnetizacion_(A/m)
0.000000e+00	-7.932860e-06	-1.108256e-08	-5.684939e+01	-7.258967e+02
1.000000e-08	-7.929235e-06	-1.107939e-08	-5.682342e+01	-7.255580e+02
2.000000e-08	-7.923002e-06	-1.107329e-08	-5.677875e+01	-7.250952e+02
3.000000e-08	-7.914151e-06	-1.106900e-08	-5.671532e+01	-7.245219e+02
4.000000e-08	-7.902463e-06	-1.106468e-08	-5.663156e+01	-7.238550e+02
5.000000e-08	-7.887751e-06	-1.105730e-08	-5.652613e+01	-7.231128e+02
6.000000e-08	-7.870238e-06	-1.104879e-08	-5.640063e+01	-7.223134e+02
7.000000e-08	-7.850438e-06	-1.103991e-08	-5.625873e+01	-7.214727e+02
8.000000e-08	-7.828339e-06	-1.104175e-08	-5.610036e+01	-7.206029e+02
9.000000e-08	-7.803334e-06	-1.106477e-08	-5.592117e+01	-7.197113e+02
1.000000e-07	-7.775082e-06	-1.103429e-08	-5.571871e+01	-7.187995e+02
1.100000e-07	-7.743835e-06	-1.097841e-08	-5.549478e+01	-7.178638e+02
1.200000e-07	-7.709858e-06	-1.095337e-08	-5.525129e+01	-7.168949e+02
1.300000e-07	-7.673291e-06	-1.093036e-08	-5.498924e+01	-7.158797e+02
1.400000e-07	-7.634401e-06	-1.089278e-08	-5.471054e+01	-7.148016e+02
1.500000e-07	-7.593301e-06	-1.085173e-08	-5.441600e+01	-7.136422e+02
1.600000e-07	-7.549845e-06	-1.086788e-08	-5.410459e+01	-7.123825e+02
1.700000e-07	-7.503733e-06	-1.083873e-08	-5.377413e+01	-7.110041e+02
1.800000e-07	-7.454854e-06	-1.075816e-08	-5.342385e+01	-7.094901e+02
1.900000e-07	-7.403025e-06	-1.078951e-08	-5.305243e+01	-7.078262e+02
2.000000e-07	-7.348225e-06	-1.075703e-08	-5.265971e+01	-7.060009e+02
2.100000e-07	-7.290746e-06	-1.071884e-08	-5.224780e+01	-7.040060e+02
2.200000e-07	-7.230623e-06	-1.072604e-08	-5.181694e+01	-7.018371e+02
2.300000e-07	-7.167916e-06	-1.065119e-08	-5.136756e+01	-6.994929e+02
2.400000e-07	-7.102567e-06	-1.058078e-08	-5.089925e+01	-6.969758e+02
2.500000e-07	-7.034453e-06	-1.053183e-08	-5.041113e+01	-6.942911e+02
2.600000e-07	-6.963638e-06	-1.053024e-08	-4.990364e+01	-6.914465e+02
2.700000e-07	-6.890079e-06	-1.048963e-08	-4.937649e+01	-6.884519e+02
2.800000e-07	-6.813728e-06	-1.043119e-08	-4.882934e+01	-6.853177e+02
2.900000e-07	-6.734609e-06	-1.037249e-08	-4.826234e+01	-6.820546e+02
3.000000e-07	-6.652902e-06	-1.031480e-08	-4.767681e+01	-6.786724e+02
3.100000e-07	-6.568866e-06	-1.027548e-08	-4.707458e+01	-6.751785e+02
3.200000e-07	-6.482593e-06	-1.021514e-08	-4.645632e+01	-6.715777e+02
3.300000e-07	-6.394037e-06	-1.016813e-08	-4.582170e+01	-6.678709e+02
3.400000e-07	-6.303123e-06	-1.011648e-08	-4.517018e+01	-6.640552e+02
3.500000e-07	-6.209974e-06	-1.005531e-08	-4.450265e+01	-6.601239e+02
3.600000e-07	-6.114580e-06	-9.996715e-09	-4.381902e+01	-6.560670e+02
3.700000e-07	-6.016851e-06	-9.938058e-09	-4.311866e+01	-6.518723e+02
3.800000e-07	-5.916907e-06	-9.869506e-09	-4.240244e+01	-6.475264e+02
3.900000e-07	-5.814886e-06	-9.788128e-09	-4.167132e+01	-6.430166e+02
4.000000e-07	-5.710844e-06	-9.711534e-09	-4.092572e+01	-6.383318e+02
4.100000e-07	-5.604786e-06	-9.637725e-09	-4.016568e+01	-6.334643e+02
4.200000e-07	-5.496733e-06	-9.571619e-09	-3.939133e+01	-6.284097e+02
4.300000e-07	-5.386774e-06	-9.495636e-09	-3.860333e+01	-6.231677e+02
4.400000e-07	-5.274906e-06	-9.403481e-09	-3.780165e+01	-6.177416e+02
4.500000e-07	-5.160914e-06	-9.310947e-09	-3.698475e+01	-6.121368e+02
4.600000e-07	-5.044845e-06	-9.230675e-09	-3.615296e+01	-6.063598e+02
4.700000e-07	-4.926982e-06	-9.147031e-09	-3.530831e+01	-6.004161e+02
4.800000e-07	-4.807336e-06	-9.058581e-09	-3.445090e+01	-5.943084e+02
4.900000e-07	-4.685866e-06	-8.968172e-09	-3.358040e+01	-5.880355e+02
5.000000e-07	-4.562657e-06	-8.861183e-09	-3.269745e+01	-5.815909e+02
5.100000e-07	-4.437843e-06	-8.747218e-09	-3.180300e+01	-5.749628e+02
5.200000e-07	-4.311489e-06	-8.644041e-09	-3.089750e+01	-5.681347e+02
5.300000e-07	-4.183514e-06	-8.547971e-09	-2.998039e+01	-5.610867e+02
5.400000e-07	-4.054007e-06	-8.432577e-09	-2.905230e+01	-5.537971e+02
5.500000e-07	-3.922983e-06	-8.306371e-09	-2.811334e+01	-5.462450e+02
5.600000e-07	-3.790414e-06	-8.190944e-09	-2.716331e+01	-5.384124e+02
5.700000e-07	-3.656438e-06	-8.077259e-09	-2.620320e+01	-5.302856e+02
5.800000e-07	-3.521107e-06	-7.944236e-09	-2.523337e+01	-5.218564e+02
5.900000e-07	-3.384364e-06	-7.807125e-09	-2.425343e+01	-5.131227e+02
6.000000e-07	-3.246274e-06	-7.674838e-09	-2.326383e+01	-5.040868e+02
6.100000e-07	-3.106894e-06	-7.532578e-09	-2.226499e+01	-4.947543e+02
6.200000e-07	-2.966109e-06	-7.381974e-09	-2.125608e+01	-4.851314e+02
6.300000e-07	-2.824011e-06	-7.232644e-09	-2.023776e+01	-4.752218e+02
6.400000e-07	-2.680818e-06	-7.080394e-09	-1.921160e+01	-4.650245e+02
6.500000e-07	-2.536670e-06	-6.912275e-09	-1.817858e+01	-4.545314e+02
6.600000e-07	-2.391678e-06	-6.740167e-09	-1.713952e+01	-4.437261e+02
6.700000e-07	-2.245798e-06	-6.572382e-09	-1.609410e+01	-4.325838e+02
6.800000e-07	-2.099105e-06	-6.401420e-09	-1.504286e+01	-4.210732e+02
6.900000e-07	-1.951783e-06	-6.220739e-09	-1.398710e+01	-4.091581e+02
7.000000e-07	-1.803878e-06	-6.030377e-09	-1.292717e+01	-3.968016e+02
7.100000e-07	-1.655423e-06	-5.832604e-09	-1.186329e+01	-3.839690e+02
7.200000e-07	-1.506461e-06	-5.627623e-09	-1.079578e+01	-3.706317e+02
7.300000e-07	-1.357030e-06	-5.419602e-09	-9.724907e+00	-3.567696e+02
7.400000e-07	-1.207176e-06	-5.204274e-09	-8.651009e+00	-3.423719e+02
7.500000e-07	-1.056968e-06	-4.978026e-09	-7.574566e+00	-3.274368e+02
7.600000e-07	-9.063963e-07	-4.743048e-09	-6.495524e+00	-3.119689e+02
7.700000e-07	-7.554478e-07	-4.500651e-09	-5.413779e+00	-2.959748e+02
7.800000e-07	-6.042081e-07	-4.249411e-09	-4.329947e+00	-2.794583e+02
7.900000e-07	-4.528095e-07	-3.990020e-09	-3.244977e+00	-2.624141e+02
8.000000e-07	-3.012619e-07	-3.724469e-09	-2.158938e+00	-2.448226e+02
8.100000e-07	-1.495466e-07	-3.447470e-09	-1.071699e+00	-2.266461e+02
8.200000e-07	2.242159e-09	-3.154535e-09	1.606802e-02	-2.078264e+02
8.300000e-07	1.540752e-07	-2.850097e-09	1.104152e+00	-1.882867e+02
8.400000e-07	3.059295e-07	-2.537763e-09	2.192388e+00	-1.679350e+02
8.500000e-07	4.577079e-07	-2.211625e-09	3.280080e+00	-1.466723e+02
8.600000e-07	6.093321e-07	-1.870695e-09	4.366668e+00	-1.244017e+02
8.700000e-07	7.607958e-07	-1.517215e-09	5.452104e+00	-1.010410e+02
8.800000e-07	9.120482e-07	-1.149948e-09	6.536027e+00	-7.653468e+01
8.900000e-07	1.062998e-06	-7.635472e-10	7.617778e+00	-5.086585e+01
9.000000e-07	1.213524e-06	-3.562863e-10	8.696499e+00	-2.406553e+01
9.100000e-07	1.363592e-06	6.513314e-11	9.771934e+00	3.780907e+00
9.200000e-07	1.513240e-06	5.002786e-10	1.084436e+01	3.253184e+01
9.300000e-07	1.662370e-06	9.496718e-10	1.191307e+01	6.199217e+01
9.400000e-07	1.810877e-06	1.409279e-09	1.297732e+01	9.192095e+01
9.500000e-07	1.958688e-06	1.873965e-09	1.403658e+01	1.220432e+02
9.600000e-07	2.105815e-06	2.338145e-09	1.509094e+01	1.520648e+02
9.700000e-07	2.252228e-06	2.792011e-09	1.614018e+01	1.816898e+02
9.800000e-07	2.397792e-06	3.229609e-09	1.718334e+01	2.106377e+02
9.900000e-07	2.542448e-06	3.649745e-09	1.821999e+01	2.386589e+02
1.000000e-06	2.686152e-06	4.052260e-09	1.924982e+01	2.655486e+02
1.010000e-06	2.828816e-06	4.436363e-09	2.027220e+01	2.911558e+02
1.020000e-06	2.970426e-06	4.800992e-09	2.128702e+01	3.153874e+02
1.030000e-06	3.110763e-06	5.147690e-09	2.229272e+01	3.382086e+02
1.040000e-06	3.249724e-06	5.474442e-09	2.328855e+01	3.596372e+02
1.050000e-06	3.387458e-06	5.782407e-09	2.427560e+01	3.797352e+02
1.060000e-06	3.523889e-06	6.071426e-09	2.525331e+01	3.985968e+02
1.070000e-06	3.658929e-06	6.343101e-09	2.622104e+01	4.163360e+02
1.080000e-06	3.792722e-06	6.599523e-09	2.717985e+01	4.330732e+02
1.090000e-06	3.925224e-06	6.841917e-09	2.812940e+01	4.489244e+02
1.100000e-06	4.056281e-06	7.072809e-09	2.906860e+01	4.639917e+02
1.110000e-06	4.185944e-06	7.292594e-09	2.999781e+01	4.783573e+02
1.120000e-06	4.314135e-06	7.500794e-09	3.091646e+01	4.920817e+02
1.130000e-06	4.440763e-06	7.697498e-09	3.182392e+01	5.052036e+02
1.140000e-06	4.565932e-06	7.884970e-09	3.272092e+01	5.177435e+02
1.150000e-06	4.689564e-06	8.064213e-09	3.360691e+01	5.297092e+02
1.160000e-06	4.811535e-06	8.234762e-09	3.448099e+01	5.411014e+02
1.170000e-06	4.931727e-06	8.398802e-09	3.534232e+01	5.519201e+02
1.180000e-06	5.050062e-06	8.556448e-09	3.619035e+01	5.621696e+02
1.190000e-06	5.166532e-06	8.705569e-09	3.702501e+01	5.718621e+02
1.200000e-06	5.280983e-06	8.845058e-09	3.784520e+01	5.810194e+02
1.210000e-06	5.393400e-06	8.976541e-09	3.865082e+01	5.896724e+02
1.220000e-06	5.503864e-06	9.101309e-09	3.944244e+01	5.978598e+02
1.230000e-06	5.612440e-06	9.221081e-09	4.022053e+01	6.056243e+02
1.240000e-06	5.719021e-06	9.336609e-09	4.098432e+01	6.130092e+02
1.250000e-06	5.823387e-06	9.446551e-09	4.173224e+01	6.200547e+02
1.260000e-06	5.925629e-06	9.551866e-09	4.246494e+01	6.267948e+02
1.270000e-06	6.025745e-06	9.650282e-09	4.318240e+01	6.332553e+02
1.280000e-06	6.123528e-06	9.742128e-09	4.388314e+01	6.394533e+02
1.290000e-06	6.219007e-06	9.828628e-09	4.456738e+01	6.453973e+02
1.300000e-06	6.312276e-06	9.910700e-09	4.523577e+01	6.510895e+02
1.310000e-06	6.403341e-06	9.991906e-09	4.588837e+01	6.565276e+02
1.320000e-06	6.492122e-06	1.007154e-08	4.652461e+01	6.617082e+02
1.330000e-06	6.578589e-06	1.014667e-08	4.714426e+01	6.666291e+02
1.340000e-06	6.662771e-06	1.021598e-08	4.774753e+01	6.712914e+02
1.350000e-06	6.744607e-06	1.028113e-08	4.833400e+01	6.757006e+02
1.360000e-06	6.823922e-06	1.034518e-08	4.890239e+01	6.798670e+02
1.370000e-06	6.900712e-06	1.040826e-08	4.945270e+01	6.838046e+02
1.380000e-06	6.974897e-06	1.046813e-08	4.998433e+01	6.875300e+02
1.390000e-06	7.046440e-06	1.052251e-08	5.049702e+01	6.910601e+02
1.400000e-06	7.115549e-06	1.057262e-08	5.099228e+01	6.944102e+02
1.410000e-06	7.182168e-06	1.062084e-08	5.146970e+01	6.975922e+02
1.420000e-06	7.246196e-06	1.066711e-08	5.192854e+01	7.006135e+02
1.430000e-06	7.307763e-06	1.070967e-08	5.236975e+01	7.034764e+02
1.440000e-06	7.366873e-06	1.074841e-08	5.279335e+01	7.061787e+02
1.450000e-06	7.423330e-06	1.078327e-08	5.319794e+01	7.087149e+02
1.460000e-06	7.477010e-06	1.081574e-08	5.358263e+01	7.110779e+02
1.470000e-06	7.527605e-06	1.084759e-08	5.394521e+01	7.132610e+02
1.480000e-06	7.575135e-06	1.087812e-08	5.428582e+01	7.152597e+02
1.490000e-06	7.620047e-06	1.090608e-08	5.460768e+01	7.170735e+02
1.500000e-06	7.662323e-06	1.093102e-08	5.491064e+01	7.187063e+02
1.510000e-06	7.701771e-06	1.095356e-08	5.519334e+01	7.201670e+02
1.520000e-06	7.738587e-06	1.097440e-08	5.545717e+01	7.214685e+02
1.530000e-06	7.772736e-06	1.099460e-08	5.570189e+01	7.226262e+02
1.540000e-06	7.804009e-06	1.101266e-08	5.592601e+01	7.236566e+02
1.550000e-06	7.832560e-06	1.102778e-08	5.613061e+01	7.245750e+02
1.560000e-06	7.858261e-06	1.104042e-08	5.631479e+01	7.253938e+02
1.570000e-06	7.881017e-06	1.105135e-08	5.647787e+01	7.261211e+02
1.580000e-06	7.901130e-06	1.106144e-08	5.662200e+01	7.267596e+02
1.590000e-06	7.918433e-06	1.107023e-08	5.674601e+01	7.273073e+02
1.600000e-06	7.932717e-06	1.107721e-08	5.684837e+01	7.277575e+02
1.610000e-06	7.943922e-06	1.108292e-08	5.692867e+01	7.281009e+02
1.620000e-06	7.951998e-06	1.108703e-08	5.698654e+01	7.283268e+02
1.630000e-06	7.957228e-06	1.109047e-08	5.702402e+01	7.284255e+02
1.640000e-06	7.959667e-06	1.109295e-08	5.704150e+01	7.283900e+02
1.650000e-06	7.959299e-06	1.109200e-08	5.703886e+01	7.282176e+02
1.660000e-06	7.956341e-06	1.108333e-08	5.701767e+01	7.279108e+02
1.670000e-06	7.950743e-06	1.107512e-08	5.697755e+01	7.274772e+02
1.680000e-06	7.942427e-06	1.106770e-08	5.691795e+01	7.269293e+02
1.690000e-06	7.931473e-06	1.105829e-08	5.683946e+01	7.262834e+02
1.700000e-06	7.917709e-06	1.104983e-08	5.674082e+01	7.255575e+02
1.710000e-06	7.901262e-06	1.104107e-08	5.662295e+01	7.247701e+02
1.720000e-06	7.882527e-06	1.102470e-08	5.648869e+01	7.239377e+02
1.730000e-06	7.861353e-06	1.097475e-08	5.633695e+01	7.230736e+02
1.740000e-06	7.837230e-06	1.092225e-08	5.616408e+01	7.221864e+02
1.750000e-06	7.809683e-06	1.094638e-08	5.596667e+01	7.212790e+02
1.760000e-06	7.778628e-06	1.095279e-08	5.574412e+01	7.203492e+02
1.770000e-06	7.744725e-06	1.092624e-08	5.550116e+01	7.193890e+02
1.780000e-06	7.708544e-06	1.093088e-08	5.524188e+01	7.183861e+02
1.790000e-06	7.670097e-06	1.096140e-08	5.496635e+01	7.173247e+02
1.800000e-06	7.629569e-06	1.090615e-08	5.467591e+01	7.161866e+02
1.810000e-06	7.586836e-06	1.089158e-08	5.436967e+01	7.149530e+02
1.820000e-06	7.541493e-06	1.094739e-08	5.404474e+01	7.136052e+02
1.830000e-06	7.493473e-06	1.088479e-08	5.370061e+01	7.121259e+02
1.840000e-06	7.442499e-06	1.090209e-08	5.333531e+01	7.104999e+02
1.850000e-06	7.388540e-06	1.083210e-08	5.294862e+01	7.087151e+02
1.860000e-06	7.331897e-06	1.075374e-08	5.254271e+01	7.067625e+02
1.870000e-06	7.272593e-06	1.075620e-08	5.211771e+01	7.046366e+02
1.880000e-06	7.210592e-06	1.071624e-08	5.167339e+01	7.023354e+02
1.890000e-06	7.145821e-06	1.074764e-08	5.120922e+01	6.998604e+02
1.900000e-06	7.078360e-06	1.067076e-08	5.072577e+01	6.972162e+02
1.910000e-06	7.008176e-06	1.059706e-08	5.022281e+01	6.944101e+02
1.920000e-06	6.935192e-06	1.055008e-08	4.969979e+01	6.914512e+02
1.930000e-06	6.859518e-06	1.049847e-08	4.915748e+01	6.883502e+02
1.940000e-06	6.781021e-06	1.049980e-08	4.859495e+01	6.851176e+02
1.950000e-06	6.699918e-06	1.044211e-08	4.801374e+01	6.817637e+02
1.960000e-06	6.616439e-06	1.040141e-08	4.741550e+01	6.782964e+02
1.970000e-06	6.530549e-06	1.031687e-08	4.679999e+01	6.747214e+02
1.980000e-06	6.442198e-06	1.023474e-08	4.616684e+01	6.710405e+02
1.990000e-06	6.351522e-06	1.018889e-08	4.551702e+01	6.672518e+02
2.000000e-06	6.258705e-06	1.013825e-08	4.485187e+01	6.633495e+02
2.010000e-06	6.163561e-06	1.008934e-08	4.417004e+01	6.593243e+02
2.020000e-06	6.066187e-06	1.000865e-08	4.347222e+01	6.551645e+02
2.030000e-06	5.966739e-06	9.941678e-09	4.275954e+01	6.508569e+02
2.040000e-06	5.865166e-06	9.867073e-09	4.203164e+01	6.463885e+02
2.050000e-06	5.761415e-06	9.804459e-09	4.128813e+01	6.417476e+02
2.060000e-06	5.655671e-06	9.726395e-09	4.053033e+01	6.369256e+02
2.070000e-06	5.548082e-06	9.643093e-09	3.975932e+01	6.319172e+02
2.080000e-06	5.438552e-06	9.570206e-09	3.897439e+01	6.267212e+02
2.090000e-06	5.327035e-06	9.494211e-09	3.817522e+01	6.213400e+02
2.100000e-06	5.213516e-06	9.416586e-09	3.736171e+01	6.157785e+02
2.110000e-06	5.098007e-06	9.335688e-09	3.653393e+01	6.100433e+02
2.120000e-06	4.980477e-06	9.240834e-09	3.569168e+01	6.041401e+02
2.130000e-06	4.861022e-06	9.123506e-09	3.483563e+01	5.980726e+02
2.140000e-06	4.739764e-06	9.025333e-09	3.396666e+01	5.918407e+02
2.150000e-06	4.616814e-06	8.943553e-09	3.308556e+01	5.854392e+02
2.160000e-06	4.492195e-06	8.857794e-09	3.219250e+01	5.788576e+02
2.170000e-06	4.365955e-06	8.748091e-09	3.128782e+01	5.720806e+02
2.180000e-06	4.238072e-06	8.634623e-09	3.037137e+01	5.650887e+02
2.190000e-06	4.108620e-06	8.521896e-09	2.944368e+01	5.578608e+02
2.200000e-06	3.977716e-06	8.402803e-09	2.850557e+01	5.503756e+02
2.210000e-06	3.845259e-06	8.287063e-09	2.755635e+01	5.426138e+02
2.220000e-06	3.711373e-06	8.174136e-09	2.659688e+01	5.345608e+02
2.230000e-06	3.576074e-06	8.045204e-09	2.562728e+01	5.262069e+02
2.240000e-06	3.439400e-06	7.900556e-09	2.464783e+01	5.175485e+02
2.250000e-06	3.301483e-06	7.764370e-09	2.365947e+01	5.085870e+02
2.260000e-06	3.162357e-06	7.635424e-09	2.266246e+01	4.993274e+02
2.270000e-06	3.021956e-06	7.497134e-09	2.165630e+01	4.897758e+02
2.280000e-06	2.880293e-06	7.342863e-09	2.064109e+01	4.799370e+02
2.290000e-06	2.737555e-06	7.189204e-09	1.961819e+01	4.698114e+02
2.300000e-06	2.593823e-06	7.034462e-09	1.858816e+01	4.593927e+02
2.310000e-06	2.449154e-06	6.872209e-09	1.755142e+01	4.486667e+02
2.320000e-06	2.303681e-06	6.703935e-09	1.650891e+01	4.376107e+02
2.330000e-06	2.157425e-06	6.525013e-09	1.546079e+01	4.261947e+02
2.340000e-06	2.010389e-06	6.334973e-09	1.440709e+01	4.143835e+02
2.350000e-06	1.862681e-06	6.139910e-09	1.334856e+01	4.021400e+02
2.360000e-06	1.714410e-06	5.949590e-09	1.228601e+01	3.894286e+02
2.370000e-06	1.565636e-06	5.757447e-09	1.121984e+01	3.762191e+02
2.380000e-06	1.416307e-06	5.552263e-09	1.014970e+01	3.624888e+02
2.390000e-06	1.266459e-06	5.333381e-09	9.075845e+00	3.482248e+02
2.400000e-06	1.116172e-06	5.102348e-09	7.998840e+00	3.334231e+02
2.410000e-06	9.655916e-07	4.867048e-09	6.919736e+00	3.180870e+02
2.420000e-06	8.147991e-07	4.630626e-09	5.839109e+00	3.022232e+02
2.430000e-06	6.637441e-07	4.385389e-09	4.756601e+00	2.858366e+02
2.440000e-06	5.124803e-07	4.125320e-09	3.672597e+00	2.689248e+02
2.450000e-06	3.610528e-07	3.854535e-09	2.587419e+00	2.514722e+02
2.460000e-06	2.094352e-07	3.578138e-09	1.500879e+00	2.334458e+02
2.470000e-06	5.764582e-08	3.294831e-09	4.131082e-01	2.147927e+02
2.480000e-06	-9.421307e-08	3.000445e-09	-6.751607e-01	1.954404e+02
2.490000e-06	-2.460521e-07	2.691277e-09	-1.763288e+00	1.753002e+02
2.500000e-06	-3.977881e-07	2.365715e-09	-2.850676e+00	1.542738e+02
2.510000e-06	-5.493414e-07	2.025857e-09	-3.936755e+00	1.322629e+02
2.520000e-06	-7.006662e-07	1.674620e-09	-5.021196e+00	1.091805e+02
2.530000e-06	-8.518449e-07	1.310650e-09	-6.104591e+00	8.496317e+01
2.540000e-06	-1.002848e-06	9.279013e-10	-7.186731e+00	5.958335e+01
2.550000e-06	-1.153519e-06	5.253091e-10	-8.266483e+00	3.305936e+01
2.560000e-06	-1.303827e-06	1.077139e-10	-9.343639e+00	5.462641e+00
2.570000e-06	-1.453679e-06	-3.227508e-10	-1.041753e+01	-2.307919e+01
2.580000e-06	-1.602928e-06	-7.673589e-10	-1.148709e+01	-5.238387e+01
2.590000e-06	-1.751554e-06	-1.226221e-09	-1.255219e+01	-8.222096e+01
2.600000e-06	-1.899555e-06	-1.693091e-09	-1.361281e+01	-1.123226e+02
2.610000e-06	-2.046824e-06	-2.162257e-09	-1.466819e+01	-1.423981e+02
2.620000e-06	-2.193269e-06	-2.626205e-09	-1.571766e+01	-1.721502e+02
2.630000e-06	-2.338924e-06	-3.075931e-09	-1.676147e+01	-2.012929e+02
2.640000e-06	-2.483749e-06	-3.506331e-09	-1.779933e+01	-2.295677e+02
2.650000e-06	-2.627554e-06	-3.918382e-09	-1.882988e+01	-2.567574e+02
2.660000e-06	-2.770308e-06	-4.311113e-09	-1.985291e+01	-2.826969e+02
2.670000e-06	-2.912005e-06	-4.681618e-09	-2.086835e+01	-3.072787e+02
2.680000e-06	-3.052502e-06	-5.028555e-09	-2.187520e+01	-3.304535e+02
2.690000e-06	-3.191742e-06	-5.356946e-09	-2.287304e+01	-3.522267e+02
2.700000e-06	-3.329767e-06	-5.671966e-09	-2.386217e+01	-3.726502e+02
2.710000e-06	-3.466543e-06	-5.970006e-09	-2.484235e+01	-3.918115e+02
2.720000e-06	-3.601995e-06	-6.249270e-09	-2.581304e+01	-4.098208e+02
2.730000e-06	-3.736171e-06	-6.510907e-09	-2.677459e+01	-4.267980e+02
2.740000e-06	-3.869038e-06	-6.759121e-09	-2.772676e+01	-4.428612e+02
2.750000e-06	-4.000492e-06	-6.996433e-09	-2.866880e+01	-4.581166e+02
2.760000e-06	-4.130549e-06	-7.222900e-09	-2.960083e+01	-4.726519e+02
2.770000e-06	-4.259194e-06	-7.437134e-09	-3.052274e+01	-4.865329e+02
2.780000e-06	-4.386325e-06	-7.638337e-09	-3.143380e+01	-4.998036e+02
2.790000e-06	-4.511975e-06	-7.828973e-09	-3.233425e+01	-5.124886e+02
2.800000e-06	-4.636101e-06	-8.010607e-09	-3.322377e+01	-5.245983e+02
2.810000e-06	-4.758580e-06	-8.185117e-09	-3.410149e+01	-5.361346e+02
2.820000e-06	-4.879371e-06	-8.352115e-09	-3.496712e+01	-5.470973e+02
2.830000e-06	-4.998325e-06	-8.508836e-09	-3.581958e+01	-5.574890e+02
2.840000e-06	-5.115311e-06	-8.658307e-09	-3.665794e+01	-5.673199e+02
2.850000e-06	-5.230190e-06	-8.802293e-09	-3.748120e+01	-5.766091e+02
2.860000e-06	-5.342882e-06	-8.941165e-09	-3.828879e+01	-5.853856e+02
2.870000e-06	-5.453461e-06	-9.070581e-09	-3.908123e+01	-5.936862e+02
2.880000e-06	-5.562101e-06	-9.190317e-09	-3.985978e+01	-6.015531e+02
2.890000e-06	-5.668908e-06	-9.305530e-09	-4.062520e+01	-6.090296e+02
2.900000e-06	-5.773739e-06	-9.415993e-09	-4.137645e+01	-6.161572e+02
2.910000e-06	-5.876427e-06	-9.520485e-09	-4.211234e+01	-6.229716e+02
2.920000e-06	-5.976883e-06	-9.619007e-09	-4.283224e+01	-6.295008e+02
2.930000e-06	-6.075174e-06	-9.714544e-09	-4.353663e+01	-6.357641e+02
2.940000e-06	-6.171303e-06	-9.807322e-09	-4.422552e+01	-6.417719e+02
