# Temperatura_=_39.2
# Concentracion g/m^3_=_10000.0
# C_Vs_to_Am_M_A/Vsm_=_65563218390.804596
# pendiente_HvsI_1/m_=_3716.3
# ordenada_HvsI_A/m_=_1297.0
# frecuencia_Hz_=_302553.3117806524

Tiempo_(s)	Campo_(V.s)	Magnetizacion_(V.s)	Campo_(kA/m)	Magnetizacion_(A/m)
0.000000e+00	-7.952302e-06	-1.115008e-08	-5.684540e+01	-7.311893e+02
1.000000e-08	-7.948766e-06	-1.115208e-08	-5.682012e+01	-7.308431e+02
2.000000e-08	-7.942639e-06	-1.114492e-08	-5.677632e+01	-7.303799e+02
3.000000e-08	-7.933803e-06	-1.113776e-08	-5.671316e+01	-7.298137e+02
4.000000e-08	-7.922101e-06	-1.113107e-08	-5.662951e+01	-7.291595e+02
5.000000e-08	-7.907474e-06	-1.112025e-08	-5.652495e+01	-7.284320e+02
6.000000e-08	-7.890050e-06	-1.110745e-08	-5.640040e+01	-7.276436e+02
7.000000e-08	-7.870296e-06	-1.109576e-08	-5.625919e+01	-7.268031e+02
8.000000e-08	-7.848260e-06	-1.109349e-08	-5.610167e+01	-7.259153e+02
9.000000e-08	-7.823326e-06	-1.114175e-08	-5.592344e+01	-7.249807e+02
1.000000e-07	-7.795102e-06	-1.111084e-08	-5.572168e+01	-7.239957e+02
1.100000e-07	-7.763885e-06	-1.103866e-08	-5.549853e+01	-7.229536e+02
1.200000e-07	-7.729925e-06	-1.101475e-08	-5.525578e+01	-7.218451e+02
1.300000e-07	-7.693332e-06	-1.099199e-08	-5.499420e+01	-7.206601e+02
1.400000e-07	-7.654424e-06	-1.095144e-08	-5.471607e+01	-7.193882e+02
1.500000e-07	-7.613287e-06	-1.088677e-08	-5.442201e+01	-7.180193e+02
1.600000e-07	-7.569806e-06	-1.092766e-08	-5.411121e+01	-7.165447e+02
1.700000e-07	-7.523721e-06	-1.091669e-08	-5.378177e+01	-7.149564e+02
1.800000e-07	-7.474811e-06	-1.080401e-08	-5.343215e+01	-7.132479e+02
1.900000e-07	-7.422932e-06	-1.087659e-08	-5.306130e+01	-7.114131e+02
2.000000e-07	-7.368161e-06	-1.082679e-08	-5.266979e+01	-7.094468e+02
2.100000e-07	-7.310706e-06	-1.075472e-08	-5.225908e+01	-7.073441e+02
2.200000e-07	-7.250578e-06	-1.076589e-08	-5.182927e+01	-7.051004e+02
2.300000e-07	-7.187891e-06	-1.068632e-08	-5.138117e+01	-7.027118e+02
2.400000e-07	-7.122518e-06	-1.065686e-08	-5.091386e+01	-7.001753e+02
2.500000e-07	-7.054380e-06	-1.059201e-08	-5.042679e+01	-6.974894e+02
2.600000e-07	-6.983600e-06	-1.058782e-08	-4.992083e+01	-6.946545e+02
2.700000e-07	-6.910007e-06	-1.054172e-08	-4.939476e+01	-6.916727e+02
2.800000e-07	-6.833588e-06	-1.047731e-08	-4.884850e+01	-6.885484e+02
2.900000e-07	-6.754420e-06	-1.042120e-08	-4.828258e+01	-6.852878e+02
3.000000e-07	-6.672634e-06	-1.037750e-08	-4.769796e+01	-6.818976e+02
3.100000e-07	-6.588542e-06	-1.035932e-08	-4.709684e+01	-6.783849e+02
3.200000e-07	-6.502242e-06	-1.026945e-08	-4.647994e+01	-6.747554e+02
3.300000e-07	-6.413611e-06	-1.022035e-08	-4.584638e+01	-6.710125e+02
3.400000e-07	-6.322646e-06	-1.017761e-08	-4.519614e+01	-6.671564e+02
3.500000e-07	-6.229423e-06	-1.011062e-08	-4.452975e+01	-6.631836e+02
3.600000e-07	-6.133855e-06	-1.003911e-08	-4.384660e+01	-6.590869e+02
3.700000e-07	-6.036001e-06	-9.981588e-09	-4.314711e+01	-6.548558e+02
3.800000e-07	-5.935984e-06	-9.926708e-09	-4.243216e+01	-6.504777e+02
3.900000e-07	-5.833838e-06	-9.844527e-09	-4.170199e+01	-6.459395e+02
4.000000e-07	-5.729547e-06	-9.772293e-09	-4.095649e+01	-6.412287e+02
4.100000e-07	-5.623252e-06	-9.700857e-09	-4.019666e+01	-6.363353e+02
4.200000e-07	-5.515002e-06	-9.630965e-09	-3.942286e+01	-6.312530e+02
4.300000e-07	-5.404778e-06	-9.537850e-09	-3.863495e+01	-6.259795e+02
4.400000e-07	-5.292603e-06	-9.447700e-09	-3.783308e+01	-6.205166e+02
4.500000e-07	-5.178375e-06	-9.371587e-09	-3.701655e+01	-6.148693e+02
4.600000e-07	-5.062108e-06	-9.293095e-09	-3.618544e+01	-6.090445e+02
4.700000e-07	-4.944000e-06	-9.196170e-09	-3.534117e+01	-6.030489e+02
4.800000e-07	-4.824103e-06	-9.100581e-09	-3.448411e+01	-5.968872e+02
4.900000e-07	-4.702387e-06	-9.010278e-09	-3.361405e+01	-5.905601e+02
5.000000e-07	-4.578946e-06	-8.903118e-09	-3.273165e+01	-5.840631e+02
5.100000e-07	-4.453905e-06	-8.793895e-09	-3.183783e+01	-5.773858e+02
5.200000e-07	-4.327317e-06	-8.692906e-09	-3.093293e+01	-5.705124e+02
5.300000e-07	-4.199071e-06	-8.596396e-09	-3.001620e+01	-5.634226e+02
5.400000e-07	-4.069310e-06	-8.475918e-09	-2.908863e+01	-5.560936e+02
5.500000e-07	-3.938043e-06	-8.350946e-09	-2.815029e+01	-5.485026e+02
5.600000e-07	-3.805217e-06	-8.235242e-09	-2.720081e+01	-5.406293e+02
5.700000e-07	-3.670989e-06	-8.117814e-09	-2.624131e+01	-5.324575e+02
5.800000e-07	-3.535342e-06	-7.982538e-09	-2.527167e+01	-5.239772e+02
5.900000e-07	-3.398276e-06	-7.847041e-09	-2.429188e+01	-5.151847e+02
6.000000e-07	-3.259938e-06	-7.716891e-09	-2.330300e+01	-5.060821e+02
6.100000e-07	-3.120357e-06	-7.573626e-09	-2.230523e+01	-4.966753e+02
6.200000e-07	-2.979316e-06	-7.421697e-09	-2.129703e+01	-4.869721e+02
6.300000e-07	-2.836950e-06	-7.267024e-09	-2.027935e+01	-4.769783e+02
6.400000e-07	-2.693551e-06	-7.111309e-09	-1.925429e+01	-4.666955e+02
6.500000e-07	-2.549092e-06	-6.945347e-09	-1.822166e+01	-4.561181e+02
6.600000e-07	-2.403737e-06	-6.778152e-09	-1.718262e+01	-4.452320e+02
6.700000e-07	-2.257614e-06	-6.609920e-09	-1.613809e+01	-4.340142e+02
6.800000e-07	-2.110701e-06	-6.433847e-09	-1.508791e+01	-4.224340e+02
6.900000e-07	-1.963084e-06	-6.250150e-09	-1.403270e+01	-4.104554e+02
7.000000e-07	-1.814853e-06	-6.058874e-09	-1.297311e+01	-3.980405e+02
7.100000e-07	-1.666098e-06	-5.860466e-09	-1.190976e+01	-3.851532e+02
7.200000e-07	-1.516884e-06	-5.653571e-09	-1.084313e+01	-3.717631e+02
7.300000e-07	-1.367223e-06	-5.443509e-09	-9.773314e+00	-3.578481e+02
7.400000e-07	-1.217075e-06	-5.224740e-09	-8.700013e+00	-3.433960e+02
7.500000e-07	-1.066452e-06	-4.997945e-09	-7.623314e+00	-3.284035e+02
7.600000e-07	-9.154313e-07	-4.764759e-09	-6.543772e+00	-3.128745e+02
7.700000e-07	-7.640516e-07	-4.523694e-09	-5.461666e+00	-2.968157e+02
7.800000e-07	-6.123358e-07	-4.271068e-09	-4.377157e+00	-2.802306e+02
7.900000e-07	-4.604023e-07	-4.008741e-09	-3.291091e+00	-2.631145e+02
8.000000e-07	-3.082736e-07	-3.743054e-09	-2.203631e+00	-2.454478e+02
8.100000e-07	-1.560068e-07	-3.464669e-09	-1.115183e+00	-2.271926e+02
8.200000e-07	-3.673268e-09	-3.169802e-09	-2.625760e-02	-2.082904e+02
8.300000e-07	1.487201e-07	-2.862445e-09	1.063095e+00	-1.886629e+02
8.400000e-07	3.010911e-07	-2.546713e-09	2.152288e+00	-1.682166e+02
8.500000e-07	4.533790e-07	-2.218343e-09	3.240886e+00	-1.468503e+02
8.600000e-07	6.055118e-07	-1.875419e-09	4.328376e+00	-1.244653e+02
8.700000e-07	7.574341e-07	-1.520223e-09	5.414362e+00	-1.009775e+02
8.800000e-07	9.090786e-07	-1.150756e-09	6.498362e+00	-7.633034e+01
8.900000e-07	1.060426e-06	-7.620533e-10	7.580237e+00	-5.050677e+01
9.000000e-07	1.211386e-06	-3.530442e-10	8.659344e+00	-2.353879e+01
9.100000e-07	1.361862e-06	7.074540e-11	9.734990e+00	4.486117e+00
9.200000e-07	1.511816e-06	5.096354e-10	1.080691e+01	3.342319e+01
9.300000e-07	1.661186e-06	9.638618e-10	1.187464e+01	6.307346e+01
9.400000e-07	1.809963e-06	1.427580e-09	1.293815e+01	9.319171e+01
9.500000e-07	1.958195e-06	1.892674e-09	1.399775e+01	1.234987e+02
9.600000e-07	2.105777e-06	2.357427e-09	1.505272e+01	1.536970e+02
9.700000e-07	2.252540e-06	2.813769e-09	1.610182e+01	1.834877e+02
9.800000e-07	2.398453e-06	3.253921e-09	1.714485e+01	2.125889e+02
9.900000e-07	2.543541e-06	3.676996e-09	1.818198e+01	2.407508e+02
1.000000e-06	2.687686e-06	4.080885e-09	1.921237e+01	2.677697e+02
1.010000e-06	2.830767e-06	4.466368e-09	2.023516e+01	2.934964e+02
1.020000e-06	2.972726e-06	4.833217e-09	2.124992e+01	3.178407e+02
1.030000e-06	3.113474e-06	5.183060e-09	2.225603e+01	3.407703e+02
1.040000e-06	3.252951e-06	5.512110e-09	2.325305e+01	3.623056e+02
1.050000e-06	3.391083e-06	5.820157e-09	2.424046e+01	3.825103e+02
1.060000e-06	3.527825e-06	6.109339e-09	2.521793e+01	4.014798e+02
1.070000e-06	3.663195e-06	6.383445e-09	2.618560e+01	4.193278e+02
1.080000e-06	3.797283e-06	6.642933e-09	2.714410e+01	4.361741e+02
1.090000e-06	3.930101e-06	6.886082e-09	2.809352e+01	4.521329e+02
1.100000e-06	4.061528e-06	7.118855e-09	2.903300e+01	4.673044e+02
1.110000e-06	4.191435e-06	7.341238e-09	2.996161e+01	4.817693e+02
1.120000e-06	4.319831e-06	7.551811e-09	3.087942e+01	4.955865e+02
1.130000e-06	4.446741e-06	7.750054e-09	3.178662e+01	5.087942e+02
1.140000e-06	4.572128e-06	7.938309e-09	3.268292e+01	5.214134e+02
1.150000e-06	4.696040e-06	8.118539e-09	3.356868e+01	5.334530e+02
1.160000e-06	4.818373e-06	8.290045e-09	3.444315e+01	5.449157e+02
1.170000e-06	4.938889e-06	8.453572e-09	3.530463e+01	5.558038e+02
1.180000e-06	5.057533e-06	8.610170e-09	3.615274e+01	5.661239e+02
1.190000e-06	5.174362e-06	8.760224e-09	3.698786e+01	5.758901e+02
1.200000e-06	5.289266e-06	8.902508e-09	3.780923e+01	5.851250e+02
1.210000e-06	5.402043e-06	9.038058e-09	3.861539e+01	5.938597e+02
1.220000e-06	5.512794e-06	9.168088e-09	3.940708e+01	6.021314e+02
1.230000e-06	5.621682e-06	9.292059e-09	4.018544e+01	6.099807e+02
1.240000e-06	5.728625e-06	9.408364e-09	4.094990e+01	6.174478e+02
1.250000e-06	5.833446e-06	9.516310e-09	4.169919e+01	6.245697e+02
1.260000e-06	5.936070e-06	9.618438e-09	4.243277e+01	6.313774e+02
1.270000e-06	6.036521e-06	9.715479e-09	4.315083e+01	6.378945e+02
1.280000e-06	6.134687e-06	9.808025e-09	4.385255e+01	6.441367e+02
1.290000e-06	6.230505e-06	9.896448e-09	4.453748e+01	6.501131e+02
1.300000e-06	6.324120e-06	9.981411e-09	4.520667e+01	6.558275e+02
1.310000e-06	6.415551e-06	1.006443e-08	4.586025e+01	6.612812e+02
1.320000e-06	6.504622e-06	1.014448e-08	4.649695e+01	6.664747e+02
1.330000e-06	6.591333e-06	1.021975e-08	4.711679e+01	6.714104e+02
1.340000e-06	6.675800e-06	1.029064e-08	4.772059e+01	6.760937e+02
1.350000e-06	6.757891e-06	1.035687e-08	4.830740e+01	6.805334e+02
1.360000e-06	6.837436e-06	1.042048e-08	4.887601e+01	6.847417e+02
1.370000e-06	6.914523e-06	1.048363e-08	4.942705e+01	6.887330e+02
1.380000e-06	6.989042e-06	1.054346e-08	4.995973e+01	6.925220e+02
1.390000e-06	7.060900e-06	1.059784e-08	5.047339e+01	6.961223e+02
1.400000e-06	7.130244e-06	1.064876e-08	5.096908e+01	6.995445e+02
1.410000e-06	7.197082e-06	1.069821e-08	5.144686e+01	7.027952e+02
1.420000e-06	7.261309e-06	1.074593e-08	5.190597e+01	7.058764e+02
1.430000e-06	7.323030e-06	1.079059e-08	5.234718e+01	7.087861e+02
1.440000e-06	7.382361e-06	1.083171e-08	5.277129e+01	7.115188e+02
1.450000e-06	7.439066e-06	1.086931e-08	5.317663e+01	7.140680e+02
1.460000e-06	7.493037e-06	1.090273e-08	5.356243e+01	7.164273e+02
1.470000e-06	7.544034e-06	1.093253e-08	5.392698e+01	7.185929e+02
1.480000e-06	7.591958e-06	1.096073e-08	5.426955e+01	7.205645e+02
1.490000e-06	7.637136e-06	1.098807e-08	5.459250e+01	7.223467e+02
1.500000e-06	7.679653e-06	1.101327e-08	5.489642e+01	7.239492e+02
1.510000e-06	7.719414e-06	1.103640e-08	5.518064e+01	7.253856e+02
1.520000e-06	7.756473e-06	1.105768e-08	5.544556e+01	7.266725e+02
1.530000e-06	7.790828e-06	1.107792e-08	5.569113e+01	7.278274e+02
1.540000e-06	7.822324e-06	1.109696e-08	5.591628e+01	7.288670e+02
1.550000e-06	7.851071e-06	1.111271e-08	5.612177e+01	7.298047e+02
1.560000e-06	7.876954e-06	1.112557e-08	5.630679e+01	7.306498e+02
1.570000e-06	7.899879e-06	1.113624e-08	5.647066e+01	7.314061e+02
1.580000e-06	7.920153e-06	1.114469e-08	5.661559e+01	7.320724e+02
1.590000e-06	7.937630e-06	1.115188e-08	5.674052e+01	7.326424e+02
1.600000e-06	7.952074e-06	1.115753e-08	5.684376e+01	7.331069e+02
1.610000e-06	7.963448e-06	1.116389e-08	5.692507e+01	7.334554e+02
1.620000e-06	7.971718e-06	1.117047e-08	5.698419e+01	7.336777e+02
1.630000e-06	7.977129e-06	1.117524e-08	5.702287e+01	7.337662e+02
1.640000e-06	7.979736e-06	1.117854e-08	5.704150e+01	7.337173e+02
1.650000e-06	7.979472e-06	1.117970e-08	5.703962e+01	7.335320e+02
1.660000e-06	7.976583e-06	1.116784e-08	5.701897e+01	7.332162e+02
1.670000e-06	7.971015e-06	1.115903e-08	5.697916e+01	7.327802e+02
1.680000e-06	7.962715e-06	1.115084e-08	5.691983e+01	7.322376e+02
1.690000e-06	7.951812e-06	1.114079e-08	5.684189e+01	7.316032e+02
1.700000e-06	7.938072e-06	1.113220e-08	5.674368e+01	7.308921e+02
1.710000e-06	7.921657e-06	1.112486e-08	5.662634e+01	7.301171e+02
1.720000e-06	7.902954e-06	1.111548e-08	5.649264e+01	7.292882e+02
1.730000e-06	7.881883e-06	1.106420e-08	5.634202e+01	7.284113e+02
1.740000e-06	7.857947e-06	1.098556e-08	5.617092e+01	7.274878e+02
1.750000e-06	7.830560e-06	1.102653e-08	5.597515e+01	7.265152e+02
1.760000e-06	7.799579e-06	1.104196e-08	5.575369e+01	7.254874e+02
1.770000e-06	7.765679e-06	1.100287e-08	5.551136e+01	7.243956e+02
1.780000e-06	7.729476e-06	1.100570e-08	5.525257e+01	7.232300e+02
1.790000e-06	7.690887e-06	1.107415e-08	5.497672e+01	7.219800e+02
1.800000e-06	7.650259e-06	1.097978e-08	5.468631e+01	7.206355e+02
1.810000e-06	7.607550e-06	1.093776e-08	5.438101e+01	7.191873e+02
1.820000e-06	7.562148e-06	1.105146e-08	5.405646e+01	7.176274e+02
1.830000e-06	7.514101e-06	1.091454e-08	5.371300e+01	7.159487e+02
1.840000e-06	7.463157e-06	1.096426e-08	5.334884e+01	7.141453e+02
1.850000e-06	7.409137e-06	1.089090e-08	5.296269e+01	7.122116e+02
1.860000e-06	7.352377e-06	1.081422e-08	5.255696e+01	7.101426e+02
1.870000e-06	7.292969e-06	1.085775e-08	5.213229e+01	7.079338e+02
1.880000e-06	7.230884e-06	1.073305e-08	5.168849e+01	7.055809e+02
1.890000e-06	7.166018e-06	1.079602e-08	5.122481e+01	7.030809e+02
1.900000e-06	7.098444e-06	1.070502e-08	5.074177e+01	7.004317e+02
1.910000e-06	7.028107e-06	1.062507e-08	5.023898e+01	6.976331e+02
1.920000e-06	6.955020e-06	1.060823e-08	4.971653e+01	6.946869e+02
1.930000e-06	6.879284e-06	1.055537e-08	4.917515e+01	6.915970e+02
1.940000e-06	6.800700e-06	1.056666e-08	4.861341e+01	6.883690e+02
1.950000e-06	6.719534e-06	1.045141e-08	4.803321e+01	6.850098e+02
1.960000e-06	6.635973e-06	1.043728e-08	4.743589e+01	6.815264e+02
1.970000e-06	6.549959e-06	1.035922e-08	4.682103e+01	6.779249e+02
1.980000e-06	6.461519e-06	1.027114e-08	4.618884e+01	6.742094e+02
1.990000e-06	6.370745e-06	1.024291e-08	4.553996e+01	6.703810e+02
2.000000e-06	6.277789e-06	1.018588e-08	4.487549e+01	6.664372e+02
2.010000e-06	6.182538e-06	1.013443e-08	4.419460e+01	6.623715e+02
2.020000e-06	6.085042e-06	1.002594e-08	4.349768e+01	6.581744e+02
2.030000e-06	5.985343e-06	9.974762e-09	4.278499e+01	6.538336e+02
2.040000e-06	5.883538e-06	9.906238e-09	4.205726e+01	6.493358e+02
2.050000e-06	5.779654e-06	9.844487e-09	4.131467e+01	6.446684e+02
2.060000e-06	5.673792e-06	9.759267e-09	4.055793e+01	6.398207e+02
2.070000e-06	5.566088e-06	9.684294e-09	3.978804e+01	6.347853e+02
2.080000e-06	5.456399e-06	9.611563e-09	3.900395e+01	6.295588e+02
2.090000e-06	5.344628e-06	9.517280e-09	3.820498e+01	6.241421e+02
2.100000e-06	5.230875e-06	9.439262e-09	3.739184e+01	6.185396e+02
2.110000e-06	5.115174e-06	9.359940e-09	3.656477e+01	6.127577e+02
2.120000e-06	4.997425e-06	9.270705e-09	3.572307e+01	6.068035e+02
2.130000e-06	4.877770e-06	9.156498e-09	3.486774e+01	6.006823e+02
2.140000e-06	4.756350e-06	9.071000e-09	3.399979e+01	5.943960e+02
2.150000e-06	4.633201e-06	8.986861e-09	3.311949e+01	5.879414e+02
2.160000e-06	4.508286e-06	8.890937e-09	3.222655e+01	5.813097e+02
2.170000e-06	4.381752e-06	8.770723e-09	3.132205e+01	5.744863e+02
2.180000e-06	4.253633e-06	8.659157e-09	3.040622e+01	5.674519e+02
2.190000e-06	4.123958e-06	8.549304e-09	2.947927e+01	5.601841e+02
2.200000e-06	3.992798e-06	8.432485e-09	2.854169e+01	5.526600e+02
2.210000e-06	3.860073e-06	8.317913e-09	2.759294e+01	5.448581e+02
2.220000e-06	3.725927e-06	8.202351e-09	2.663402e+01	5.367614e+02
2.230000e-06	3.590449e-06	8.072497e-09	2.566559e+01	5.283580e+02
2.240000e-06	3.453624e-06	7.928090e-09	2.468752e+01	5.196429e+02
2.250000e-06	3.315444e-06	7.793517e-09	2.369977e+01	5.106166e+02
2.260000e-06	3.175967e-06	7.661201e-09	2.270275e+01	5.012844e+02
2.270000e-06	3.035236e-06	7.520301e-09	2.169676e+01	4.916538e+02
2.280000e-06	2.893319e-06	7.363120e-09	2.068229e+01	4.817316e+02
2.290000e-06	2.750251e-06	7.206796e-09	1.965961e+01	4.715205e+02
2.300000e-06	2.606154e-06	7.047467e-09	1.862956e+01	4.610169e+02
2.310000e-06	2.461183e-06	6.884590e-09	1.759326e+01	4.502091e+02
2.320000e-06	2.315440e-06	6.716937e-09	1.655145e+01	4.390760e+02
2.330000e-06	2.168986e-06	6.539682e-09	1.550455e+01	4.275889e+02
2.340000e-06	2.021702e-06	6.353144e-09	1.445172e+01	4.157127e+02
2.350000e-06	1.873616e-06	6.163233e-09	1.339316e+01	4.034096e+02
2.360000e-06	1.724902e-06	5.972334e-09	1.233011e+01	3.906427e+02
2.370000e-06	1.575720e-06	5.771054e-09	1.126371e+01	3.773800e+02
2.380000e-06	1.426132e-06	5.560286e-09	1.019441e+01	3.635971e+02
2.390000e-06	1.276114e-06	5.339278e-09	9.122036e+00	3.492790e+02
2.400000e-06	1.125594e-06	5.109342e-09	8.046081e+00	3.344207e+02
2.410000e-06	9.746060e-07	4.875906e-09	6.966770e+00	3.190246e+02
2.420000e-06	8.233180e-07	4.640386e-09	5.885320e+00	3.030968e+02
2.430000e-06	6.717960e-07	4.395160e-09	4.802196e+00	2.866426e+02
2.440000e-06	5.200271e-07	4.133421e-09	3.717307e+00	2.696596e+02
2.450000e-06	3.680856e-07	3.862521e-09	2.631184e+00	2.521326e+02
2.460000e-06	2.159796e-07	3.587066e-09	1.543886e+00	2.340285e+02
2.470000e-06	6.376983e-08	3.301562e-09	4.558456e-01	2.152938e+02
2.480000e-06	-8.847766e-08	3.002206e-09	-6.324643e-01	1.958552e+02
2.490000e-06	-2.407099e-07	2.689462e-09	-1.720665e+00	1.756222e+02
2.500000e-06	-3.928488e-07	2.363965e-09	-2.808199e+00	1.544947e+02
2.510000e-06	-5.448972e-07	2.024462e-09	-3.895086e+00	1.323722e+02
2.520000e-06	-6.967980e-07	1.671566e-09	-4.980917e+00	1.091659e+02
2.530000e-06	-8.484947e-07	1.304992e-09	-6.065290e+00	8.481119e+01
2.540000e-06	-9.998938e-07	9.206079e-10	-7.147536e+00	5.928003e+01
2.550000e-06	-1.150930e-06	5.166105e-10	-8.227189e+00	3.259143e+01
2.560000e-06	-1.301580e-06	9.783218e-11	-9.304078e+00	4.818638e+00
2.570000e-06	-1.451739e-06	-3.341647e-10	-1.037746e+01	-2.390780e+01
2.580000e-06	-1.601359e-06	-7.826263e-10	-1.144698e+01	-5.340189e+01
2.590000e-06	-1.750439e-06	-1.246308e-09	-1.251265e+01	-8.342900e+01
2.600000e-06	-1.898864e-06	-1.719143e-09	-1.357364e+01	-1.137171e+02
2.610000e-06	-2.046463e-06	-2.192258e-09	-1.462872e+01	-1.439715e+02
2.620000e-06	-2.193217e-06	-2.657906e-09	-1.567776e+01	-1.738923e+02
2.630000e-06	-2.339197e-06	-3.108135e-09	-1.672127e+01	-2.031915e+02
2.640000e-06	-2.484334e-06	-3.538252e-09	-1.775875e+01	-2.316101e+02
2.650000e-06	-2.628551e-06	-3.951199e-09	-1.878966e+01	-2.589318e+02
2.660000e-06	-2.771788e-06	-4.345513e-09	-1.981355e+01	-2.849931e+02
2.670000e-06	-2.913878e-06	-4.716215e-09	-2.082926e+01	-3.096890e+02
2.680000e-06	-3.054788e-06	-5.064384e-09	-2.183652e+01	-3.329730e+02
2.690000e-06	-3.194439e-06	-5.394893e-09	-2.283479e+01	-3.548532e+02
2.700000e-06	-3.332799e-06	-5.712747e-09	-2.382383e+01	-3.753834e+02
2.710000e-06	-3.469913e-06	-6.015674e-09	-2.480396e+01	-3.946522e+02
2.720000e-06	-3.605723e-06	-6.298369e-09	-2.577477e+01	-4.127702e+02
2.730000e-06	-3.740254e-06	-6.559535e-09	-2.673644e+01	-4.298566e+02
2.740000e-06	-3.873500e-06	-6.803523e-09	-2.768892e+01	-4.460279e+02
2.750000e-06	-4.005314e-06	-7.037325e-09	-2.863116e+01	-4.613886e+02
2.760000e-06	-4.135685e-06	-7.263659e-09	-2.956310e+01	-4.760246e+02
2.770000e-06	-4.264721e-06	-7.480493e-09	-3.048548e+01	-4.900001e+02
2.780000e-06	-4.392358e-06	-7.686330e-09	-3.139787e+01	-5.033584e+02
2.790000e-06	-4.518465e-06	-7.879876e-09	-3.229932e+01	-5.161243e+02
2.800000e-06	-4.642926e-06	-8.061587e-09	-3.318900e+01	-5.283092e+02
2.810000e-06	-4.765704e-06	-8.235871e-09	-3.406666e+01	-5.399167e+02
2.820000e-06	-4.886839e-06	-8.403606e-09	-3.493257e+01	-5.509488e+02
2.830000e-06	-5.006178e-06	-8.560926e-09	-3.578563e+01	-5.614107e+02
2.840000e-06	-5.123493e-06	-8.708473e-09	-3.662424e+01	-5.713144e+02
2.850000e-06	-5.238664e-06	-8.850979e-09	-3.744751e+01	-5.806802e+02
2.860000e-06	-5.351726e-06	-8.990572e-09	-3.825571e+01	-5.895374e+02
2.870000e-06	-5.462702e-06	-9.121475e-09	-3.904900e+01	-5.979219e+02
2.880000e-06	-5.571669e-06	-9.243476e-09	-3.982793e+01	-6.058737e+02
2.890000e-06	-5.678816e-06	-9.360875e-09	-4.059385e+01	-6.134335e+02
2.900000e-06	-5.784013e-06	-9.472237e-09	-4.134583e+01	-6.206394e+02
2.910000e-06	-5.887046e-06	-9.577078e-09	-4.208234e+01	-6.275239e+02
2.920000e-06	-5.987834e-06	-9.677667e-09	-4.280280e+01	-6.341126e+02
2.930000e-06	-6.086466e-06	-9.775009e-09	-4.350785e+01	-6.404231e+02
2.940000e-06	-6.183014e-06	-9.866125e-09	-4.419800e+01	-6.464662e+02
