# Temperatura_=_50.9
# Concentracion g/m^3_=_10000.0
# C_Vs_to_Am_M_A/Vsm_=_65563218390.804596
# pendiente_HvsI_1/m_=_3716.3
# ordenada_HvsI_A/m_=_1297.0
# frecuencia_Hz_=_302553.5344801236

Tiempo_(s)	Campo_(V.s)	Magnetizacion_(V.s)	Campo_(kA/m)	Magnetizacion_(A/m)
0.000000e+00	-7.959451e-06	-1.144965e-08	-5.685072e+01	-7.514161e+02
1.000000e-08	-7.956085e-06	-1.145104e-08	-5.682669e+01	-7.510669e+02
2.000000e-08	-7.950069e-06	-1.144680e-08	-5.678372e+01	-7.506080e+02
3.000000e-08	-7.941450e-06	-1.144323e-08	-5.672216e+01	-7.500528e+02
4.000000e-08	-7.930036e-06	-1.143982e-08	-5.664063e+01	-7.494136e+02
5.000000e-08	-7.915633e-06	-1.143168e-08	-5.653776e+01	-7.487005e+02
6.000000e-08	-7.898373e-06	-1.141979e-08	-5.641448e+01	-7.479198e+02
7.000000e-08	-7.878770e-06	-1.140812e-08	-5.627446e+01	-7.470733e+02
8.000000e-08	-7.856879e-06	-1.139589e-08	-5.611810e+01	-7.461588e+02
9.000000e-08	-7.832138e-06	-1.143468e-08	-5.594139e+01	-7.451703e+02
1.000000e-07	-7.804133e-06	-1.142372e-08	-5.574136e+01	-7.440994e+02
1.100000e-07	-7.773124e-06	-1.134616e-08	-5.551987e+01	-7.429365e+02
1.200000e-07	-7.739377e-06	-1.131000e-08	-5.527883e+01	-7.416724e+02
1.300000e-07	-7.702926e-06	-1.129395e-08	-5.501849e+01	-7.402994e+02
1.400000e-07	-7.664163e-06	-1.126733e-08	-5.474162e+01	-7.388121e+02
1.500000e-07	-7.623233e-06	-1.120178e-08	-5.444928e+01	-7.372075e+02
1.600000e-07	-7.579894e-06	-1.119271e-08	-5.413972e+01	-7.354849e+02
1.700000e-07	-7.533869e-06	-1.120174e-08	-5.381098e+01	-7.336451e+02
1.800000e-07	-7.485115e-06	-1.107567e-08	-5.346276e+01	-7.316891e+02
1.900000e-07	-7.433461e-06	-1.113478e-08	-5.309382e+01	-7.296176e+02
2.000000e-07	-7.378840e-06	-1.114364e-08	-5.270368e+01	-7.274297e+02
2.100000e-07	-7.321503e-06	-1.105908e-08	-5.229415e+01	-7.251227e+02
2.200000e-07	-7.261494e-06	-1.107061e-08	-5.186554e+01	-7.226916e+02
2.300000e-07	-7.198895e-06	-1.097953e-08	-5.141842e+01	-7.201299e+02
2.400000e-07	-7.133566e-06	-1.094148e-08	-5.095181e+01	-7.174307e+02
2.500000e-07	-7.065465e-06	-1.087446e-08	-5.046539e+01	-7.145871e+02
2.600000e-07	-6.994713e-06	-1.084456e-08	-4.996004e+01	-7.115940e+02
2.700000e-07	-6.921195e-06	-1.080101e-08	-4.943493e+01	-7.084488e+02
2.800000e-07	-6.844942e-06	-1.073021e-08	-4.889030e+01	-7.051518e+02
2.900000e-07	-6.765893e-06	-1.067505e-08	-4.832569e+01	-7.017068e+02
3.000000e-07	-6.684180e-06	-1.062117e-08	-4.774204e+01	-6.981198e+02
3.100000e-07	-6.600184e-06	-1.060626e-08	-4.714210e+01	-6.943984e+02
3.200000e-07	-6.513952e-06	-1.053083e-08	-4.652619e+01	-6.905502e+02
3.300000e-07	-6.425364e-06	-1.046404e-08	-4.589344e+01	-6.865813e+02
3.400000e-07	-6.334403e-06	-1.042728e-08	-4.524375e+01	-6.824946e+02
3.500000e-07	-6.241186e-06	-1.036487e-08	-4.457794e+01	-6.782893e+02
3.600000e-07	-6.145770e-06	-1.028862e-08	-4.389643e+01	-6.739600e+02
3.700000e-07	-6.048079e-06	-1.021714e-08	-4.319867e+01	-6.694970e+02
3.800000e-07	-5.948114e-06	-1.015237e-08	-4.248466e+01	-6.648877e+02
3.900000e-07	-5.846015e-06	-1.006397e-08	-4.175542e+01	-6.601176e+02
4.000000e-07	-5.741854e-06	-9.979672e-09	-4.101144e+01	-6.551726e+02
4.100000e-07	-5.635674e-06	-9.910368e-09	-4.025305e+01	-6.500405e+02
4.200000e-07	-5.527513e-06	-9.843707e-09	-3.948050e+01	-6.447127e+02
4.300000e-07	-5.417424e-06	-9.753108e-09	-3.869419e+01	-6.391851e+02
4.400000e-07	-5.305357e-06	-9.650706e-09	-3.789374e+01	-6.334584e+02
4.500000e-07	-5.191176e-06	-9.568266e-09	-3.707820e+01	-6.275371e+02
4.600000e-07	-5.074944e-06	-9.487345e-09	-3.624801e+01	-6.214284e+02
4.700000e-07	-4.956906e-06	-9.390245e-09	-3.540492e+01	-6.151399e+02
4.800000e-07	-4.837072e-06	-9.292731e-09	-3.454900e+01	-6.086776e+02
4.900000e-07	-4.715386e-06	-9.196471e-09	-3.367985e+01	-6.020438e+02
5.000000e-07	-4.592007e-06	-9.083950e-09	-3.279861e+01	-5.952350e+02
5.100000e-07	-4.467041e-06	-8.967026e-09	-3.190603e+01	-5.882419e+02
5.200000e-07	-4.340465e-06	-8.859225e-09	-3.100196e+01	-5.810491e+02
5.300000e-07	-4.212224e-06	-8.749909e-09	-3.008599e+01	-5.736361e+02
5.400000e-07	-4.082442e-06	-8.623409e-09	-2.915902e+01	-5.659800e+02
5.500000e-07	-3.951195e-06	-8.497821e-09	-2.822158e+01	-5.580573e+02
5.600000e-07	-3.818440e-06	-8.380619e-09	-2.727338e+01	-5.498472e+02
5.700000e-07	-3.684258e-06	-8.258381e-09	-2.631497e+01	-5.413334e+02
5.800000e-07	-3.548640e-06	-8.118805e-09	-2.534631e+01	-5.325062e+02
5.900000e-07	-3.411558e-06	-7.978350e-09	-2.436720e+01	-5.233629e+02
6.000000e-07	-3.273164e-06	-7.838410e-09	-2.337871e+01	-5.139067e+02
6.100000e-07	-3.133484e-06	-7.689840e-09	-2.238105e+01	-5.041455e+02
6.200000e-07	-2.992384e-06	-7.536283e-09	-2.137323e+01	-4.940885e+02
6.300000e-07	-2.849897e-06	-7.377864e-09	-2.035551e+01	-4.837436e+02
6.400000e-07	-2.706281e-06	-7.210968e-09	-1.932973e+01	-4.731132e+02
6.500000e-07	-2.561775e-06	-7.033291e-09	-1.829759e+01	-4.621925e+02
6.600000e-07	-2.416431e-06	-6.858542e-09	-1.725946e+01	-4.509669e+02
6.700000e-07	-2.270236e-06	-6.684381e-09	-1.621526e+01	-4.394126e+02
6.800000e-07	-2.123297e-06	-6.504625e-09	-1.516574e+01	-4.274975e+02
6.900000e-07	-1.975693e-06	-6.318924e-09	-1.411147e+01	-4.151837e+02
7.000000e-07	-1.827424e-06	-6.126504e-09	-1.305246e+01	-4.024318e+02
7.100000e-07	-1.678601e-06	-5.923338e-09	-1.198948e+01	-3.892044e+02
7.200000e-07	-1.529258e-06	-5.711924e-09	-1.092279e+01	-3.754706e+02
7.300000e-07	-1.379464e-06	-5.497722e-09	-9.852879e+00	-3.612083e+02
7.400000e-07	-1.229241e-06	-5.272963e-09	-8.779905e+00	-3.464059e+02
7.500000e-07	-1.078502e-06	-5.036415e-09	-7.703245e+00	-3.310613e+02
7.600000e-07	-9.273282e-07	-4.793261e-09	-6.623482e+00	-3.151793e+02
7.700000e-07	-7.757690e-07	-4.546785e-09	-5.540964e+00	-2.987662e+02
7.800000e-07	-6.239160e-07	-4.289674e-09	-4.456347e+00	-2.818247e+02
7.900000e-07	-4.717937e-07	-4.022396e-09	-3.369807e+00	-2.643464e+02
8.000000e-07	-3.194593e-07	-3.749580e-09	-2.281752e+00	-2.463064e+02
8.100000e-07	-1.670028e-07	-3.465943e-09	-1.192825e+00	-2.276588e+02
8.200000e-07	-1.446049e-08	-3.167029e-09	-1.032846e-01	-2.083351e+02
8.300000e-07	1.380839e-07	-2.854542e-09	9.862705e-01	-1.882460e+02
8.400000e-07	2.905892e-07	-2.530989e-09	2.075546e+00	-1.672865e+02
8.500000e-07	4.430137e-07	-2.192472e-09	3.164244e+00	-1.453446e+02
8.600000e-07	5.953354e-07	-1.838207e-09	4.252209e+00	-1.223135e+02
8.700000e-07	7.475445e-07	-1.468373e-09	5.339369e+00	-9.810449e+01
8.800000e-07	8.995013e-07	-1.084656e-09	6.424727e+00	-7.266103e+01
8.900000e-07	1.051058e-06	-6.844512e-10	7.507227e+00	-4.597152e+01
9.000000e-07	1.202199e-06	-2.649460e-10	8.586757e+00	-1.807918e+01
9.100000e-07	1.352804e-06	1.712584e-10	9.662463e+00	1.091205e+01
9.200000e-07	1.502838e-06	6.239004e-10	1.073409e+01	4.083655e+01
9.300000e-07	1.652370e-06	1.092547e-09	1.180213e+01	7.147151e+01
9.400000e-07	1.801360e-06	1.571347e-09	1.286629e+01	1.025467e+02
9.500000e-07	1.949722e-06	2.052186e-09	1.392597e+01	1.337587e+02
9.600000e-07	2.097363e-06	2.531898e-09	1.498051e+01	1.647883e+02
9.700000e-07	2.244203e-06	3.001396e-09	1.602932e+01	1.953198e+02
9.800000e-07	2.390245e-06	3.452665e-09	1.707243e+01	2.250596e+02
9.900000e-07	2.535460e-06	3.883270e-09	1.810964e+01	2.537533e+02
1.000000e-06	2.679741e-06	4.293756e-09	1.914016e+01	2.811985e+02
1.010000e-06	2.822994e-06	4.684432e-09	2.016336e+01	3.072539e+02
1.020000e-06	2.965135e-06	5.055326e-09	2.117861e+01	3.318417e+02
1.030000e-06	3.106027e-06	5.407559e-09	2.218493e+01	3.549459e+02
1.040000e-06	3.245618e-06	5.737321e-09	2.318197e+01	3.766046e+02
1.050000e-06	3.383984e-06	6.046686e-09	2.417026e+01	3.968993e+02
1.060000e-06	3.521173e-06	6.337979e-09	2.515013e+01	4.159416e+02
1.070000e-06	3.656955e-06	6.613398e-09	2.611996e+01	4.338587e+02
1.080000e-06	3.791269e-06	6.872962e-09	2.707931e+01	4.507798e+02
1.090000e-06	3.924284e-06	7.117863e-09	2.802937e+01	4.668249e+02
1.100000e-06	4.055881e-06	7.352176e-09	2.896931e+01	4.820962e+02
1.110000e-06	4.186031e-06	7.575846e-09	2.989891e+01	4.966731e+02
1.120000e-06	4.314777e-06	7.789279e-09	3.081849e+01	5.106110e+02
1.130000e-06	4.441953e-06	7.991081e-09	3.172684e+01	5.239435e+02
1.140000e-06	4.567582e-06	8.180701e-09	3.262415e+01	5.366870e+02
1.150000e-06	4.691663e-06	8.360070e-09	3.351041e+01	5.488464e+02
1.160000e-06	4.814123e-06	8.532279e-09	3.438509e+01	5.604219e+02
1.170000e-06	4.934915e-06	8.699024e-09	3.524785e+01	5.714152e+02
1.180000e-06	5.053847e-06	8.858292e-09	3.609732e+01	5.818339e+02
1.190000e-06	5.170933e-06	9.009137e-09	3.693361e+01	5.916944e+02
1.200000e-06	5.286090e-06	9.152051e-09	3.775613e+01	6.010228e+02
1.210000e-06	5.399206e-06	9.289183e-09	3.856406e+01	6.098536e+02
1.220000e-06	5.510232e-06	9.420725e-09	3.935707e+01	6.182273e+02
1.230000e-06	5.619272e-06	9.545852e-09	4.013590e+01	6.261865e+02
1.240000e-06	5.726443e-06	9.663792e-09	4.090137e+01	6.337726e+02
1.250000e-06	5.831549e-06	9.774696e-09	4.165209e+01	6.410220e+02
1.260000e-06	5.934436e-06	9.878935e-09	4.238697e+01	6.479642e+02
1.270000e-06	6.035090e-06	9.977841e-09	4.310589e+01	6.546202e+02
1.280000e-06	6.133526e-06	1.007318e-08	4.380898e+01	6.610031e+02
1.290000e-06	6.229601e-06	1.016464e-08	4.449520e+01	6.671192e+02
1.300000e-06	6.323397e-06	1.025338e-08	4.516514e+01	6.729703e+02
1.310000e-06	6.415071e-06	1.033983e-08	4.581993e+01	6.785564e+02
1.320000e-06	6.504471e-06	1.042342e-08	4.645847e+01	6.838781e+02
1.330000e-06	6.591457e-06	1.049929e-08	4.707977e+01	6.889387e+02
1.340000e-06	6.676128e-06	1.056873e-08	4.768454e+01	6.937455e+02
1.350000e-06	6.758503e-06	1.063627e-08	4.827291e+01	6.983097e+02
1.360000e-06	6.838382e-06	1.070232e-08	4.884344e+01	7.026458e+02
1.370000e-06	6.915691e-06	1.076744e-08	4.939563e+01	7.067700e+02
1.380000e-06	6.990372e-06	1.083052e-08	4.992904e+01	7.106984e+02
1.390000e-06	7.062389e-06	1.089060e-08	5.044342e+01	7.144446e+02
1.400000e-06	7.131972e-06	1.094685e-08	5.094042e+01	7.180182e+02
1.410000e-06	7.199165e-06	1.099844e-08	5.142035e+01	7.214239e+02
1.420000e-06	7.263716e-06	1.104681e-08	5.188140e+01	7.246611e+02
1.430000e-06	7.325693e-06	1.109239e-08	5.232408e+01	7.277246e+02
1.440000e-06	7.385173e-06	1.113443e-08	5.274892e+01	7.306064e+02
1.450000e-06	7.442028e-06	1.117271e-08	5.315501e+01	7.332973e+02
1.460000e-06	7.496166e-06	1.120709e-08	5.354169e+01	7.357893e+02
1.470000e-06	7.547320e-06	1.123905e-08	5.390706e+01	7.380775e+02
1.480000e-06	7.595394e-06	1.127023e-08	5.425044e+01	7.401619e+02
1.490000e-06	7.640700e-06	1.130078e-08	5.457403e+01	7.420478e+02
1.500000e-06	7.683335e-06	1.132920e-08	5.487856e+01	7.437457e+02
1.510000e-06	7.723189e-06	1.135514e-08	5.516322e+01	7.452704e+02
1.520000e-06	7.760304e-06	1.137795e-08	5.542831e+01	7.466394e+02
1.530000e-06	7.794733e-06	1.139791e-08	5.567422e+01	7.478705e+02
1.540000e-06	7.826394e-06	1.141573e-08	5.590036e+01	7.489800e+02
1.550000e-06	7.855314e-06	1.143064e-08	5.610692e+01	7.499804e+02
1.560000e-06	7.881472e-06	1.144296e-08	5.629376e+01	7.508797e+02
1.570000e-06	7.904707e-06	1.145319e-08	5.645972e+01	7.516802e+02
1.580000e-06	7.925161e-06	1.146347e-08	5.660581e+01	7.523793e+02
1.590000e-06	7.942878e-06	1.147383e-08	5.673236e+01	7.529703e+02
1.600000e-06	7.957613e-06	1.148378e-08	5.683760e+01	7.534444e+02
1.610000e-06	7.969245e-06	1.149284e-08	5.692068e+01	7.537922e+02
1.620000e-06	7.977736e-06	1.149862e-08	5.698133e+01	7.540061e+02
1.630000e-06	7.983293e-06	1.150151e-08	5.702102e+01	7.540820e+02
1.640000e-06	7.986148e-06	1.150264e-08	5.704141e+01	7.540196e+02
1.650000e-06	7.986161e-06	1.150297e-08	5.704150e+01	7.538238e+02
1.660000e-06	7.983420e-06	1.149203e-08	5.702193e+01	7.535033e+02
1.670000e-06	7.978059e-06	1.147969e-08	5.698364e+01	7.530698e+02
1.680000e-06	7.970019e-06	1.147197e-08	5.692621e+01	7.525367e+02
1.690000e-06	7.959328e-06	1.146376e-08	5.684985e+01	7.519166e+02
1.700000e-06	7.945823e-06	1.145493e-08	5.675339e+01	7.512205e+02
1.710000e-06	7.929578e-06	1.144817e-08	5.663736e+01	7.504555e+02
1.720000e-06	7.910973e-06	1.143841e-08	5.650447e+01	7.496247e+02
1.730000e-06	7.890065e-06	1.140290e-08	5.635513e+01	7.487269e+02
1.740000e-06	7.866326e-06	1.130574e-08	5.618558e+01	7.477568e+02
1.750000e-06	7.839112e-06	1.132440e-08	5.599120e+01	7.467066e+02
1.760000e-06	7.808334e-06	1.135534e-08	5.577137e+01	7.455668e+02
1.770000e-06	7.774604e-06	1.132185e-08	5.553045e+01	7.443280e+02
1.780000e-06	7.738529e-06	1.130685e-08	5.527278e+01	7.429821e+02
1.790000e-06	7.700049e-06	1.137018e-08	5.499794e+01	7.415229e+02
1.800000e-06	7.659460e-06	1.132862e-08	5.470803e+01	7.399470e+02
1.810000e-06	7.616815e-06	1.121191e-08	5.440343e+01	7.382531e+02
1.820000e-06	7.571537e-06	1.133615e-08	5.408003e+01	7.364416e+02
1.830000e-06	7.523632e-06	1.122343e-08	5.373787e+01	7.345138e+02
1.840000e-06	7.472882e-06	1.118545e-08	5.337538e+01	7.324704e+02
1.850000e-06	7.419064e-06	1.114767e-08	5.299099e+01	7.303110e+02
1.860000e-06	7.362510e-06	1.102109e-08	5.258705e+01	7.280334e+02
1.870000e-06	7.303306e-06	1.109674e-08	5.216418e+01	7.256330e+02
1.880000e-06	7.241451e-06	1.099419e-08	5.172238e+01	7.231039e+02
1.890000e-06	7.176814e-06	1.103234e-08	5.126071e+01	7.204390e+02
1.900000e-06	7.109387e-06	1.099529e-08	5.077911e+01	7.176313e+02
1.910000e-06	7.039185e-06	1.087100e-08	5.027769e+01	7.146751e+02
1.920000e-06	6.966188e-06	1.087040e-08	4.975630e+01	7.115672e+02
1.930000e-06	6.890552e-06	1.080180e-08	4.921607e+01	7.083072e+02
1.940000e-06	6.812107e-06	1.081079e-08	4.865577e+01	7.048979e+02
1.950000e-06	6.731024e-06	1.069488e-08	4.807663e+01	7.013449e+02
1.960000e-06	6.647567e-06	1.064502e-08	4.748054e+01	6.976556e+02
1.970000e-06	6.561609e-06	1.060453e-08	4.686658e+01	6.938376e+02
1.980000e-06	6.473170e-06	1.048934e-08	4.623490e+01	6.898977e+02
1.990000e-06	6.382470e-06	1.046599e-08	4.558707e+01	6.858396e+02
2.000000e-06	6.289653e-06	1.040366e-08	4.492412e+01	6.816635e+02
2.010000e-06	6.194545e-06	1.036049e-08	4.424481e+01	6.773651e+02
2.020000e-06	6.097179e-06	1.025457e-08	4.354937e+01	6.729359e+02
2.030000e-06	5.997671e-06	1.019028e-08	4.283862e+01	6.683637e+02
2.040000e-06	5.895951e-06	1.013040e-08	4.211209e+01	6.636344e+02
2.050000e-06	5.792045e-06	1.004802e-08	4.136993e+01	6.587336e+02
2.060000e-06	5.686168e-06	9.953075e-09	4.061370e+01	6.536484e+02
2.070000e-06	5.578483e-06	9.867018e-09	3.984456e+01	6.483693e+02
2.080000e-06	5.468854e-06	9.809397e-09	3.906153e+01	6.428910e+02
2.090000e-06	5.357183e-06	9.718469e-09	3.826391e+01	6.372130e+02
2.100000e-06	5.243528e-06	9.642295e-09	3.745213e+01	6.313389e+02
2.110000e-06	5.127905e-06	9.552691e-09	3.662629e+01	6.252755e+02
2.120000e-06	5.010207e-06	9.451754e-09	3.578562e+01	6.190306e+02
2.130000e-06	4.890535e-06	9.326097e-09	3.493086e+01	6.126106e+02
2.140000e-06	4.769096e-06	9.230464e-09	3.406347e+01	6.060189e+02
2.150000e-06	4.645969e-06	9.145069e-09	3.318404e+01	5.992537e+02
2.160000e-06	4.521109e-06	9.044562e-09	3.229222e+01	5.923071e+02
2.170000e-06	4.394533e-06	8.929027e-09	3.138814e+01	5.851652e+02
2.180000e-06	4.266386e-06	8.816356e-09	3.047285e+01	5.778086e+02
2.190000e-06	4.136735e-06	8.706481e-09	2.954681e+01	5.702147e+02
2.200000e-06	4.005592e-06	8.583653e-09	2.861012e+01	5.623599e+02
2.210000e-06	3.872870e-06	8.460900e-09	2.766214e+01	5.542226e+02
2.220000e-06	3.738642e-06	8.329438e-09	2.670341e+01	5.457851e+02
2.230000e-06	3.603121e-06	8.189690e-09	2.573545e+01	5.370361e+02
2.240000e-06	3.466339e-06	8.043080e-09	2.475848e+01	5.279709e+02
2.250000e-06	3.328155e-06	7.907142e-09	2.377149e+01	5.185915e+02
2.260000e-06	3.188556e-06	7.767768e-09	2.277440e+01	5.089049e+02
2.270000e-06	3.047694e-06	7.618781e-09	2.176829e+01	4.989203e+02
2.280000e-06	2.905682e-06	7.462497e-09	2.075396e+01	4.886460e+02
2.290000e-06	2.762565e-06	7.308818e-09	1.973174e+01	4.780864e+02
2.300000e-06	2.618440e-06	7.151958e-09	1.870232e+01	4.672384e+02
2.310000e-06	2.473485e-06	6.986837e-09	1.766697e+01	4.560901e+02
2.320000e-06	2.327734e-06	6.809630e-09	1.662594e+01	4.446199e+02
2.330000e-06	2.181155e-06	6.615914e-09	1.557899e+01	4.327976e+02
2.340000e-06	2.033839e-06	6.414754e-09	1.452678e+01	4.205864e+02
2.350000e-06	1.885806e-06	6.218471e-09	1.346945e+01	4.079469e+02
2.360000e-06	1.737008e-06	6.026764e-09	1.240666e+01	3.948408e+02
2.370000e-06	1.587643e-06	5.824548e-09	1.133981e+01	3.812353e+02
2.380000e-06	1.437860e-06	5.610495e-09	1.026998e+01	3.671058e+02
2.390000e-06	1.287623e-06	5.388855e-09	9.196901e+00	3.524382e+02
2.400000e-06	1.136947e-06	5.158869e-09	8.120696e+00	3.372281e+02
2.410000e-06	9.858963e-07	4.920908e-09	7.041807e+00	3.214790e+02
2.420000e-06	8.345539e-07	4.677531e-09	5.960838e+00	3.051974e+02
2.430000e-06	6.829791e-07	4.422444e-09	4.878208e+00	2.883875e+02
2.440000e-06	5.311541e-07	4.151399e-09	3.793791e+00	2.710442e+02
2.450000e-06	3.791097e-07	3.872778e-09	2.707808e+00	2.531472e+02
2.460000e-06	2.269029e-07	3.593488e-09	1.620664e+00	2.346563e+02
2.470000e-06	7.456910e-08	3.305307e-09	5.326130e-01	2.155085e+02
2.480000e-06	-7.785272e-08	2.999846e-09	-5.560664e-01	1.956193e+02
2.490000e-06	-2.302321e-07	2.679523e-09	-1.644443e+00	1.748870e+02
2.500000e-06	-3.824740e-07	2.346451e-09	-2.731837e+00	1.532004e+02
2.510000e-06	-5.345980e-07	1.999441e-09	-3.818390e+00	1.304501e+02
2.520000e-06	-6.865887e-07	1.636477e-09	-4.903990e+00	1.065415e+02
2.530000e-06	-8.384135e-07	1.256325e-09	-5.988405e+00	8.140888e+01
2.540000e-06	-9.899516e-07	8.552170e-10	-7.070773e+00	5.502833e+01
2.550000e-06	-1.141090e-06	4.357239e-10	-8.150285e+00	2.742859e+01
2.560000e-06	-1.291775e-06	3.498393e-12	-9.226562e+00	-1.301858e+00
2.570000e-06	-1.441999e-06	-4.427158e-10	-1.029954e+01	-3.101261e+01
2.580000e-06	-1.591833e-06	-9.066217e-10	-1.136974e+01	-6.149444e+01
2.590000e-06	-1.741190e-06	-1.387052e-09	-1.243652e+01	-9.248778e+01
2.600000e-06	-1.889827e-06	-1.874326e-09	-1.349817e+01	-1.236960e+02
2.610000e-06	-2.037626e-06	-2.359133e-09	-1.455384e+01	-1.548020e+02
2.620000e-06	-2.184578e-06	-2.833814e-09	-1.560344e+01	-1.854875e+02
2.630000e-06	-2.330728e-06	-3.293679e-09	-1.664732e+01	-2.154517e+02
2.640000e-06	-2.476059e-06	-3.735712e-09	-1.768536e+01	-2.444289e+02
2.650000e-06	-2.620455e-06	-4.157664e-09	-1.871671e+01	-2.722028e+02
2.660000e-06	-2.763815e-06	-4.555695e-09	-1.974067e+01	-2.986162e+02
2.670000e-06	-2.906156e-06	-4.928020e-09	-2.075734e+01	-3.235755e+02
2.680000e-06	-3.047446e-06	-5.278786e-09	-2.176652e+01	-3.470498e+02
2.690000e-06	-3.187434e-06	-5.613207e-09	-2.276638e+01	-3.690644e+02
2.700000e-06	-3.326007e-06	-5.933607e-09	-2.375615e+01	-3.896914e+02
2.710000e-06	-3.463357e-06	-6.235103e-09	-2.473718e+01	-4.090361e+02
2.720000e-06	-3.599421e-06	-6.515903e-09	-2.570902e+01	-4.272230e+02
2.730000e-06	-3.734109e-06	-6.778508e-09	-2.667104e+01	-4.443821e+02
2.740000e-06	-3.867599e-06	-7.027588e-09	-2.762450e+01	-4.606366e+02
2.750000e-06	-3.999663e-06	-7.267773e-09	-2.856777e+01	-4.760938e+02
2.760000e-06	-4.130216e-06	-7.498435e-09	-2.950025e+01	-4.908389e+02
2.770000e-06	-4.259396e-06	-7.715800e-09	-3.042292e+01	-5.049334e+02
2.780000e-06	-4.387091e-06	-7.919021e-09	-3.133499e+01	-5.184160e+02
2.790000e-06	-4.513381e-06	-8.112299e-09	-3.223702e+01	-5.313067e+02
2.800000e-06	-4.638131e-06	-8.298084e-09	-3.312805e+01	-5.436128e+02
2.810000e-06	-4.761122e-06	-8.476658e-09	-3.400652e+01	-5.553350e+02
2.820000e-06	-4.882437e-06	-8.645763e-09	-3.487302e+01	-5.664743e+02
2.830000e-06	-5.002003e-06	-8.802915e-09	-3.572702e+01	-5.770362e+02
2.840000e-06	-5.119619e-06	-8.952525e-09	-3.656710e+01	-5.870350e+02
2.850000e-06	-5.235064e-06	-9.100565e-09	-3.739168e+01	-5.964943e+02
2.860000e-06	-5.348348e-06	-9.245306e-09	-3.820081e+01	-6.054467e+02
2.870000e-06	-5.459569e-06	-9.378674e-09	-3.899521e+01	-6.139314e+02
2.880000e-06	-5.568737e-06	-9.499797e-09	-3.977495e+01	-6.219911e+02
2.890000e-06	-5.676038e-06	-9.614652e-09	-4.054135e+01	-6.296675e+02
2.900000e-06	-5.781436e-06	-9.725687e-09	-4.129416e+01	-6.369988e+02
2.910000e-06	-5.884707e-06	-9.833027e-09	-4.203178e+01	-6.440163e+02
2.920000e-06	-5.985679e-06	-9.936579e-09	-4.275297e+01	-6.507431e+02
2.930000e-06	-6.084470e-06	-1.003591e-08	-4.345859e+01	-6.571943e+02
2.940000e-06	-6.181133e-06	-1.013020e-08	-4.414901e+01	-6.633776e+02
