# Temperatura_=_67.34
# Concentracion g/m^3_=_10000.0
# C_Vs_to_Am_M_A/Vsm_=_65563218390.804596
# pendiente_HvsI_1/m_=_3716.3
# ordenada_HvsI_A/m_=_1297.0
# frecuencia_Hz_=_302552.0112467585

Tiempo_(s)	Campo_(V.s)	Magnetizacion_(V.s)	Campo_(kA/m)	Magnetizacion_(A/m)
0.000000e+00	-7.936990e-06	-1.216723e-08	-5.685496e+01	-7.972744e+02
1.000000e-08	-7.933812e-06	-1.216903e-08	-5.683220e+01	-7.968675e+02
2.000000e-08	-7.928058e-06	-1.216217e-08	-5.679098e+01	-7.963148e+02
3.000000e-08	-7.919723e-06	-1.215520e-08	-5.673127e+01	-7.956286e+02
4.000000e-08	-7.908551e-06	-1.214872e-08	-5.665125e+01	-7.948235e+02
5.000000e-08	-7.894427e-06	-1.213796e-08	-5.655007e+01	-7.939149e+02
6.000000e-08	-7.877453e-06	-1.212262e-08	-5.642848e+01	-7.929180e+02
7.000000e-08	-7.858075e-06	-1.210626e-08	-5.628967e+01	-7.918466e+02
8.000000e-08	-7.836410e-06	-1.208349e-08	-5.613448e+01	-7.907123e+02
9.000000e-08	-7.811943e-06	-1.214008e-08	-5.595921e+01	-7.895242e+02
1.000000e-07	-7.784255e-06	-1.214472e-08	-5.576088e+01	-7.882884e+02
1.100000e-07	-7.753477e-06	-1.204156e-08	-5.554041e+01	-7.870075e+02
1.200000e-07	-7.719883e-06	-1.199178e-08	-5.529977e+01	-7.856810e+02
1.300000e-07	-7.683665e-06	-1.197841e-08	-5.504032e+01	-7.843045e+02
1.400000e-07	-7.645061e-06	-1.194975e-08	-5.476379e+01	-7.828698e+02
1.500000e-07	-7.604242e-06	-1.186269e-08	-5.447139e+01	-7.813652e+02
1.600000e-07	-7.561112e-06	-1.186875e-08	-5.416244e+01	-7.797750e+02
1.700000e-07	-7.515296e-06	-1.191478e-08	-5.383425e+01	-7.780804e+02
1.800000e-07	-7.466780e-06	-1.173250e-08	-5.348671e+01	-7.762597e+02
1.900000e-07	-7.415433e-06	-1.179087e-08	-5.311890e+01	-7.742897e+02
2.000000e-07	-7.361129e-06	-1.179678e-08	-5.272991e+01	-7.721469e+02
2.100000e-07	-7.304100e-06	-1.167129e-08	-5.232139e+01	-7.698095e+02
2.200000e-07	-7.244426e-06	-1.170477e-08	-5.189393e+01	-7.672590e+02
2.300000e-07	-7.182143e-06	-1.160907e-08	-5.144777e+01	-7.644819e+02
2.400000e-07	-7.117204e-06	-1.158715e-08	-5.098260e+01	-7.614715e+02
2.500000e-07	-7.049528e-06	-1.150540e-08	-5.049781e+01	-7.582287e+02
2.600000e-07	-6.979212e-06	-1.146156e-08	-4.999412e+01	-7.547617e+02
2.700000e-07	-6.906218e-06	-1.142747e-08	-4.947124e+01	-7.510861e+02
2.800000e-07	-6.830356e-06	-1.135109e-08	-4.892782e+01	-7.472224e+02
2.900000e-07	-6.751676e-06	-1.128513e-08	-4.836421e+01	-7.431945e+02
3.000000e-07	-6.670340e-06	-1.121249e-08	-4.778158e+01	-7.390260e+02
3.100000e-07	-6.586650e-06	-1.120386e-08	-4.718209e+01	-7.347382e+02
3.200000e-07	-6.500734e-06	-1.110759e-08	-4.656665e+01	-7.303465e+02
3.300000e-07	-6.412503e-06	-1.101928e-08	-4.593462e+01	-7.258590e+02
3.400000e-07	-6.321935e-06	-1.099011e-08	-4.528586e+01	-7.212749e+02
3.500000e-07	-6.229099e-06	-1.091828e-08	-4.462084e+01	-7.165846e+02
3.600000e-07	-6.134035e-06	-1.083160e-08	-4.393988e+01	-7.117711e+02
3.700000e-07	-6.036696e-06	-1.075566e-08	-4.324261e+01	-7.068117e+02
3.800000e-07	-5.937101e-06	-1.069708e-08	-4.252918e+01	-7.016816e+02
3.900000e-07	-5.835388e-06	-1.060266e-08	-4.180058e+01	-6.963567e+02
4.000000e-07	-5.731681e-06	-1.049871e-08	-4.105769e+01	-6.908170e+02
4.100000e-07	-5.625993e-06	-1.041618e-08	-4.030062e+01	-6.850491e+02
4.200000e-07	-5.518269e-06	-1.033709e-08	-3.952896e+01	-6.790478e+02
4.300000e-07	-5.408532e-06	-1.023595e-08	-3.874289e+01	-6.728164e+02
4.400000e-07	-5.296874e-06	-1.012370e-08	-3.794305e+01	-6.663653e+02
4.500000e-07	-5.183259e-06	-1.003735e-08	-3.712919e+01	-6.597105e+02
4.600000e-07	-5.067585e-06	-9.947566e-09	-3.630059e+01	-6.528696e+02
4.700000e-07	-4.949972e-06	-9.835882e-09	-3.545808e+01	-6.458589e+02
4.800000e-07	-4.830547e-06	-9.728834e-09	-3.460261e+01	-6.386895e+02
4.900000e-07	-4.709337e-06	-9.627626e-09	-3.373435e+01	-6.313650e+02
5.000000e-07	-4.586403e-06	-9.506400e-09	-3.285374e+01	-6.238795e+02
5.100000e-07	-4.461774e-06	-9.375063e-09	-3.196098e+01	-6.162177e+02
5.200000e-07	-4.335552e-06	-9.252891e-09	-3.105682e+01	-6.083557e+02
5.300000e-07	-4.207739e-06	-9.134448e-09	-3.014126e+01	-6.002642e+02
5.400000e-07	-4.078440e-06	-9.001966e-09	-2.921505e+01	-5.919114e+02
5.500000e-07	-3.947665e-06	-8.865610e-09	-2.827827e+01	-5.832673e+02
5.600000e-07	-3.815294e-06	-8.733906e-09	-2.733006e+01	-5.743072e+02
5.700000e-07	-3.681461e-06	-8.598640e-09	-2.637137e+01	-5.650148e+02
5.800000e-07	-3.546229e-06	-8.449554e-09	-2.540267e+01	-5.553836e+02
5.900000e-07	-3.409620e-06	-8.299119e-09	-2.442409e+01	-5.454165e+02
6.000000e-07	-3.271796e-06	-8.145903e-09	-2.343682e+01	-5.351250e+02
6.100000e-07	-3.132636e-06	-7.983561e-09	-2.243998e+01	-5.245250e+02
6.200000e-07	-2.991943e-06	-7.814801e-09	-2.143216e+01	-5.136334e+02
6.300000e-07	-2.849936e-06	-7.643263e-09	-2.041492e+01	-5.024633e+02
6.400000e-07	-2.706887e-06	-7.469603e-09	-1.939022e+01	-4.910199e+02
6.500000e-07	-2.562883e-06	-7.286838e-09	-1.835867e+01	-4.792975e+02
6.600000e-07	-2.417999e-06	-7.101046e-09	-1.732083e+01	-4.672780e+02
6.700000e-07	-2.272228e-06	-6.910317e-09	-1.627663e+01	-4.549315e+02
6.800000e-07	-2.125664e-06	-6.716818e-09	-1.522675e+01	-4.422185e+02
6.900000e-07	-1.978445e-06	-6.518688e-09	-1.417217e+01	-4.290941e+02
7.000000e-07	-1.830546e-06	-6.311318e-09	-1.311273e+01	-4.155127e+02
7.100000e-07	-1.682013e-06	-6.092232e-09	-1.204875e+01	-4.014334e+02
7.200000e-07	-1.533035e-06	-5.868550e-09	-1.098157e+01	-3.868244e+02
7.300000e-07	-1.383703e-06	-5.643686e-09	-9.911869e+00	-3.716660e+02
7.400000e-07	-1.233928e-06	-5.406780e-09	-8.838982e+00	-3.559512e+02
7.500000e-07	-1.083671e-06	-5.158650e-09	-7.762651e+00	-3.396842e+02
7.600000e-07	-9.329677e-07	-4.903741e-09	-6.683118e+00	-3.228755e+02
7.700000e-07	-7.819232e-07	-4.644135e-09	-5.601143e+00	-3.055363e+02
7.800000e-07	-6.306040e-07	-4.371926e-09	-4.517199e+00	-2.876704e+02
7.900000e-07	-4.790609e-07	-4.091245e-09	-3.431653e+00	-2.692668e+02
8.000000e-07	-3.273916e-07	-3.804663e-09	-2.345201e+00	-2.502928e+02
8.100000e-07	-1.756052e-07	-3.505124e-09	-1.257911e+00	-2.306904e+02
8.200000e-07	-2.372339e-08	-3.187055e-09	-1.699375e-01	-2.103750e+02
8.300000e-07	1.282027e-07	-2.853418e-09	9.183532e-01	-1.892390e+02
8.400000e-07	2.801236e-07	-2.511973e-09	2.006607e+00	-1.671590e+02
8.500000e-07	4.319925e-07	-2.156622e-09	3.094487e+00	-1.440068e+02
8.600000e-07	5.837694e-07	-1.787047e-09	4.181709e+00	-1.196639e+02
8.700000e-07	7.353879e-07	-1.401725e-09	5.267797e+00	-9.403661e+01
8.800000e-07	8.868003e-07	-9.986844e-10	6.352408e+00	-6.707133e+01
8.900000e-07	1.037949e-06	-5.741395e-10	7.435130e+00	-3.876802e+01
9.000000e-07	1.188686e-06	-1.276209e-10	8.514904e+00	-9.189816e+00
9.100000e-07	1.338896e-06	3.371272e-10	9.590900e+00	2.153229e+01
9.200000e-07	1.488627e-06	8.193022e-10	1.066347e+01	5.320047e+01
9.300000e-07	1.637888e-06	1.316560e-09	1.173267e+01	8.555709e+01
9.400000e-07	1.786592e-06	1.822802e-09	1.279788e+01	1.182974e+02
9.500000e-07	1.934658e-06	2.328863e-09	1.385851e+01	1.510864e+02
9.600000e-07	2.081972e-06	2.829235e-09	1.491377e+01	1.835790e+02
9.700000e-07	2.228515e-06	3.314277e-09	1.596350e+01	2.154410e+02
9.800000e-07	2.374261e-06	3.780562e-09	1.700752e+01	2.463688e+02
9.900000e-07	2.519090e-06	4.226554e-09	1.804497e+01	2.761066e+02
1.000000e-06	2.662947e-06	4.651349e-09	1.907546e+01	3.044590e+02
1.010000e-06	2.805762e-06	5.053529e-09	2.009849e+01	3.312980e+02
1.020000e-06	2.947517e-06	5.431753e-09	2.111392e+01	3.565643e+02
1.030000e-06	3.088117e-06	5.791153e-09	2.212108e+01	3.802628e+02
1.040000e-06	3.227407e-06	6.129518e-09	2.311885e+01	4.024535e+02
1.050000e-06	3.365466e-06	6.448834e-09	2.410781e+01	4.232381e+02
1.060000e-06	3.502245e-06	6.747974e-09	2.508760e+01	4.427455e+02
1.070000e-06	3.637594e-06	7.028931e-09	2.605714e+01	4.611166e+02
1.080000e-06	3.771619e-06	7.294142e-09	2.701720e+01	4.784902e+02
1.090000e-06	3.904359e-06	7.545512e-09	2.796805e+01	4.949919e+02
1.100000e-06	4.035703e-06	7.788288e-09	2.890891e+01	5.107265e+02
1.110000e-06	4.165602e-06	8.021494e-09	2.983942e+01	5.257735e+02
1.120000e-06	4.294049e-06	8.241849e-09	3.075952e+01	5.401873e+02
1.130000e-06	4.420967e-06	8.448763e-09	3.166867e+01	5.540002e+02
1.140000e-06	4.546410e-06	8.643700e-09	3.256726e+01	5.672273e+02
1.150000e-06	4.670298e-06	8.829852e-09	3.345470e+01	5.798735e+02
1.160000e-06	4.792513e-06	9.010269e-09	3.433016e+01	5.919399e+02
1.170000e-06	4.913079e-06	9.183060e-09	3.519381e+01	6.034296e+02
1.180000e-06	5.031864e-06	9.348038e-09	3.604470e+01	6.143517e+02
1.190000e-06	5.148705e-06	9.505667e-09	3.688167e+01	6.247243e+02
1.200000e-06	5.263541e-06	9.658468e-09	3.770427e+01	6.345737e+02
1.210000e-06	5.376393e-06	9.806341e-09	3.851266e+01	6.439338e+02
1.220000e-06	5.487280e-06	9.946529e-09	3.930698e+01	6.528425e+02
1.230000e-06	5.596259e-06	1.007927e-08	4.008763e+01	6.613386e+02
1.240000e-06	5.703216e-06	1.020384e-08	4.085379e+01	6.694584e+02
1.250000e-06	5.808038e-06	1.032202e-08	4.160466e+01	6.772325e+02
1.260000e-06	5.910701e-06	1.043458e-08	4.234006e+01	6.846845e+02
1.270000e-06	6.011262e-06	1.054167e-08	4.306041e+01	6.918300e+02
1.280000e-06	6.109667e-06	1.064442e-08	4.376532e+01	6.986780e+02
1.290000e-06	6.205699e-06	1.074149e-08	4.445322e+01	7.052324e+02
1.300000e-06	6.299464e-06	1.083394e-08	4.512489e+01	7.114946e+02
1.310000e-06	6.391011e-06	1.092254e-08	4.578067e+01	7.174659e+02
1.320000e-06	6.480234e-06	1.100935e-08	4.641979e+01	7.231501e+02
1.330000e-06	6.567108e-06	1.109259e-08	4.704210e+01	7.285551e+02
1.340000e-06	6.651618e-06	1.117047e-08	4.764747e+01	7.336929e+02
1.350000e-06	6.733825e-06	1.124338e-08	4.823635e+01	7.385800e+02
1.360000e-06	6.813611e-06	1.131368e-08	4.880787e+01	7.432354e+02
1.370000e-06	6.890867e-06	1.138358e-08	4.936128e+01	7.476789e+02
1.380000e-06	6.965502e-06	1.145039e-08	4.989591e+01	7.519287e+02
1.390000e-06	7.037518e-06	1.151336e-08	5.041178e+01	7.559992e+02
1.400000e-06	7.107132e-06	1.157392e-08	5.091045e+01	7.598993e+02
1.410000e-06	7.174253e-06	1.163151e-08	5.139126e+01	7.636319e+02
1.420000e-06	7.238685e-06	1.168614e-08	5.185280e+01	7.671935e+02
1.430000e-06	7.300575e-06	1.173641e-08	5.229614e+01	7.705757e+02
1.440000e-06	7.360045e-06	1.178163e-08	5.272214e+01	7.737669e+02
1.450000e-06	7.416941e-06	1.182410e-08	5.312970e+01	7.767548e+02
1.460000e-06	7.471169e-06	1.186341e-08	5.351815e+01	7.795284e+02
1.470000e-06	7.522413e-06	1.189988e-08	5.388522e+01	7.820807e+02
1.480000e-06	7.570544e-06	1.193395e-08	5.423000e+01	7.844099e+02
1.490000e-06	7.615940e-06	1.196522e-08	5.455519e+01	7.865205e+02
1.500000e-06	7.658715e-06	1.199501e-08	5.486160e+01	7.884228e+02
1.510000e-06	7.698698e-06	1.202375e-08	5.514801e+01	7.901321e+02
1.520000e-06	7.735965e-06	1.204925e-08	5.541496e+01	7.916667e+02
1.530000e-06	7.770585e-06	1.207191e-08	5.566295e+01	7.930461e+02
1.540000e-06	7.802373e-06	1.209310e-08	5.589066e+01	7.942883e+02
1.550000e-06	7.831437e-06	1.211185e-08	5.609886e+01	7.954078e+02
1.560000e-06	7.857695e-06	1.212723e-08	5.628695e+01	7.964146e+02
1.570000e-06	7.880969e-06	1.213810e-08	5.645367e+01	7.973129e+02
1.580000e-06	7.901489e-06	1.214809e-08	5.660066e+01	7.981012e+02
1.590000e-06	7.919205e-06	1.215804e-08	5.672756e+01	7.987735e+02
1.600000e-06	7.933936e-06	1.216645e-08	5.683309e+01	7.993205e+02
1.610000e-06	7.945624e-06	1.217458e-08	5.691681e+01	7.997310e+02
1.620000e-06	7.954239e-06	1.218053e-08	5.697852e+01	7.999946e+02
1.630000e-06	7.959954e-06	1.218421e-08	5.701946e+01	8.001028e+02
1.640000e-06	7.962909e-06	1.218444e-08	5.704063e+01	8.000508e+02
1.650000e-06	7.963031e-06	1.218394e-08	5.704150e+01	7.998380e+02
1.660000e-06	7.960494e-06	1.217103e-08	5.702333e+01	7.994683e+02
1.670000e-06	7.955386e-06	1.215807e-08	5.698674e+01	7.989501e+02
1.680000e-06	7.947544e-06	1.215154e-08	5.693057e+01	7.982950e+02
1.690000e-06	7.937023e-06	1.214139e-08	5.685520e+01	7.975174e+02
1.700000e-06	7.923674e-06	1.213002e-08	5.675958e+01	7.966323e+02
1.710000e-06	7.907606e-06	1.212264e-08	5.664448e+01	7.956553e+02
1.720000e-06	7.889268e-06	1.211652e-08	5.651311e+01	7.946004e+02
1.730000e-06	7.868677e-06	1.208160e-08	5.636562e+01	7.934800e+02
1.740000e-06	7.845261e-06	1.194520e-08	5.619788e+01	7.923038e+02
1.750000e-06	7.818373e-06	1.196343e-08	5.600527e+01	7.910786e+02
1.760000e-06	7.787816e-06	1.201724e-08	5.578638e+01	7.898081e+02
1.770000e-06	7.754266e-06	1.197501e-08	5.554606e+01	7.884923e+02
1.780000e-06	7.718460e-06	1.195032e-08	5.528957e+01	7.871280e+02
1.790000e-06	7.680321e-06	1.203618e-08	5.501637e+01	7.857080e+02
1.800000e-06	7.640051e-06	1.197605e-08	5.472790e+01	7.842212e+02
1.810000e-06	7.597703e-06	1.182495e-08	5.442455e+01	7.826532e+02
1.820000e-06	7.552741e-06	1.202675e-08	5.410248e+01	7.809858e+02
1.830000e-06	7.505129e-06	1.190063e-08	5.376142e+01	7.791978e+02
1.840000e-06	7.454669e-06	1.190589e-08	5.339996e+01	7.772665e+02
1.850000e-06	7.401125e-06	1.191086e-08	5.301641e+01	7.751682e+02
1.860000e-06	7.344824e-06	1.173147e-08	5.261310e+01	7.728805e+02
1.870000e-06	7.285921e-06	1.183645e-08	5.219117e+01	7.703838e+02
1.880000e-06	7.224425e-06	1.167198e-08	5.175065e+01	7.676634e+02
1.890000e-06	7.160119e-06	1.171052e-08	5.129001e+01	7.647107e+02
1.900000e-06	7.093019e-06	1.169392e-08	5.080935e+01	7.615246e+02
1.910000e-06	7.023207e-06	1.153502e-08	5.030927e+01	7.581116e+02
1.920000e-06	6.950624e-06	1.154807e-08	4.978933e+01	7.544855e+02
1.930000e-06	6.875395e-06	1.145419e-08	4.925045e+01	7.506658e+02
1.940000e-06	6.797352e-06	1.147533e-08	4.869140e+01	7.466757e+02
1.950000e-06	6.716670e-06	1.133378e-08	4.811345e+01	7.425394e+02
1.960000e-06	6.633601e-06	1.128538e-08	4.751841e+01	7.382788e+02
1.970000e-06	6.548057e-06	1.125848e-08	4.690564e+01	7.339111e+02
1.980000e-06	6.460109e-06	1.110396e-08	4.627564e+01	7.294464e+02
1.990000e-06	6.369866e-06	1.108354e-08	4.562920e+01	7.248861e+02
2.000000e-06	6.277433e-06	1.100134e-08	4.496707e+01	7.202229e+02
2.010000e-06	6.182680e-06	1.095936e-08	4.428833e+01	7.154412e+02
2.020000e-06	6.085657e-06	1.083382e-08	4.359332e+01	7.105197e+02
2.030000e-06	5.986515e-06	1.076367e-08	4.288315e+01	7.054338e+02
2.040000e-06	5.885338e-06	1.070433e-08	4.215839e+01	7.001588e+02
2.050000e-06	5.782015e-06	1.060977e-08	4.141825e+01	6.946734e+02
2.060000e-06	5.676594e-06	1.051090e-08	4.066309e+01	6.889625e+02
2.070000e-06	5.569285e-06	1.040821e-08	3.989440e+01	6.830187e+02
2.080000e-06	5.460061e-06	1.034329e-08	3.911200e+01	6.768432e+02
2.090000e-06	5.348871e-06	1.022418e-08	3.831552e+01	6.704448e+02
2.100000e-06	5.235655e-06	1.013854e-08	3.750452e+01	6.638384e+02
2.110000e-06	5.120448e-06	1.004137e-08	3.667926e+01	6.570415e+02
2.120000e-06	5.003276e-06	9.938527e-09	3.583992e+01	6.500710e+02
2.130000e-06	4.884173e-06	9.805465e-09	3.498675e+01	6.429398e+02
2.140000e-06	4.763194e-06	9.698662e-09	3.412014e+01	6.356533e+02
2.150000e-06	4.640527e-06	9.601697e-09	3.324144e+01	6.282083e+02
2.160000e-06	4.516193e-06	9.485803e-09	3.235080e+01	6.205916e+02
2.170000e-06	4.390187e-06	9.357419e-09	3.144818e+01	6.127814e+02
2.180000e-06	4.262523e-06	9.228663e-09	3.053369e+01	6.047493e+02
2.190000e-06	4.133279e-06	9.106477e-09	2.960788e+01	5.964639e+02
2.200000e-06	4.002587e-06	8.968027e-09	2.867169e+01	5.878943e+02
2.210000e-06	3.870340e-06	8.837523e-09	2.772437e+01	5.790142e+02
2.220000e-06	3.736647e-06	8.700158e-09	2.676669e+01	5.698051e+02
2.230000e-06	3.601569e-06	8.557168e-09	2.579909e+01	5.602577e+02
2.240000e-06	3.465095e-06	8.398964e-09	2.482148e+01	5.503729e+02
2.250000e-06	3.327307e-06	8.246883e-09	2.383447e+01	5.401603e+02
2.260000e-06	3.188250e-06	8.092542e-09	2.283836e+01	5.296349e+02
2.270000e-06	3.047961e-06	7.931196e-09	2.183343e+01	5.188138e+02
2.280000e-06	2.906479e-06	7.760679e-09	2.081995e+01	5.077116e+02
2.290000e-06	2.763878e-06	7.588821e-09	1.979846e+01	4.963357e+02
2.300000e-06	2.620210e-06	7.414159e-09	1.876932e+01	4.846834e+02
2.310000e-06	2.475589e-06	7.233257e-09	1.773337e+01	4.727397e+02
2.320000e-06	2.330202e-06	7.046692e-09	1.669191e+01	4.604774e+02
2.330000e-06	2.184069e-06	6.846573e-09	1.564512e+01	4.478593e+02
2.340000e-06	2.037134e-06	6.639131e-09	1.459258e+01	4.348412e+02
2.350000e-06	1.889492e-06	6.430486e-09	1.353498e+01	4.213772e+02
2.360000e-06	1.741222e-06	6.220925e-09	1.247288e+01	4.074249e+02
2.370000e-06	1.592365e-06	6.001494e-09	1.140657e+01	3.929498e+02
2.380000e-06	1.443045e-06	5.772339e-09	1.033695e+01	3.779290e+02
2.390000e-06	1.293317e-06	5.536796e-09	9.264405e+00	3.623524e+02
2.400000e-06	1.143177e-06	5.292076e-09	8.188907e+00	3.462217e+02
2.410000e-06	9.927023e-07	5.039731e-09	7.111015e+00	3.295464e+02
2.420000e-06	8.419276e-07	4.783072e-09	6.030971e+00	3.123382e+02
2.430000e-06	6.908858e-07	4.513733e-09	4.949016e+00	2.946034e+02
2.440000e-06	5.396151e-07	4.230211e-09	3.865420e+00	2.763355e+02
2.450000e-06	3.880581e-07	3.938907e-09	2.779773e+00	2.575076e+02
2.460000e-06	2.362818e-07	3.643043e-09	1.692555e+00	2.380683e+02
2.470000e-06	8.434412e-08	3.336635e-09	6.041814e-01	2.179396e+02
2.480000e-06	-6.767525e-08	3.013779e-09	-4.847775e-01	1.970190e+02
2.490000e-06	-2.196640e-07	2.676650e-09	-1.573517e+00	1.751861e+02
2.500000e-06	-3.715600e-07	2.325160e-09	-2.661592e+00	1.523128e+02
2.510000e-06	-5.233225e-07	1.956860e-09	-3.748711e+00	1.282768e+02
2.520000e-06	-6.749212e-07	1.572374e-09	-4.834656e+00	1.029765e+02
2.530000e-06	-8.262651e-07	1.172238e-09	-5.918777e+00	7.634715e+01
2.540000e-06	-9.773264e-07	7.508591e-10	-7.000872e+00	4.837415e+01
2.550000e-06	-1.128055e-06	3.073595e-10	-8.080583e+00	1.910418e+01
2.560000e-06	-1.278378e-06	-1.523736e-10	-9.157390e+00	-1.134885e+01
2.570000e-06	-1.428249e-06	-6.263168e-10	-1.023096e+01	-4.280338e+01
2.580000e-06	-1.577617e-06	-1.117984e-09	-1.130093e+01	-7.501577e+01
2.590000e-06	-1.726468e-06	-1.625572e-09	-1.236719e+01	-1.076916e+02
2.600000e-06	-1.874700e-06	-2.139802e-09	-1.342902e+01	-1.405016e+02
2.610000e-06	-2.022228e-06	-2.649389e-09	-1.448580e+01	-1.731013e+02
2.620000e-06	-2.168963e-06	-3.144970e-09	-1.553691e+01	-2.051519e+02
2.630000e-06	-2.314841e-06	-3.621613e-09	-1.658187e+01	-2.363402e+02
2.640000e-06	-2.459888e-06	-4.078397e-09	-1.762089e+01	-2.663972e+02
2.650000e-06	-2.603959e-06	-4.514545e-09	-1.865291e+01	-2.951115e+02
2.660000e-06	-2.746962e-06	-4.924942e-09	-1.967729e+01	-3.223379e+02
2.670000e-06	-2.888873e-06	-5.311001e-09	-2.069383e+01	-3.480002e+02
2.680000e-06	-3.029668e-06	-5.673392e-09	-2.170239e+01	-3.720879e+02
2.690000e-06	-3.169284e-06	-6.014428e-09	-2.270250e+01	-3.946483e+02
2.700000e-06	-3.307571e-06	-6.339924e-09	-2.369309e+01	-4.157740e+02
2.710000e-06	-3.444538e-06	-6.649472e-09	-2.467423e+01	-4.355886e+02
2.720000e-06	-3.580222e-06	-6.940490e-09	-2.564617e+01	-4.542313e+02
2.730000e-06	-3.714624e-06	-7.211702e-09	-2.660893e+01	-4.718427e+02
2.740000e-06	-3.847758e-06	-7.467400e-09	-2.756261e+01	-4.885526e+02
2.750000e-06	-3.979490e-06	-7.711936e-09	-2.850624e+01	-5.044714e+02
2.760000e-06	-4.109814e-06	-7.947765e-09	-2.943979e+01	-5.196851e+02
2.770000e-06	-4.238766e-06	-8.173291e-09	-3.036351e+01	-5.342543e+02
2.780000e-06	-4.366237e-06	-8.386965e-09	-3.127662e+01	-5.482163e+02
2.790000e-06	-4.492228e-06	-8.590258e-09	-3.217913e+01	-5.615900e+02
2.800000e-06	-4.616671e-06	-8.782325e-09	-3.307056e+01	-5.743822e+02
2.810000e-06	-4.739466e-06	-8.964627e-09	-3.395017e+01	-5.865943e+02
2.820000e-06	-4.860612e-06	-9.139190e-09	-3.481797e+01	-5.982285e+02
2.830000e-06	-4.979948e-06	-9.304358e-09	-3.567281e+01	-6.092921e+02
2.840000e-06	-5.097346e-06	-9.461992e-09	-3.651377e+01	-6.198007e+02
2.850000e-06	-5.212667e-06	-9.616531e-09	-3.733985e+01	-6.297789e+02
2.860000e-06	-5.325847e-06	-9.768387e-09	-3.815059e+01	-6.392587e+02
2.870000e-06	-5.436929e-06	-9.910975e-09	-3.894630e+01	-6.482775e+02
2.880000e-06	-5.545959e-06	-1.004171e-08	-3.972731e+01	-6.568741e+02
2.890000e-06	-5.653126e-06	-1.016681e-08	-4.049498e+01	-6.650857e+02
2.900000e-06	-5.758390e-06	-1.028710e-08	-4.124902e+01	-6.729447e+02
2.910000e-06	-5.861543e-06	-1.040071e-08	-4.198793e+01	-6.804762e+02
2.920000e-06	-5.962426e-06	-1.050958e-08	-4.271059e+01	-6.876981e+02
2.930000e-06	-6.061125e-06	-1.061546e-08	-4.341760e+01	-6.946209e+02
2.940000e-06	-6.157722e-06	-1.071627e-08	-4.410955e+01	-7.012494e+02
