# Temperatura_=_34.85
# Concentracion g/m^3_=_10000.0
# C_Vs_to_Am_M_A/Vsm_=_65563218390.804596
# pendiente_HvsI_1/m_=_3716.3
# ordenada_HvsI_A/m_=_1297.0
# frecuencia_Hz_=_302548.5442436987

Tiempo_(s)	Campo_(V.s)	Magnetizacion_(V.s)	Campo_(kA/m)	Magnetizacion_(A/m)
0.000000e+00	-7.879585e-06	-1.096761e-08	-5.685424e+01	-7.184769e+02
1.000000e-08	-7.875967e-06	-1.096726e-08	-5.682814e+01	-7.181652e+02
2.000000e-08	-7.869747e-06	-1.096229e-08	-5.678326e+01	-7.177299e+02
3.000000e-08	-7.860939e-06	-1.095674e-08	-5.671971e+01	-7.171830e+02
4.000000e-08	-7.849368e-06	-1.094974e-08	-5.663622e+01	-7.165394e+02
5.000000e-08	-7.834858e-06	-1.094095e-08	-5.653153e+01	-7.158154e+02
6.000000e-08	-7.817508e-06	-1.093096e-08	-5.640634e+01	-7.150270e+02
7.000000e-08	-7.797862e-06	-1.091935e-08	-5.626458e+01	-7.141878e+02
8.000000e-08	-7.775941e-06	-1.091353e-08	-5.610641e+01	-7.133080e+02
9.000000e-08	-7.751057e-06	-1.094291e-08	-5.592687e+01	-7.123932e+02
1.000000e-07	-7.722924e-06	-1.092618e-08	-5.572388e+01	-7.114440e+02
1.100000e-07	-7.691896e-06	-1.086921e-08	-5.550000e+01	-7.104561e+02
1.200000e-07	-7.658179e-06	-1.083574e-08	-5.525672e+01	-7.094210e+02
1.300000e-07	-7.621848e-06	-1.081041e-08	-5.499457e+01	-7.083269e+02
1.400000e-07	-7.583244e-06	-1.077477e-08	-5.471603e+01	-7.071602e+02
1.500000e-07	-7.542560e-06	-1.072961e-08	-5.442248e+01	-7.059061e+02
1.600000e-07	-7.499487e-06	-1.075380e-08	-5.411169e+01	-7.045501e+02
1.700000e-07	-7.453683e-06	-1.071581e-08	-5.378120e+01	-7.030790e+02
1.800000e-07	-7.405229e-06	-1.064046e-08	-5.343158e+01	-7.014811e+02
1.900000e-07	-7.353887e-06	-1.068059e-08	-5.306113e+01	-6.997470e+02
2.000000e-07	-7.299518e-06	-1.063230e-08	-5.266884e+01	-6.978694e+02
2.100000e-07	-7.242446e-06	-1.059451e-08	-5.225704e+01	-6.958433e+02
2.200000e-07	-7.182736e-06	-1.059259e-08	-5.182621e+01	-6.936655e+02
2.300000e-07	-7.120504e-06	-1.052608e-08	-5.137718e+01	-6.913350e+02
2.400000e-07	-7.055619e-06	-1.048821e-08	-5.090902e+01	-6.888524e+02
2.500000e-07	-6.987929e-06	-1.043328e-08	-5.042061e+01	-6.862198e+02
2.600000e-07	-6.917650e-06	-1.040685e-08	-4.991352e+01	-6.834409e+02
2.700000e-07	-6.844715e-06	-1.036235e-08	-4.938726e+01	-6.805206e+02
2.800000e-07	-6.768987e-06	-1.030484e-08	-4.884086e+01	-6.774647e+02
2.900000e-07	-6.690483e-06	-1.025167e-08	-4.827442e+01	-6.742796e+02
3.000000e-07	-6.609304e-06	-1.021137e-08	-4.768868e+01	-6.709718e+02
3.100000e-07	-6.525808e-06	-1.018180e-08	-4.708622e+01	-6.675468e+02
3.200000e-07	-6.440142e-06	-1.010641e-08	-4.646811e+01	-6.640088e+02
3.300000e-07	-6.352179e-06	-1.005832e-08	-4.583342e+01	-6.603599e+02
3.400000e-07	-6.261872e-06	-1.001366e-08	-4.518182e+01	-6.565993e+02
3.500000e-07	-6.169341e-06	-9.946765e-09	-4.451418e+01	-6.527232e+02
3.600000e-07	-6.074617e-06	-9.882736e-09	-4.383070e+01	-6.487249e+02
3.700000e-07	-5.977656e-06	-9.825063e-09	-4.313110e+01	-6.445948e+02
3.800000e-07	-5.878443e-06	-9.762754e-09	-4.241523e+01	-6.403218e+02
3.900000e-07	-5.777087e-06	-9.681247e-09	-4.168391e+01	-6.358939e+02
4.000000e-07	-5.673788e-06	-9.609712e-09	-4.093857e+01	-6.312996e+02
4.100000e-07	-5.568527e-06	-9.539824e-09	-4.017907e+01	-6.265290e+02
4.200000e-07	-5.461234e-06	-9.467331e-09	-3.940491e+01	-6.215751e+02
4.300000e-07	-5.351984e-06	-9.381817e-09	-3.861663e+01	-6.164338e+02
4.400000e-07	-5.240921e-06	-9.299775e-09	-3.781527e+01	-6.111046e+02
4.500000e-07	-5.127872e-06	-9.223815e-09	-3.699958e+01	-6.055898e+02
4.600000e-07	-5.012706e-06	-9.139190e-09	-3.616861e+01	-5.998933e+02
4.700000e-07	-4.895612e-06	-9.049981e-09	-3.532373e+01	-5.940200e+02
4.800000e-07	-4.776704e-06	-8.964373e-09	-3.446576e+01	-5.879732e+02
4.900000e-07	-4.656062e-06	-8.871505e-09	-3.359529e+01	-5.817540e+02
5.000000e-07	-4.533732e-06	-8.760768e-09	-3.271262e+01	-5.753596e+02
5.100000e-07	-4.409696e-06	-8.654149e-09	-3.181766e+01	-5.687825e+02
5.200000e-07	-4.284077e-06	-8.552225e-09	-3.091127e+01	-5.620107e+02
5.300000e-07	-4.156981e-06	-8.445810e-09	-2.999422e+01	-5.550283e+02
5.400000e-07	-4.028394e-06	-8.328609e-09	-2.906642e+01	-5.478167e+02
5.500000e-07	-3.898348e-06	-8.215955e-09	-2.812809e+01	-5.403565e+02
5.600000e-07	-3.766718e-06	-8.106263e-09	-2.717832e+01	-5.326291e+02
5.700000e-07	-3.633544e-06	-7.984992e-09	-2.621742e+01	-5.246189e+02
5.800000e-07	-3.499108e-06	-7.851488e-09	-2.524741e+01	-5.163143e+02
5.900000e-07	-3.363409e-06	-7.718258e-09	-2.426829e+01	-5.077087e+02
6.000000e-07	-3.226428e-06	-7.585849e-09	-2.327992e+01	-4.988000e+02
6.100000e-07	-3.088198e-06	-7.445123e-09	-2.228254e+01	-4.895900e+02
6.200000e-07	-2.948595e-06	-7.300330e-09	-2.127525e+01	-4.800819e+02
6.300000e-07	-2.807623e-06	-7.150762e-09	-2.025808e+01	-4.702789e+02
6.400000e-07	-2.665467e-06	-6.993934e-09	-1.923238e+01	-4.601809e+02
6.500000e-07	-2.522329e-06	-6.828958e-09	-1.819957e+01	-4.497831e+02
6.600000e-07	-2.378332e-06	-6.664587e-09	-1.716058e+01	-4.390737e+02
6.700000e-07	-2.233372e-06	-6.498223e-09	-1.611464e+01	-4.280340e+02
6.800000e-07	-2.087537e-06	-6.324898e-09	-1.506239e+01	-4.166385e+02
6.900000e-07	-1.941091e-06	-6.146966e-09	-1.400572e+01	-4.048569e+02
7.000000e-07	-1.794030e-06	-5.962745e-09	-1.294462e+01	-3.926563e+02
7.100000e-07	-1.646406e-06	-5.769243e-09	-1.187946e+01	-3.800046e+02
7.200000e-07	-1.498330e-06	-5.567197e-09	-1.081103e+01	-3.668734e+02
7.300000e-07	-1.349804e-06	-5.361377e-09	-9.739356e+00	-3.532406e+02
7.400000e-07	-1.200845e-06	-5.145864e-09	-8.664560e+00	-3.390923e+02
7.500000e-07	-1.051507e-06	-4.921956e-09	-7.587026e+00	-3.244224e+02
7.600000e-07	-9.018733e-07	-4.694123e-09	-6.507364e+00	-3.092315e+02
7.700000e-07	-7.519917e-07	-4.459560e-09	-5.425911e+00	-2.935239e+02
7.800000e-07	-6.018990e-07	-4.213591e-09	-4.342934e+00	-2.773027e+02
7.900000e-07	-4.515896e-07	-3.958012e-09	-3.258393e+00	-2.605651e+02
8.000000e-07	-3.011172e-07	-3.697969e-09	-2.172677e+00	-2.432975e+02
8.100000e-07	-1.505334e-07	-3.427507e-09	-1.086156e+00	-2.254709e+02
8.200000e-07	1.791425e-10	-3.142867e-09	1.292583e-03	-2.070387e+02
8.300000e-07	1.509572e-07	-2.846206e-09	1.089214e+00	-1.879368e+02
8.400000e-07	3.017165e-07	-2.540091e-09	2.177001e+00	-1.680860e+02
8.500000e-07	4.523626e-07	-2.221711e-09	3.263971e+00	-1.473980e+02
8.600000e-07	6.028858e-07	-1.889791e-09	4.350053e+00	-1.257835e+02
8.700000e-07	7.532498e-07	-1.546565e-09	5.434988e+00	-1.031628e+02
8.800000e-07	9.033894e-07	-1.190778e-09	6.518303e+00	-7.947683e+01
8.900000e-07	1.053269e-06	-8.172274e-10	7.599745e+00	-5.469869e+01
9.000000e-07	1.202796e-06	-4.246589e-10	8.678634e+00	-2.884303e+01
9.100000e-07	1.351913e-06	-1.744765e-11	9.754576e+00	-1.973242e+00
9.200000e-07	1.500591e-06	4.029711e-10	1.082734e+01	2.579521e+01
9.300000e-07	1.648784e-06	8.366670e-10	1.189661e+01	5.429572e+01
9.400000e-07	1.796402e-06	1.281288e-09	1.296173e+01	8.331596e+01
9.500000e-07	1.943358e-06	1.729799e-09	1.402208e+01	1.126075e+02
9.600000e-07	2.089617e-06	2.178952e-09	1.507739e+01	1.418988e+02
9.700000e-07	2.235112e-06	2.623482e-09	1.612720e+01	1.709107e+02
9.800000e-07	2.379776e-06	3.057416e-09	1.717100e+01	1.993724e+02
9.900000e-07	2.523554e-06	3.477088e-09	1.820841e+01	2.270372e+02
1.000000e-06	2.666328e-06	3.878180e-09	1.923858e+01	2.536958e+02
1.010000e-06	2.808046e-06	4.260308e-09	2.026113e+01	2.791864e+02
1.020000e-06	2.948603e-06	4.623755e-09	2.127531e+01	3.034006e+02
1.030000e-06	3.087821e-06	4.969846e-09	2.227982e+01	3.262850e+02
1.040000e-06	3.225787e-06	5.295684e-09	2.327530e+01	3.478375e+02
1.050000e-06	3.362534e-06	5.602659e-09	2.426198e+01	3.681007e+02
1.060000e-06	3.497926e-06	5.893866e-09	2.523888e+01	3.871516e+02
1.070000e-06	3.632087e-06	6.170020e-09	2.620691e+01	4.050900e+02
1.080000e-06	3.765095e-06	6.430508e-09	2.716661e+01	4.220260e+02
1.090000e-06	3.896739e-06	6.675627e-09	2.811648e+01	4.380692e+02
1.100000e-06	4.026887e-06	6.910132e-09	2.905554e+01	4.533189e+02
1.110000e-06	4.155575e-06	7.133778e-09	2.998408e+01	4.678578e+02
1.120000e-06	4.282807e-06	7.345405e-09	3.090210e+01	4.817485e+02
1.130000e-06	4.408608e-06	7.545102e-09	3.180981e+01	4.950329e+02
1.140000e-06	4.532926e-06	7.734228e-09	3.270681e+01	5.077350e+02
1.150000e-06	4.655630e-06	7.914804e-09	3.359216e+01	5.198649e+02
1.160000e-06	4.776676e-06	8.087148e-09	3.446556e+01	5.314245e+02
1.170000e-06	4.896002e-06	8.252616e-09	3.532655e+01	5.424135e+02
1.180000e-06	5.013572e-06	8.411983e-09	3.617486e+01	5.528340e+02
1.190000e-06	5.129265e-06	8.564293e-09	3.700962e+01	5.626951e+02
1.200000e-06	5.242903e-06	8.708520e-09	3.782957e+01	5.720146e+02
1.210000e-06	5.354540e-06	8.845615e-09	3.863507e+01	5.808198e+02
1.220000e-06	5.464276e-06	8.974567e-09	3.942686e+01	5.891455e+02
1.230000e-06	5.572120e-06	9.095855e-09	4.020500e+01	5.970320e+02
1.240000e-06	5.677934e-06	9.210155e-09	4.096849e+01	6.045217e+02
1.250000e-06	5.781603e-06	9.317453e-09	4.171650e+01	6.116549e+02
1.260000e-06	5.883231e-06	9.420521e-09	4.244978e+01	6.184674e+02
1.270000e-06	5.982740e-06	9.518991e-09	4.316778e+01	6.249878e+02
1.280000e-06	6.079931e-06	9.613089e-09	4.386905e+01	6.312366e+02
1.290000e-06	6.174855e-06	9.703347e-09	4.455396e+01	6.372262e+02
1.300000e-06	6.267645e-06	9.789017e-09	4.522348e+01	6.429621e+02
1.310000e-06	6.358188e-06	9.870888e-09	4.587678e+01	6.484453e+02
1.320000e-06	6.446368e-06	9.949234e-09	4.651303e+01	6.536744e+02
1.330000e-06	6.532299e-06	1.002254e-08	4.713306e+01	6.586480e+02
1.340000e-06	6.615997e-06	1.009118e-08	4.773697e+01	6.633673e+02
1.350000e-06	6.697331e-06	1.015714e-08	4.832383e+01	6.678369e+02
1.360000e-06	6.776198e-06	1.022209e-08	4.889288e+01	6.720654e+02
1.370000e-06	6.852485e-06	1.028662e-08	4.944332e+01	6.760648e+02
1.380000e-06	6.926083e-06	1.034873e-08	4.997436e+01	6.798496e+02
1.390000e-06	6.997094e-06	1.040568e-08	5.048674e+01	6.834347e+02
1.400000e-06	7.065723e-06	1.045673e-08	5.098192e+01	6.868339e+02
1.410000e-06	7.131852e-06	1.050470e-08	5.145906e+01	6.900579e+02
1.420000e-06	7.195399e-06	1.055082e-08	5.191758e+01	6.931136e+02
1.430000e-06	7.256552e-06	1.059270e-08	5.235883e+01	6.960032e+02
1.440000e-06	7.315200e-06	1.063115e-08	5.278199e+01	6.987250e+02
1.450000e-06	7.371217e-06	1.066809e-08	5.318618e+01	7.012739e+02
1.460000e-06	7.424557e-06	1.070332e-08	5.357105e+01	7.036437e+02
1.470000e-06	7.474938e-06	1.073625e-08	5.393457e+01	7.058285e+02
1.480000e-06	7.522354e-06	1.076651e-08	5.427669e+01	7.078247e+02
1.490000e-06	7.567099e-06	1.079490e-08	5.459954e+01	7.096324e+02
1.500000e-06	7.609120e-06	1.081941e-08	5.490274e+01	7.112564e+02
1.510000e-06	7.648352e-06	1.084017e-08	5.518581e+01	7.127061e+02
1.520000e-06	7.684976e-06	1.085890e-08	5.545007e+01	7.139950e+02
1.530000e-06	7.718883e-06	1.087649e-08	5.569472e+01	7.151394e+02
1.540000e-06	7.750017e-06	1.089413e-08	5.591937e+01	7.161563e+02
1.550000e-06	7.778497e-06	1.090980e-08	5.612486e+01	7.170620e+02
1.560000e-06	7.804117e-06	1.092330e-08	5.630972e+01	7.178696e+02
1.570000e-06	7.826779e-06	1.093472e-08	5.647323e+01	7.185880e+02
1.580000e-06	7.846777e-06	1.094468e-08	5.661752e+01	7.192209e+02
1.590000e-06	7.864080e-06	1.095220e-08	5.674237e+01	7.197669e+02
1.600000e-06	7.878422e-06	1.095762e-08	5.684586e+01	7.202199e+02
1.610000e-06	7.889669e-06	1.096386e-08	5.692701e+01	7.205708e+02
1.620000e-06	7.897781e-06	1.096898e-08	5.698554e+01	7.208091e+02
1.630000e-06	7.903032e-06	1.097216e-08	5.702342e+01	7.209248e+02
1.640000e-06	7.905537e-06	1.097338e-08	5.704150e+01	7.209104e+02
1.650000e-06	7.905198e-06	1.097423e-08	5.703906e+01	7.207624e+02
1.660000e-06	7.902261e-06	1.096727e-08	5.701786e+01	7.204823e+02
1.670000e-06	7.896706e-06	1.095875e-08	5.697778e+01	7.200763e+02
1.680000e-06	7.888436e-06	1.095142e-08	5.691811e+01	7.195553e+02
1.690000e-06	7.877580e-06	1.094187e-08	5.683978e+01	7.189337e+02
1.700000e-06	7.863914e-06	1.093244e-08	5.674118e+01	7.182277e+02
1.710000e-06	7.847597e-06	1.092399e-08	5.662344e+01	7.174533e+02
1.720000e-06	7.829007e-06	1.091330e-08	5.648930e+01	7.166251e+02
1.730000e-06	7.808074e-06	1.087478e-08	5.633827e+01	7.157541e+02
1.740000e-06	7.784268e-06	1.080930e-08	5.616650e+01	7.148471e+02
1.750000e-06	7.757009e-06	1.082295e-08	5.596981e+01	7.139061e+02
1.760000e-06	7.726274e-06	1.083693e-08	5.574805e+01	7.129278e+02
1.770000e-06	7.692657e-06	1.081403e-08	5.550549e+01	7.119048e+02
1.780000e-06	7.656771e-06	1.081548e-08	5.524656e+01	7.108261e+02
1.790000e-06	7.618610e-06	1.085192e-08	5.497121e+01	7.096783e+02
1.800000e-06	7.578344e-06	1.079604e-08	5.468068e+01	7.084468e+02
1.810000e-06	7.535910e-06	1.077674e-08	5.437450e+01	7.071169e+02
1.820000e-06	7.490895e-06	1.083707e-08	5.404970e+01	7.056751e+02
1.830000e-06	7.443295e-06	1.075309e-08	5.370624e+01	7.041092e+02
1.840000e-06	7.392899e-06	1.077167e-08	5.334262e+01	7.024093e+02
1.850000e-06	7.339529e-06	1.070111e-08	5.295754e+01	7.005675e+02
1.860000e-06	7.283317e-06	1.062916e-08	5.255194e+01	6.985782e+02
1.870000e-06	7.224409e-06	1.065352e-08	5.212690e+01	6.964379e+02
1.880000e-06	7.162914e-06	1.057188e-08	5.168319e+01	6.941449e+02
1.890000e-06	7.098663e-06	1.059641e-08	5.121959e+01	6.916995e+02
1.900000e-06	7.031664e-06	1.053448e-08	5.073617e+01	6.891035e+02
1.910000e-06	6.961942e-06	1.045937e-08	5.023309e+01	6.863601e+02
1.920000e-06	6.889433e-06	1.044073e-08	4.970992e+01	6.834740e+02
1.930000e-06	6.814300e-06	1.039082e-08	4.916781e+01	6.804507e+02
1.940000e-06	6.736432e-06	1.037976e-08	4.860596e+01	6.772967e+02
1.950000e-06	6.655973e-06	1.028830e-08	4.802541e+01	6.740183e+02
1.960000e-06	6.573087e-06	1.025628e-08	4.742736e+01	6.706215e+02
1.970000e-06	6.487717e-06	1.019295e-08	4.681138e+01	6.671108e+02
1.980000e-06	6.399915e-06	1.010922e-08	4.617785e+01	6.634890e+02
1.990000e-06	6.309826e-06	1.008209e-08	4.552783e+01	6.597559e+02
2.000000e-06	6.217637e-06	1.001875e-08	4.486265e+01	6.559086e+02
2.010000e-06	6.123238e-06	9.963267e-09	4.418152e+01	6.519409e+02
2.020000e-06	6.026599e-06	9.879420e-09	4.348424e+01	6.478441e+02
2.030000e-06	5.927834e-06	9.827046e-09	4.277161e+01	6.436073e+02
2.040000e-06	5.827008e-06	9.763882e-09	4.204411e+01	6.392186e+02
2.050000e-06	5.724101e-06	9.690639e-09	4.130160e+01	6.346662e+02
2.060000e-06	5.619164e-06	9.611982e-09	4.054444e+01	6.299399e+02
2.070000e-06	5.512322e-06	9.536778e-09	3.977353e+01	6.250317e+02
2.080000e-06	5.403606e-06	9.465717e-09	3.898910e+01	6.199368e+02
2.090000e-06	5.292971e-06	9.379691e-09	3.819083e+01	6.146538e+02
2.100000e-06	5.180381e-06	9.308916e-09	3.737845e+01	6.091844e+02
2.110000e-06	5.065804e-06	9.223400e-09	3.655173e+01	6.035322e+02
2.120000e-06	4.949211e-06	9.126777e-09	3.571047e+01	5.977020e+02
2.130000e-06	4.830671e-06	9.022061e-09	3.485515e+01	5.916978e+02
2.140000e-06	4.710241e-06	8.938326e-09	3.398621e+01	5.855212e+02
2.150000e-06	4.588138e-06	8.852088e-09	3.310519e+01	5.791704e+02
2.160000e-06	4.464415e-06	8.754190e-09	3.221247e+01	5.726392e+02
2.170000e-06	4.339103e-06	8.647931e-09	3.130830e+01	5.659168e+02
2.180000e-06	4.212163e-06	8.542244e-09	3.039238e+01	5.589881e+02
2.190000e-06	4.083564e-06	8.431594e-09	2.946449e+01	5.518350e+02
2.200000e-06	3.953490e-06	8.312238e-09	2.852596e+01	5.444381e+02
2.210000e-06	3.821966e-06	8.198471e-09	2.757696e+01	5.367785e+02
2.220000e-06	3.689025e-06	8.081300e-09	2.661774e+01	5.288396e+02
2.230000e-06	3.554684e-06	7.955323e-09	2.564842e+01	5.206087e+02
2.240000e-06	3.418975e-06	7.820977e-09	2.466922e+01	5.120781e+02
2.250000e-06	3.282004e-06	7.692382e-09	2.368093e+01	5.032445e+02
2.260000e-06	3.143848e-06	7.557188e-09	2.268408e+01	4.941089e+02
2.270000e-06	3.004413e-06	7.413796e-09	2.167800e+01	4.846743e+02
2.280000e-06	2.863756e-06	7.265390e-09	2.066310e+01	4.749442e+02
2.290000e-06	2.722054e-06	7.117083e-09	1.964067e+01	4.649196e+02
2.300000e-06	2.579390e-06	6.962329e-09	1.861129e+01	4.545969e+02
2.310000e-06	2.435783e-06	6.799474e-09	1.757511e+01	4.439662e+02
2.320000e-06	2.291256e-06	6.630517e-09	1.653229e+01	4.330105e+02
2.330000e-06	2.145936e-06	6.452819e-09	1.548376e+01	4.217061e+02
2.340000e-06	1.999948e-06	6.269425e-09	1.443039e+01	4.100234e+02
2.350000e-06	1.853294e-06	6.084451e-09	1.337223e+01	3.979300e+02
2.360000e-06	1.705995e-06	5.898470e-09	1.230941e+01	3.853933e+02
2.370000e-06	1.558174e-06	5.702418e-09	1.124282e+01	3.723836e+02
2.380000e-06	1.409855e-06	5.495488e-09	1.017265e+01	3.588772e+02
2.390000e-06	1.261020e-06	5.279206e-09	9.098746e+00	3.448580e+02
2.400000e-06	1.111757e-06	5.054086e-09	8.021759e+00	3.303180e+02
2.410000e-06	9.621748e-07	4.823069e-09	6.942463e+00	3.152564e+02
2.420000e-06	8.123064e-07	4.588910e-09	5.861104e+00	2.996769e+02
2.430000e-06	6.622263e-07	4.346028e-09	4.778218e+00	2.835834e+02
2.440000e-06	5.119775e-07	4.091533e-09	3.694116e+00	2.669750e+02
2.450000e-06	3.615248e-07	3.829568e-09	2.608541e+00	2.498413e+02
2.460000e-06	2.108704e-07	3.560954e-09	1.521511e+00	2.321575e+02
2.470000e-06	6.012918e-08	3.282383e-09	4.338552e-01	2.138814e+02
2.480000e-06	-9.065725e-08	2.990051e-09	-6.541271e-01	1.949532e+02
2.490000e-06	-2.414650e-07	2.685023e-09	-1.742263e+00	1.752970e+02
2.500000e-06	-3.921865e-07	2.368275e-09	-2.829777e+00	1.548262e+02
2.510000e-06	-5.427698e-07	2.039767e-09	-3.916293e+00	1.334507e+02
2.520000e-06	-6.931623e-07	1.700035e-09	-5.001434e+00	1.110874e+02
2.530000e-06	-8.433309e-07	1.346142e-09	-6.084958e+00	8.767107e+01
2.540000e-06	-9.932728e-07	9.751231e-10	-7.166846e+00	6.316573e+01
2.550000e-06	-1.142982e-06	5.885187e-10	-8.247058e+00	3.757485e+01
2.560000e-06	-1.292315e-06	1.896014e-10	-9.324549e+00	1.094917e+01
2.570000e-06	-1.441101e-06	-2.235502e-10	-1.039810e+01	-1.660895e+01
2.580000e-06	-1.589372e-06	-6.556099e-10	-1.146793e+01	-4.494535e+01
2.590000e-06	-1.737074e-06	-1.103505e-09	-1.253366e+01	-7.385838e+01
2.600000e-06	-1.884067e-06	-1.559485e-09	-1.359427e+01	-1.031075e+02
2.610000e-06	-2.030351e-06	-2.016543e-09	-1.464977e+01	-1.324257e+02
2.620000e-06	-2.175940e-06	-2.468319e-09	-1.570025e+01	-1.615341e+02
2.630000e-06	-2.320740e-06	-2.908596e-09	-1.674503e+01	-1.901583e+02
2.640000e-06	-2.464622e-06	-3.333057e-09	-1.778320e+01	-2.180443e+02
2.650000e-06	-2.607437e-06	-3.741877e-09	-1.881366e+01	-2.449722e+02
2.660000e-06	-2.749116e-06	-4.131699e-09	-1.983593e+01	-2.707677e+02
2.670000e-06	-2.889740e-06	-4.500515e-09	-2.085059e+01	-2.953089e+02
2.680000e-06	-3.029304e-06	-4.849129e-09	-2.185760e+01	-3.185284e+02
2.690000e-06	-3.167681e-06	-5.180249e-09	-2.285604e+01	-3.404122e+02
2.700000e-06	-3.304838e-06	-5.497028e-09	-2.384568e+01	-3.609923e+02
2.710000e-06	-3.440716e-06	-5.796223e-09	-2.482609e+01	-3.803383e+02
2.720000e-06	-3.575302e-06	-6.077892e-09	-2.579719e+01	-3.985453e+02
2.730000e-06	-3.708656e-06	-6.343321e-09	-2.675939e+01	-4.157221e+02
2.740000e-06	-3.840680e-06	-6.593650e-09	-2.771199e+01	-4.319793e+02
2.750000e-06	-3.971287e-06	-6.831057e-09	-2.865437e+01	-4.474195e+02
2.760000e-06	-4.100532e-06	-7.057473e-09	-2.958692e+01	-4.621301e+02
2.770000e-06	-4.228406e-06	-7.274200e-09	-3.050958e+01	-4.761788e+02
2.780000e-06	-4.354819e-06	-7.480378e-09	-3.142170e+01	-4.896125e+02
2.790000e-06	-4.479727e-06	-7.676388e-09	-3.232296e+01	-5.024594e+02
2.800000e-06	-4.603035e-06	-7.861230e-09	-3.321267e+01	-5.147326e+02
2.810000e-06	-4.724703e-06	-8.036053e-09	-3.409055e+01	-5.264355e+02
2.820000e-06	-4.844680e-06	-8.202624e-09	-3.495624e+01	-5.375678e+02
2.830000e-06	-4.962825e-06	-8.360311e-09	-3.580870e+01	-5.481305e+02
2.840000e-06	-5.078994e-06	-8.512195e-09	-3.664690e+01	-5.581308e+02
2.850000e-06	-5.193045e-06	-8.659690e-09	-3.746982e+01	-5.675842e+02
2.860000e-06	-5.304935e-06	-8.801214e-09	-3.827715e+01	-5.765156e+02
2.870000e-06	-5.414803e-06	-8.932178e-09	-3.906989e+01	-5.849581e+02
2.880000e-06	-5.522775e-06	-9.053812e-09	-3.984895e+01	-5.929512e+02
2.890000e-06	-5.628923e-06	-9.171094e-09	-4.061485e+01	-6.005368e+02
2.900000e-06	-5.733113e-06	-9.282413e-09	-4.136663e+01	-6.077562e+02
2.910000e-06	-5.835089e-06	-9.386851e-09	-4.210242e+01	-6.146465e+02
2.920000e-06	-5.934888e-06	-9.486255e-09	-4.282251e+01	-6.212384e+02
2.930000e-06	-6.032633e-06	-9.583631e-09	-4.352778e+01	-6.275542e+02
2.940000e-06	-6.128231e-06	-9.678176e-09	-4.421755e+01	-6.336085e+02
