# Temperatura_=_61.8
# Concentracion g/m^3_=_10000.0
# C_Vs_to_Am_M_A/Vsm_=_65563218390.804596
# pendiente_HvsI_1/m_=_3716.3
# ordenada_HvsI_A/m_=_1297.0
# frecuencia_Hz_=_302552.17393288325

Tiempo_(s)	Campo_(V.s)	Magnetizacion_(V.s)	Campo_(kA/m)	Magnetizacion_(A/m)
0.000000e+00	-7.903518e-06	-1.187613e-08	-5.684901e+01	-7.786439e+02
1.000000e-08	-7.900039e-06	-1.187513e-08	-5.682399e+01	-7.782558e+02
2.000000e-08	-7.893982e-06	-1.187147e-08	-5.678041e+01	-7.777230e+02
3.000000e-08	-7.885375e-06	-1.186691e-08	-5.671850e+01	-7.770586e+02
4.000000e-08	-7.873920e-06	-1.185978e-08	-5.663611e+01	-7.762786e+02
5.000000e-08	-7.859490e-06	-1.184898e-08	-5.653232e+01	-7.754002e+02
6.000000e-08	-7.842252e-06	-1.183670e-08	-5.640833e+01	-7.744404e+02
7.000000e-08	-7.822690e-06	-1.182465e-08	-5.626762e+01	-7.734143e+02
8.000000e-08	-7.800840e-06	-1.181238e-08	-5.611046e+01	-7.723344e+02
9.000000e-08	-7.776103e-06	-1.182920e-08	-5.593253e+01	-7.712090e+02
1.000000e-07	-7.748128e-06	-1.181890e-08	-5.573130e+01	-7.700424e+02
1.100000e-07	-7.717106e-06	-1.176086e-08	-5.550817e+01	-7.688345e+02
1.200000e-07	-7.683378e-06	-1.172128e-08	-5.526557e+01	-7.675809e+02
1.300000e-07	-7.647047e-06	-1.169860e-08	-5.500424e+01	-7.662731e+02
1.400000e-07	-7.608359e-06	-1.166357e-08	-5.472597e+01	-7.648993e+02
1.500000e-07	-7.567563e-06	-1.160260e-08	-5.443253e+01	-7.634447e+02
1.600000e-07	-7.524426e-06	-1.159618e-08	-5.412225e+01	-7.618925e+02
1.700000e-07	-7.478598e-06	-1.159687e-08	-5.379261e+01	-7.602241e+02
1.800000e-07	-7.430060e-06	-1.150045e-08	-5.344348e+01	-7.584204e+02
1.900000e-07	-7.378676e-06	-1.152009e-08	-5.307389e+01	-7.564625e+02
2.000000e-07	-7.324316e-06	-1.150010e-08	-5.268288e+01	-7.543328e+02
2.100000e-07	-7.267195e-06	-1.142366e-08	-5.227202e+01	-7.520161e+02
2.200000e-07	-7.207406e-06	-1.142164e-08	-5.184196e+01	-7.495004e+02
2.300000e-07	-7.145043e-06	-1.136276e-08	-5.139340e+01	-7.467783e+02
2.400000e-07	-7.080062e-06	-1.131958e-08	-5.092600e+01	-7.438475e+02
2.500000e-07	-7.012337e-06	-1.125011e-08	-5.043885e+01	-7.407110e+02
2.600000e-07	-6.941955e-06	-1.120642e-08	-4.993261e+01	-7.373771e+02
2.700000e-07	-6.868897e-06	-1.115680e-08	-4.940711e+01	-7.338588e+02
2.800000e-07	-6.793034e-06	-1.108712e-08	-4.886143e+01	-7.301721e+02
2.900000e-07	-6.714402e-06	-1.103362e-08	-4.829584e+01	-7.263348e+02
3.000000e-07	-6.633152e-06	-1.098187e-08	-4.771142e+01	-7.223641e+02
3.100000e-07	-6.549536e-06	-1.094459e-08	-4.710999e+01	-7.182748e+02
3.200000e-07	-6.463709e-06	-1.087023e-08	-4.649264e+01	-7.140773e+02
3.300000e-07	-6.375588e-06	-1.080071e-08	-4.585880e+01	-7.097762e+02
3.400000e-07	-6.285103e-06	-1.074845e-08	-4.520795e+01	-7.053695e+02
3.500000e-07	-6.192342e-06	-1.067648e-08	-4.454073e+01	-7.008488e+02
3.600000e-07	-6.097375e-06	-1.060166e-08	-4.385765e+01	-6.962001e+02
3.700000e-07	-6.000162e-06	-1.053122e-08	-4.315840e+01	-6.914054e+02
3.800000e-07	-5.900669e-06	-1.045827e-08	-4.244277e+01	-6.864452e+02
3.900000e-07	-5.799091e-06	-1.036649e-08	-4.171213e+01	-6.813007e+02
4.000000e-07	-5.695583e-06	-1.027616e-08	-4.096761e+01	-6.759561e+02
4.100000e-07	-5.590088e-06	-1.019565e-08	-4.020880e+01	-6.704007e+02
4.200000e-07	-5.482563e-06	-1.011655e-08	-3.943538e+01	-6.646299e+02
4.300000e-07	-5.373100e-06	-1.003020e-08	-3.864803e+01	-6.586452e+02
4.400000e-07	-5.261760e-06	-9.939155e-09	-3.784717e+01	-6.524539e+02
4.500000e-07	-5.148391e-06	-9.849393e-09	-3.703173e+01	-6.460667e+02
4.600000e-07	-5.032947e-06	-9.748652e-09	-3.620136e+01	-6.394959e+02
4.700000e-07	-4.915592e-06	-9.640821e-09	-3.535723e+01	-6.327522e+02
4.800000e-07	-4.796466e-06	-9.537348e-09	-3.450038e+01	-6.258426e+02
4.900000e-07	-4.675638e-06	-9.431545e-09	-3.363127e+01	-6.187679e+02
5.000000e-07	-4.553086e-06	-9.316325e-09	-3.274977e+01	-6.115218e+02
5.100000e-07	-4.428808e-06	-9.199189e-09	-3.185586e+01	-6.040906e+02
5.200000e-07	-4.302876e-06	-9.083565e-09	-3.095005e+01	-5.964543e+02
5.300000e-07	-4.175352e-06	-8.962107e-09	-3.003278e+01	-5.885886e+02
5.400000e-07	-4.046397e-06	-8.830223e-09	-2.910523e+01	-5.804677e+02
5.500000e-07	-3.915979e-06	-8.699665e-09	-2.816714e+01	-5.720674e+02
5.600000e-07	-3.784003e-06	-8.572593e-09	-2.721785e+01	-5.633678e+02
5.700000e-07	-3.650527e-06	-8.441883e-09	-2.625778e+01	-5.543558e+02
5.800000e-07	-3.515653e-06	-8.300678e-09	-2.528765e+01	-5.450259e+02
5.900000e-07	-3.379506e-06	-8.155595e-09	-2.430836e+01	-5.353800e+02
6.000000e-07	-3.242174e-06	-8.006003e-09	-2.332055e+01	-5.254261e+02
6.100000e-07	-3.103504e-06	-7.848357e-09	-2.232311e+01	-5.151755e+02
6.200000e-07	-2.963355e-06	-7.686806e-09	-2.131504e+01	-5.046394e+02
6.300000e-07	-2.821925e-06	-7.520913e-09	-2.029775e+01	-4.938251e+02
6.400000e-07	-2.679408e-06	-7.348725e-09	-1.927264e+01	-4.827330e+02
6.500000e-07	-2.535886e-06	-7.168146e-09	-1.824031e+01	-4.713537e+02
6.600000e-07	-2.391462e-06	-6.986599e-09	-1.720148e+01	-4.596674e+02
6.700000e-07	-2.246137e-06	-6.802779e-09	-1.615618e+01	-4.476444e+02
6.800000e-07	-2.100003e-06	-6.614404e-09	-1.510506e+01	-4.352470e+02
6.900000e-07	-1.953159e-06	-6.421294e-09	-1.404883e+01	-4.224338e+02
7.000000e-07	-1.805673e-06	-6.221113e-09	-1.298798e+01	-4.091630e+02
7.100000e-07	-1.657660e-06	-6.011706e-09	-1.192334e+01	-3.953980e+02
7.200000e-07	-1.509216e-06	-5.793585e-09	-1.085560e+01	-3.811101e+02
7.300000e-07	-1.360436e-06	-5.569775e-09	-9.785446e+00	-3.662821e+02
7.400000e-07	-1.211260e-06	-5.335801e-09	-8.712443e+00	-3.509076e+02
7.500000e-07	-1.061623e-06	-5.093304e-09	-7.636118e+00	-3.349901e+02
7.600000e-07	-9.115441e-07	-4.845076e-09	-6.556622e+00	-3.185387e+02
7.700000e-07	-7.611163e-07	-4.589332e-09	-5.474614e+00	-3.015623e+02
7.800000e-07	-6.104248e-07	-4.322721e-09	-4.390709e+00	-2.840628e+02
7.900000e-07	-4.595016e-07	-4.048045e-09	-3.305137e+00	-2.660279e+02
8.000000e-07	-3.084093e-07	-3.767055e-09	-2.218349e+00	-2.474257e+02
8.100000e-07	-1.572273e-07	-3.472248e-09	-1.130916e+00	-2.282007e+02
8.200000e-07	-5.958294e-09	-3.161346e-09	-4.285726e-02	-2.082730e+02
8.300000e-07	1.454229e-07	-2.839329e-09	1.046008e+00	-1.875416e+02
8.400000e-07	2.967748e-07	-2.507605e-09	2.134664e+00	-1.658910e+02
8.500000e-07	4.480527e-07	-2.159853e-09	3.222786e+00	-1.432015e+02
8.600000e-07	5.992051e-07	-1.794019e-09	4.310007e+00	-1.193622e+02
8.700000e-07	7.501521e-07	-1.411514e-09	5.395749e+00	-9.428529e+01
8.800000e-07	9.008549e-07	-1.015372e-09	6.479736e+00	-6.792057e+01
8.900000e-07	1.051275e-06	-6.027057e-10	7.561691e+00	-4.026769e+01
9.000000e-07	1.201343e-06	-1.690407e-10	8.641106e+00	-1.138560e+01
9.100000e-07	1.350904e-06	2.840317e-10	9.716885e+00	1.860276e+01
9.200000e-07	1.499945e-06	7.547900e-10	1.078892e+01	4.951105e+01
9.300000e-07	1.648491e-06	1.239765e-09	1.185739e+01	8.109573e+01
9.400000e-07	1.796542e-06	1.732736e-09	1.292230e+01	1.130675e+02
9.500000e-07	1.943990e-06	2.225467e-09	1.398287e+01	1.451072e+02
9.600000e-07	2.090774e-06	2.714553e-09	1.503867e+01	1.768843e+02
9.700000e-07	2.236730e-06	3.192275e-09	1.608852e+01	2.080766e+02
9.800000e-07	2.381773e-06	3.650934e-09	1.713179e+01	2.383895e+02
9.900000e-07	2.525966e-06	4.087882e-09	1.816895e+01	2.675727e+02
1.000000e-06	2.669166e-06	4.505233e-09	1.919897e+01	2.954319e+02
1.010000e-06	2.811256e-06	4.902046e-09	2.022101e+01	3.218371e+02
1.020000e-06	2.952223e-06	5.276299e-09	2.123497e+01	3.467240e+02
1.030000e-06	3.092012e-06	5.630199e-09	2.224045e+01	3.700901e+02
1.040000e-06	3.230549e-06	5.962788e-09	2.323693e+01	3.919870e+02
1.050000e-06	3.367812e-06	6.275947e-09	2.422424e+01	4.125078e+02
1.060000e-06	3.503786e-06	6.571627e-09	2.520229e+01	4.317735e+02
1.070000e-06	3.638443e-06	6.851508e-09	2.617086e+01	4.499180e+02
1.080000e-06	3.771785e-06	7.114797e-09	2.712998e+01	4.670747e+02
1.090000e-06	3.903861e-06	7.362702e-09	2.807998e+01	4.833654e+02
1.100000e-06	4.034529e-06	7.600349e-09	2.901985e+01	4.988923e+02
1.110000e-06	4.163720e-06	7.828651e-09	2.994911e+01	5.137333e+02
1.120000e-06	4.291474e-06	8.046322e-09	3.086803e+01	5.279418e+02
1.130000e-06	4.417742e-06	8.251344e-09	3.177626e+01	5.415491e+02
1.140000e-06	4.542523e-06	8.443280e-09	3.267380e+01	5.545696e+02
1.150000e-06	4.665741e-06	8.626884e-09	3.356008e+01	5.670067e+02
1.160000e-06	4.787310e-06	8.805293e-09	3.443452e+01	5.788599e+02
1.170000e-06	4.907111e-06	8.976200e-09	3.529623e+01	5.901304e+02
1.180000e-06	5.025106e-06	9.138128e-09	3.614496e+01	6.008261e+02
1.190000e-06	5.141280e-06	9.293688e-09	3.698058e+01	6.109638e+02
1.200000e-06	5.255414e-06	9.443496e-09	3.780153e+01	6.205701e+02
1.210000e-06	5.367483e-06	9.587106e-09	3.860763e+01	6.296796e+02
1.220000e-06	5.477622e-06	9.723577e-09	3.939984e+01	6.383327e+02
1.230000e-06	5.585904e-06	9.851796e-09	4.017870e+01	6.465716e+02
1.240000e-06	5.692196e-06	9.971279e-09	4.094325e+01	6.544368e+02
1.250000e-06	5.796323e-06	1.008401e-08	4.169222e+01	6.619636e+02
1.260000e-06	5.898358e-06	1.019341e-08	4.242615e+01	6.691803e+02
1.270000e-06	5.998257e-06	1.029929e-08	4.314470e+01	6.761066e+02
1.280000e-06	6.095847e-06	1.039986e-08	4.384666e+01	6.827543e+02
1.290000e-06	6.191144e-06	1.049494e-08	4.453212e+01	6.891291e+02
1.300000e-06	6.284262e-06	1.058507e-08	4.520190e+01	6.952320e+02
1.310000e-06	6.375162e-06	1.067325e-08	4.585574e+01	7.010632e+02
1.320000e-06	6.463688e-06	1.075935e-08	4.649249e+01	7.066235e+02
1.330000e-06	6.549870e-06	1.083890e-08	4.711239e+01	7.119169e+02
1.340000e-06	6.633828e-06	1.091266e-08	4.771628e+01	7.169518e+02
1.350000e-06	6.715455e-06	1.098403e-08	4.830342e+01	7.217405e+02
1.360000e-06	6.794579e-06	1.105464e-08	4.887255e+01	7.262990e+02
1.370000e-06	6.871167e-06	1.112394e-08	4.942343e+01	7.306447e+02
1.380000e-06	6.945173e-06	1.119045e-08	4.995575e+01	7.347947e+02
1.390000e-06	7.016593e-06	1.125306e-08	5.046947e+01	7.387634e+02
1.400000e-06	7.085555e-06	1.131171e-08	5.096550e+01	7.425608e+02
1.410000e-06	7.152015e-06	1.136685e-08	5.144354e+01	7.461911e+02
1.420000e-06	7.215881e-06	1.141922e-08	5.190292e+01	7.496530e+02
1.430000e-06	7.277290e-06	1.146752e-08	5.234463e+01	7.529395e+02
1.440000e-06	7.336228e-06	1.151175e-08	5.276856e+01	7.560403e+02
1.450000e-06	7.392576e-06	1.155276e-08	5.317387e+01	7.589435e+02
1.460000e-06	7.446244e-06	1.159055e-08	5.355989e+01	7.616378e+02
1.470000e-06	7.496897e-06	1.162681e-08	5.392423e+01	7.641153e+02
1.480000e-06	7.544528e-06	1.166249e-08	5.426683e+01	7.663727e+02
1.490000e-06	7.589492e-06	1.169681e-08	5.459026e+01	7.684129e+02
1.500000e-06	7.631800e-06	1.172753e-08	5.489458e+01	7.702450e+02
1.510000e-06	7.671335e-06	1.175337e-08	5.517894e+01	7.718833e+02
1.520000e-06	7.708202e-06	1.177544e-08	5.544412e+01	7.733463e+02
1.530000e-06	7.742357e-06	1.179614e-08	5.568980e+01	7.746541e+02
1.540000e-06	7.773674e-06	1.181506e-08	5.591506e+01	7.758262e+02
1.550000e-06	7.802270e-06	1.183082e-08	5.612074e+01	7.768796e+02
1.560000e-06	7.828014e-06	1.184459e-08	5.630592e+01	7.778263e+02
1.570000e-06	7.850827e-06	1.185748e-08	5.647000e+01	7.786731e+02
1.580000e-06	7.870996e-06	1.187011e-08	5.661508e+01	7.794202e+02
1.590000e-06	7.888442e-06	1.188049e-08	5.674056e+01	7.800627e+02
1.600000e-06	7.902888e-06	1.188839e-08	5.684448e+01	7.805913e+02
1.610000e-06	7.914181e-06	1.189498e-08	5.692570e+01	7.809943e+02
1.620000e-06	7.922350e-06	1.189942e-08	5.698446e+01	7.812596e+02
1.630000e-06	7.927704e-06	1.190129e-08	5.702297e+01	7.813766e+02
1.640000e-06	7.930280e-06	1.190117e-08	5.704150e+01	7.813383e+02
1.650000e-06	7.930017e-06	1.190000e-08	5.703961e+01	7.811422e+02
1.660000e-06	7.927146e-06	1.189138e-08	5.701896e+01	7.807909e+02
1.670000e-06	7.921658e-06	1.188125e-08	5.697949e+01	7.802924e+02
1.680000e-06	7.913470e-06	1.187221e-08	5.692059e+01	7.796587e+02
1.690000e-06	7.902665e-06	1.186207e-08	5.684287e+01	7.789052e+02
1.700000e-06	7.889113e-06	1.185209e-08	5.674539e+01	7.780489e+02
1.710000e-06	7.872878e-06	1.184081e-08	5.662862e+01	7.771071e+02
1.720000e-06	7.854308e-06	1.182422e-08	5.649504e+01	7.760955e+02
1.730000e-06	7.833398e-06	1.178690e-08	5.634464e+01	7.750272e+02
1.740000e-06	7.809599e-06	1.171172e-08	5.617346e+01	7.739118e+02
1.750000e-06	7.782363e-06	1.170847e-08	5.597755e+01	7.727545e+02
1.760000e-06	7.751628e-06	1.172341e-08	5.575648e+01	7.715564e+02
1.770000e-06	7.717982e-06	1.169984e-08	5.551447e+01	7.703140e+02
1.780000e-06	7.682012e-06	1.168918e-08	5.525574e+01	7.690199e+02
1.790000e-06	7.643731e-06	1.172716e-08	5.498039e+01	7.676630e+02
1.800000e-06	7.603373e-06	1.169488e-08	5.469010e+01	7.662294e+02
1.810000e-06	7.560875e-06	1.163456e-08	5.438442e+01	7.647024e+02
1.820000e-06	7.515761e-06	1.170874e-08	5.405992e+01	7.630640e+02
1.830000e-06	7.467991e-06	1.164397e-08	5.371631e+01	7.612951e+02
1.840000e-06	7.417389e-06	1.163056e-08	5.335234e+01	7.593767e+02
1.850000e-06	7.363825e-06	1.159675e-08	5.296706e+01	7.572906e+02
1.860000e-06	7.307513e-06	1.150403e-08	5.256202e+01	7.550211e+02
1.870000e-06	7.248566e-06	1.151527e-08	5.213802e+01	7.525551e+02
1.880000e-06	7.186996e-06	1.142269e-08	5.169515e+01	7.498843e+02
1.890000e-06	7.122680e-06	1.143134e-08	5.123254e+01	7.470047e+02
1.900000e-06	7.055597e-06	1.138896e-08	5.075002e+01	7.439183e+02
1.910000e-06	6.985690e-06	1.129685e-08	5.024719e+01	7.406319e+02
1.920000e-06	6.913007e-06	1.128689e-08	4.972439e+01	7.371574e+02
1.930000e-06	6.837782e-06	1.121408e-08	4.918331e+01	7.335103e+02
1.940000e-06	6.759794e-06	1.117736e-08	4.862234e+01	7.297082e+02
1.950000e-06	6.679134e-06	1.107865e-08	4.804217e+01	7.257685e+02
1.960000e-06	6.596040e-06	1.102427e-08	4.744448e+01	7.217069e+02
1.970000e-06	6.510486e-06	1.097762e-08	4.682910e+01	7.175349e+02
1.980000e-06	6.422543e-06	1.088119e-08	4.619654e+01	7.132588e+02
1.990000e-06	6.332368e-06	1.084568e-08	4.554792e+01	7.088782e+02
2.000000e-06	6.240083e-06	1.077001e-08	4.488413e+01	7.043863e+02
2.010000e-06	6.145466e-06	1.069680e-08	4.420356e+01	6.997703e+02
2.020000e-06	6.048552e-06	1.060121e-08	4.350647e+01	6.950131e+02
2.030000e-06	5.949521e-06	1.053272e-08	4.279415e+01	6.900953e+02
2.040000e-06	5.848489e-06	1.046479e-08	4.206744e+01	6.849976e+02
2.050000e-06	5.745383e-06	1.037619e-08	4.132581e+01	6.797035e+02
2.060000e-06	5.640156e-06	1.028857e-08	4.056893e+01	6.742006e+02
2.070000e-06	5.533036e-06	1.019665e-08	3.979843e+01	6.684829e+02
2.080000e-06	5.424065e-06	1.011179e-08	3.901462e+01	6.625504e+02
2.090000e-06	5.313116e-06	1.001099e-08	3.821657e+01	6.564090e+02
2.100000e-06	5.200144e-06	9.930263e-09	3.740398e+01	6.500688e+02
2.110000e-06	5.085256e-06	9.838137e-09	3.657760e+01	6.435419e+02
2.120000e-06	4.968434e-06	9.731842e-09	3.573732e+01	6.368398e+02
2.130000e-06	4.849604e-06	9.611896e-09	3.488259e+01	6.299705e+02
2.140000e-06	4.728894e-06	9.503004e-09	3.401433e+01	6.229366e+02
2.150000e-06	4.606453e-06	9.396347e-09	3.313363e+01	6.157335e+02
2.160000e-06	4.482409e-06	9.283369e-09	3.224140e+01	6.083495e+02
2.170000e-06	4.356775e-06	9.171675e-09	3.133773e+01	6.007657e+02
2.180000e-06	4.229437e-06	9.058098e-09	3.042181e+01	5.929589e+02
2.190000e-06	4.100561e-06	8.939091e-09	2.949482e+01	5.849034e+02
2.200000e-06	3.970197e-06	8.806044e-09	2.855713e+01	5.765742e+02
2.210000e-06	3.838321e-06	8.671875e-09	2.760856e+01	5.679501e+02
2.220000e-06	3.705055e-06	8.530844e-09	2.664999e+01	5.590162e+02
2.230000e-06	3.570352e-06	8.385975e-09	2.568109e+01	5.497650e+02
2.240000e-06	3.434281e-06	8.238529e-09	2.470235e+01	5.401967e+02
2.250000e-06	3.296971e-06	8.094189e-09	2.371470e+01	5.303180e+02
2.260000e-06	3.158462e-06	7.944321e-09	2.271842e+01	5.201396e+02
2.270000e-06	3.018743e-06	7.787719e-09	2.171344e+01	5.096732e+02
2.280000e-06	2.877779e-06	7.623671e-09	2.069950e+01	4.989273e+02
2.290000e-06	2.735641e-06	7.456928e-09	1.967712e+01	4.879043e+02
2.300000e-06	2.592462e-06	7.288461e-09	1.864725e+01	4.765974e+02
2.310000e-06	2.448380e-06	7.115505e-09	1.761089e+01	4.649894e+02
2.320000e-06	2.303493e-06	6.933335e-09	1.656873e+01	4.530530e+02
2.330000e-06	2.157850e-06	6.736755e-09	1.552114e+01	4.407522e+02
2.340000e-06	2.011420e-06	6.533186e-09	1.446789e+01	4.280461e+02
2.350000e-06	1.864246e-06	6.328155e-09	1.340929e+01	4.148926e+02
2.360000e-06	1.716442e-06	6.122719e-09	1.234615e+01	4.012533e+02
2.370000e-06	1.568188e-06	5.910384e-09	1.127978e+01	3.870975e+02
2.380000e-06	1.419592e-06	5.690696e-09	1.021095e+01	3.724046e+02
2.390000e-06	1.270566e-06	5.462643e-09	9.139023e+00	3.571659e+02
2.400000e-06	1.121057e-06	5.222777e-09	8.063621e+00	3.413827e+02
2.410000e-06	9.711004e-07	4.973301e-09	6.985003e+00	3.250630e+02
2.420000e-06	8.207387e-07	4.717950e-09	5.903470e+00	3.082164e+02
2.430000e-06	6.700690e-07	4.452630e-09	4.819722e+00	2.908473e+02
2.440000e-06	5.191952e-07	4.176667e-09	3.734506e+00	2.729475e+02
2.450000e-06	3.681462e-07	3.894487e-09	2.648029e+00	2.544906e+02
2.460000e-06	2.169308e-07	3.603998e-09	1.560356e+00	2.354270e+02
2.470000e-06	6.559179e-08	3.300932e-09	4.717935e-01	2.156829e+02
2.480000e-06	-8.578063e-08	2.983175e-09	-6.170092e-01	1.951621e+02
2.490000e-06	-2.371198e-07	2.653631e-09	-1.705573e+00	1.737517e+02
2.500000e-06	-3.883862e-07	2.312543e-09	-2.793613e+00	1.513321e+02
2.510000e-06	-5.395580e-07	1.955096e-09	-3.880973e+00	1.277887e+02
2.520000e-06	-6.905622e-07	1.579975e-09	-4.967127e+00	1.030268e+02
2.530000e-06	-8.413284e-07	1.185975e-09	-6.051569e+00	7.698540e+01
2.540000e-06	-9.917933e-07	7.718644e-10	-7.133844e+00	4.965063e+01
2.550000e-06	-1.141881e-06	3.379413e-10	-8.213403e+00	2.106602e+01
2.560000e-06	-1.291509e-06	-1.120315e-10	-9.289665e+00	-8.661656e+00
2.570000e-06	-1.440593e-06	-5.758024e-10	-1.036200e+01	-3.936154e+01
2.580000e-06	-1.589163e-06	-1.055197e-09	-1.143065e+01	-7.080353e+01
2.590000e-06	-1.737264e-06	-1.549104e-09	-1.249592e+01	-1.027084e+02
2.600000e-06	-1.884792e-06	-2.049567e-09	-1.355707e+01	-1.347629e+02
2.610000e-06	-2.031541e-06	-2.545804e-09	-1.461262e+01	-1.666373e+02
2.620000e-06	-2.177478e-06	-3.029688e-09	-1.566233e+01	-1.980056e+02
2.630000e-06	-2.322627e-06	-3.498108e-09	-1.670636e+01	-2.285647e+02
2.640000e-06	-2.466909e-06	-3.947559e-09	-1.774417e+01	-2.580517e+02
2.650000e-06	-2.610268e-06	-4.375172e-09	-1.877533e+01	-2.862575e+02
2.660000e-06	-2.752569e-06	-4.778714e-09	-1.979888e+01	-3.130356e+02
2.670000e-06	-2.893750e-06	-5.158760e-09	-2.081438e+01	-3.383054e+02
2.680000e-06	-3.033789e-06	-5.517038e-09	-2.182166e+01	-3.620496e+02
2.690000e-06	-3.172562e-06	-5.854402e-09	-2.281984e+01	-3.843073e+02
2.700000e-06	-3.310099e-06	-6.174378e-09	-2.380912e+01	-4.051625e+02
2.710000e-06	-3.446445e-06	-6.477153e-09	-2.478984e+01	-4.247305e+02
2.720000e-06	-3.581503e-06	-6.762549e-09	-2.576130e+01	-4.431434e+02
2.730000e-06	-3.715243e-06	-7.031300e-09	-2.672327e+01	-4.605358e+02
2.740000e-06	-3.847671e-06	-7.285808e-09	-2.767581e+01	-4.770335e+02
2.750000e-06	-3.978708e-06	-7.529313e-09	-2.861834e+01	-4.927438e+02
2.760000e-06	-4.108356e-06	-7.762299e-09	-2.955088e+01	-5.077511e+02
2.770000e-06	-4.236616e-06	-7.984303e-09	-3.047344e+01	-5.221149e+02
2.780000e-06	-4.363415e-06	-8.194017e-09	-3.138549e+01	-5.358714e+02
2.790000e-06	-4.488690e-06	-8.391343e-09	-3.228658e+01	-5.490389e+02
2.800000e-06	-4.612367e-06	-8.578216e-09	-3.317617e+01	-5.616226e+02
2.810000e-06	-4.734505e-06	-8.757963e-09	-3.405470e+01	-5.736226e+02
2.820000e-06	-4.854939e-06	-8.930766e-09	-3.492096e+01	-5.850392e+02
2.830000e-06	-4.973452e-06	-9.093913e-09	-3.577341e+01	-5.958783e+02
2.840000e-06	-5.089946e-06	-9.250344e-09	-3.661134e+01	-6.061542e+02
2.850000e-06	-5.204321e-06	-9.401490e-09	-3.743403e+01	-6.158912e+02
2.860000e-06	-5.316642e-06	-9.548198e-09	-3.824193e+01	-6.251221e+02
2.870000e-06	-5.426924e-06	-9.686437e-09	-3.903518e+01	-6.338862e+02
2.880000e-06	-5.535278e-06	-9.813931e-09	-3.981455e+01	-6.422255e+02
2.890000e-06	-5.641811e-06	-9.934722e-09	-4.058084e+01	-6.501814e+02
2.900000e-06	-5.746382e-06	-1.004970e-08	-4.133300e+01	-6.577907e+02
2.910000e-06	-5.848776e-06	-1.015875e-08	-4.206951e+01	-6.650836e+02
2.920000e-06	-5.948906e-06	-1.026450e-08	-4.278973e+01	-6.720819e+02
2.930000e-06	-6.046931e-06	-1.036775e-08	-4.349481e+01	-6.787994e+02
2.940000e-06	-6.142887e-06	-1.046713e-08	-4.418501e+01	-6.852429e+02
