# Temperatura_=_37.7
# Concentracion g/m^3_=_10000.0
# C_Vs_to_Am_M_A/Vsm_=_65563218390.804596
# pendiente_HvsI_1/m_=_3716.3
# ordenada_HvsI_A/m_=_1297.0
# frecuencia_Hz_=_302550.5374517489

Tiempo_(s)	Campo_(V.s)	Magnetizacion_(V.s)	Campo_(kA/m)	Magnetizacion_(A/m)
0.000000e+00	-7.930439e-06	-1.106149e-08	-5.684565e+01	-7.244997e+02
1.000000e-08	-7.926870e-06	-1.106393e-08	-5.682007e+01	-7.241709e+02
2.000000e-08	-7.920754e-06	-1.105919e-08	-5.677623e+01	-7.237092e+02
3.000000e-08	-7.912097e-06	-1.105229e-08	-5.671418e+01	-7.231286e+02
4.000000e-08	-7.900611e-06	-1.104485e-08	-5.663185e+01	-7.224471e+02
5.000000e-08	-7.886071e-06	-1.103472e-08	-5.652762e+01	-7.216851e+02
6.000000e-08	-7.868708e-06	-1.102255e-08	-5.640316e+01	-7.208631e+02
7.000000e-08	-7.849059e-06	-1.101205e-08	-5.626232e+01	-7.199997e+02
8.000000e-08	-7.827097e-06	-1.100802e-08	-5.610489e+01	-7.191096e+02
9.000000e-08	-7.802204e-06	-1.103873e-08	-5.592646e+01	-7.182023e+02
1.000000e-07	-7.774038e-06	-1.102294e-08	-5.572456e+01	-7.172813e+02
1.100000e-07	-7.742897e-06	-1.096108e-08	-5.550135e+01	-7.163439e+02
1.200000e-07	-7.709021e-06	-1.092826e-08	-5.525852e+01	-7.153815e+02
1.300000e-07	-7.672539e-06	-1.089904e-08	-5.499702e+01	-7.143804e+02
1.400000e-07	-7.633769e-06	-1.086104e-08	-5.471911e+01	-7.133235e+02
1.500000e-07	-7.592777e-06	-1.082512e-08	-5.442528e+01	-7.121910e+02
1.600000e-07	-7.549388e-06	-1.084452e-08	-5.411427e+01	-7.109626e+02
1.700000e-07	-7.503350e-06	-1.084650e-08	-5.378427e+01	-7.096183e+02
1.800000e-07	-7.454604e-06	-1.074976e-08	-5.343485e+01	-7.081401e+02
1.900000e-07	-7.402936e-06	-1.075554e-08	-5.306449e+01	-7.065126e+02
2.000000e-07	-7.348283e-06	-1.072765e-08	-5.267274e+01	-7.047236e+02
2.100000e-07	-7.290925e-06	-1.066811e-08	-5.226159e+01	-7.027649e+02
2.200000e-07	-7.230938e-06	-1.068269e-08	-5.183161e+01	-7.006321e+02
2.300000e-07	-7.168424e-06	-1.062630e-08	-5.138351e+01	-6.983244e+02
2.400000e-07	-7.103215e-06	-1.057327e-08	-5.091608e+01	-6.958449e+02
2.500000e-07	-7.035193e-06	-1.051349e-08	-5.042850e+01	-6.931996e+02
2.600000e-07	-6.964546e-06	-1.050654e-08	-4.992209e+01	-6.903969e+02
2.700000e-07	-6.891162e-06	-1.047641e-08	-4.939608e+01	-6.874470e+02
2.800000e-07	-6.814980e-06	-1.040962e-08	-4.885001e+01	-6.843608e+02
2.900000e-07	-6.735995e-06	-1.035535e-08	-4.828383e+01	-6.811491e+02
3.000000e-07	-6.654300e-06	-1.030331e-08	-4.769824e+01	-6.778213e+02
3.100000e-07	-6.570367e-06	-1.026763e-08	-4.709661e+01	-6.743847e+02
3.200000e-07	-6.484274e-06	-1.020208e-08	-4.647949e+01	-6.708432e+02
3.300000e-07	-6.395810e-06	-1.014973e-08	-4.584538e+01	-6.671973e+02
3.400000e-07	-6.304966e-06	-1.010011e-08	-4.519421e+01	-6.634434e+02
3.500000e-07	-6.211870e-06	-1.003938e-08	-4.452689e+01	-6.595741e+02
3.600000e-07	-6.116554e-06	-9.983352e-09	-4.384366e+01	-6.555788e+02
3.700000e-07	-6.018963e-06	-9.922301e-09	-4.314413e+01	-6.514447e+02
3.800000e-07	-5.919167e-06	-9.858125e-09	-4.242879e+01	-6.471580e+02
3.900000e-07	-5.817280e-06	-9.780762e-09	-4.169846e+01	-6.427055e+02
4.000000e-07	-5.713356e-06	-9.700699e-09	-4.095352e+01	-6.380758e+02
4.100000e-07	-5.607409e-06	-9.623675e-09	-4.019410e+01	-6.332608e+02
4.200000e-07	-5.499499e-06	-9.560228e-09	-3.942059e+01	-6.282562e+02
4.300000e-07	-5.389704e-06	-9.493796e-09	-3.863358e+01	-6.230615e+02
4.400000e-07	-5.277957e-06	-9.404114e-09	-3.783257e+01	-6.176801e+02
4.500000e-07	-5.164160e-06	-9.310516e-09	-3.701687e+01	-6.121178e+02
4.600000e-07	-5.048282e-06	-9.230408e-09	-3.618625e+01	-6.063812e+02
4.700000e-07	-4.930453e-06	-9.145602e-09	-3.534165e+01	-6.004766e+02
4.800000e-07	-4.810846e-06	-9.051414e-09	-3.448430e+01	-5.944073e+02
4.900000e-07	-4.689522e-06	-8.960738e-09	-3.361465e+01	-5.881726e+02
5.000000e-07	-4.566447e-06	-8.860701e-09	-3.273244e+01	-5.817667e+02
5.100000e-07	-4.441660e-06	-8.748252e-09	-3.183797e+01	-5.751782e+02
5.200000e-07	-4.315312e-06	-8.644040e-09	-3.093230e+01	-5.683906e+02
5.300000e-07	-4.187388e-06	-8.551521e-09	-3.001534e+01	-5.613837e+02
5.400000e-07	-4.057981e-06	-8.441352e-09	-2.908775e+01	-5.541354e+02
5.500000e-07	-3.927068e-06	-8.314715e-09	-2.814935e+01	-5.466238e+02
5.600000e-07	-3.794564e-06	-8.196580e-09	-2.719956e+01	-5.388294e+02
5.700000e-07	-3.660663e-06	-8.082760e-09	-2.623975e+01	-5.307372e+02
5.800000e-07	-3.525403e-06	-7.947958e-09	-2.527021e+01	-5.223378e+02
5.900000e-07	-3.388746e-06	-7.807155e-09	-2.429064e+01	-5.136276e+02
6.000000e-07	-3.250879e-06	-7.675278e-09	-2.330241e+01	-5.046084e+02
6.100000e-07	-3.111692e-06	-7.537398e-09	-2.230472e+01	-4.952855e+02
6.200000e-07	-2.970963e-06	-7.389009e-09	-2.129596e+01	-4.856655e+02
6.300000e-07	-2.828945e-06	-7.239857e-09	-2.027797e+01	-4.757536e+02
6.400000e-07	-2.685886e-06	-7.090292e-09	-1.925252e+01	-4.655506e+02
6.500000e-07	-2.541803e-06	-6.924798e-09	-1.821973e+01	-4.550507e+02
6.600000e-07	-2.396812e-06	-6.750377e-09	-1.718043e+01	-4.442403e+02
6.700000e-07	-2.250951e-06	-6.578921e-09	-1.613489e+01	-4.330976e+02
6.800000e-07	-2.104315e-06	-6.406709e-09	-1.508380e+01	-4.215936e+02
6.900000e-07	-1.957060e-06	-6.226468e-09	-1.402827e+01	-4.096943e+02
7.000000e-07	-1.809180e-06	-6.037734e-09	-1.296826e+01	-3.973639e+02
7.100000e-07	-1.660740e-06	-5.840551e-09	-1.190424e+01	-3.845683e+02
7.200000e-07	-1.511839e-06	-5.635869e-09	-1.083691e+01	-3.712784e+02
7.300000e-07	-1.362490e-06	-5.428375e-09	-9.766371e+00	-3.574729e+02
7.400000e-07	-1.212692e-06	-5.213761e-09	-8.692617e+00	-3.431393e+02
7.500000e-07	-1.062482e-06	-4.990341e-09	-7.615904e+00	-3.282739e+02
7.600000e-07	-9.118197e-07	-4.757765e-09	-6.535954e+00	-3.128795e+02
7.700000e-07	-7.607931e-07	-4.515940e-09	-5.453391e+00	-2.969615e+02
7.800000e-07	-6.095182e-07	-4.264880e-09	-4.369047e+00	-2.805232e+02
7.900000e-07	-4.580455e-07	-4.005168e-09	-3.283286e+00	-2.635598e+02
8.000000e-07	-3.064297e-07	-3.740483e-09	-2.196499e+00	-2.460533e+02
8.100000e-07	-1.546563e-07	-3.466219e-09	-1.108582e+00	-2.279684e+02
8.200000e-07	-2.807320e-09	-3.176036e-09	-2.012296e-02	-2.092502e+02
8.300000e-07	1.490262e-07	-2.873180e-09	1.068225e+00	-1.898254e+02
8.400000e-07	3.007809e-07	-2.561222e-09	2.156007e+00	-1.696054e+02
8.500000e-07	4.524751e-07	-2.236220e-09	3.243357e+00	-1.484937e+02
8.600000e-07	6.041234e-07	-1.897335e-09	4.330377e+00	-1.263951e+02
8.700000e-07	7.556317e-07	-1.545580e-09	5.416393e+00	-1.032272e+02
8.800000e-07	9.069057e-07	-1.181168e-09	6.500730e+00	-7.893266e+01
8.900000e-07	1.057949e-06	-7.989686e-10	7.583410e+00	-5.349066e+01
9.000000e-07	1.208641e-06	-3.959737e-10	8.663582e+00	-2.692670e+01
9.100000e-07	1.358858e-06	2.149261e-11	9.740338e+00	6.808911e-01
9.200000e-07	1.508543e-06	4.530843e-10	1.081329e+01	2.919849e+01
9.300000e-07	1.657623e-06	8.995318e-10	1.188190e+01	5.843939e+01
9.400000e-07	1.806107e-06	1.356152e-09	1.294624e+01	8.817068e+01
9.500000e-07	1.953930e-06	1.815909e-09	1.400583e+01	1.181245e+02
9.600000e-07	2.101085e-06	2.275790e-09	1.506065e+01	1.480124e+02
9.700000e-07	2.247526e-06	2.729318e-09	1.611034e+01	1.775422e+02
9.800000e-07	2.393067e-06	3.167320e-09	1.715358e+01	2.064348e+02
9.900000e-07	2.537678e-06	3.588499e-09	1.819016e+01	2.344402e+02
1.000000e-06	2.681389e-06	3.992136e-09	1.922028e+01	2.613510e+02
1.010000e-06	2.824040e-06	4.377487e-09	2.024282e+01	2.870116e+02
1.020000e-06	2.965511e-06	4.743213e-09	2.125688e+01	3.113236e+02
1.030000e-06	3.105758e-06	5.089747e-09	2.226218e+01	3.342460e+02
1.040000e-06	3.244718e-06	5.416526e-09	2.325824e+01	3.557902e+02
1.050000e-06	3.382371e-06	5.726009e-09	2.424495e+01	3.760122e+02
1.060000e-06	3.518773e-06	6.018224e-09	2.522268e+01	3.950010e+02
1.070000e-06	3.653907e-06	6.293631e-09	2.619133e+01	4.128663e+02
1.080000e-06	3.787682e-06	6.552662e-09	2.715023e+01	4.297258e+02
1.090000e-06	3.920107e-06	6.796590e-09	2.809946e+01	4.456932e+02
1.100000e-06	4.051152e-06	7.029398e-09	2.903879e+01	4.608698e+02
1.110000e-06	4.180729e-06	7.249758e-09	2.996760e+01	4.753380e+02
1.120000e-06	4.308827e-06	7.457884e-09	3.088581e+01	4.891584e+02
1.130000e-06	4.435428e-06	7.654635e-09	3.179330e+01	5.023706e+02
1.140000e-06	4.560536e-06	7.841585e-09	3.269008e+01	5.149959e+02
1.150000e-06	4.684120e-06	8.021449e-09	3.357593e+01	5.270424e+02
1.160000e-06	4.806069e-06	8.195927e-09	3.445006e+01	5.385113e+02
1.170000e-06	4.926319e-06	8.362580e-09	3.531202e+01	5.494027e+02
1.180000e-06	5.044735e-06	8.519722e-09	3.616083e+01	5.597205e+02
1.190000e-06	5.161197e-06	8.669058e-09	3.699564e+01	5.694767e+02
1.200000e-06	5.275703e-06	8.811073e-09	3.781641e+01	5.786925e+02
1.210000e-06	5.388186e-06	8.946105e-09	3.862270e+01	5.873989e+02
1.220000e-06	5.498676e-06	9.073535e-09	3.941469e+01	5.956342e+02
1.230000e-06	5.607209e-06	9.193316e-09	4.019266e+01	6.034415e+02
1.240000e-06	5.713775e-06	9.306719e-09	4.095653e+01	6.108646e+02
1.250000e-06	5.818301e-06	9.414771e-09	4.170578e+01	6.179445e+02
1.260000e-06	5.920671e-06	9.518791e-09	4.243957e+01	6.247163e+02
1.270000e-06	6.020852e-06	9.617969e-09	4.315767e+01	6.312067e+02
1.280000e-06	6.118751e-06	9.710689e-09	4.385941e+01	6.374337e+02
1.290000e-06	6.214346e-06	9.797248e-09	4.454464e+01	6.434069e+02
1.300000e-06	6.307757e-06	9.881214e-09	4.521421e+01	6.491290e+02
1.310000e-06	6.398929e-06	9.964593e-09	4.586773e+01	6.545981e+02
1.320000e-06	6.487691e-06	1.004398e-08	4.650399e+01	6.598110e+02
1.330000e-06	6.574149e-06	1.011669e-08	4.712372e+01	6.647652e+02
1.340000e-06	6.658381e-06	1.018486e-08	4.772750e+01	6.694615e+02
1.350000e-06	6.740277e-06	1.025205e-08	4.831453e+01	6.739047e+02
1.360000e-06	6.819731e-06	1.031795e-08	4.888406e+01	6.781045e+02
1.370000e-06	6.896590e-06	1.038078e-08	4.943498e+01	6.820743e+02
1.380000e-06	6.970732e-06	1.044040e-08	4.996644e+01	6.858300e+02
1.390000e-06	7.042246e-06	1.049563e-08	5.047906e+01	6.893880e+02
1.400000e-06	7.111357e-06	1.054677e-08	5.097444e+01	6.927630e+02
1.410000e-06	7.178014e-06	1.059458e-08	5.145224e+01	6.959663e+02
1.420000e-06	7.242059e-06	1.063959e-08	5.191132e+01	6.990050e+02
1.430000e-06	7.303606e-06	1.068069e-08	5.235249e+01	7.018809e+02
1.440000e-06	7.362684e-06	1.071819e-08	5.277597e+01	7.045917e+02
1.450000e-06	7.419146e-06	1.075444e-08	5.318068e+01	7.071317e+02
1.460000e-06	7.472864e-06	1.079016e-08	5.356574e+01	7.094939e+02
1.470000e-06	7.523612e-06	1.082447e-08	5.392950e+01	7.116717e+02
1.480000e-06	7.571332e-06	1.085551e-08	5.427156e+01	7.136613e+02
1.490000e-06	7.616350e-06	1.088339e-08	5.459425e+01	7.154630e+02
1.500000e-06	7.658752e-06	1.090857e-08	5.489819e+01	7.170818e+02
1.510000e-06	7.698361e-06	1.092906e-08	5.518211e+01	7.185282e+02
1.520000e-06	7.735266e-06	1.094709e-08	5.544665e+01	7.198166e+02
1.530000e-06	7.769444e-06	1.096611e-08	5.569163e+01	7.209642e+02
1.540000e-06	7.800792e-06	1.098452e-08	5.591634e+01	7.219893e+02
1.550000e-06	7.829430e-06	1.100205e-08	5.612162e+01	7.229083e+02
1.560000e-06	7.855249e-06	1.101666e-08	5.630669e+01	7.237348e+02
1.570000e-06	7.878168e-06	1.102808e-08	5.647097e+01	7.244770e+02
1.580000e-06	7.898377e-06	1.103812e-08	5.661583e+01	7.251377e+02
1.590000e-06	7.915819e-06	1.104544e-08	5.674085e+01	7.257137e+02
1.600000e-06	7.930210e-06	1.105163e-08	5.684401e+01	7.261968e+02
1.610000e-06	7.941459e-06	1.105675e-08	5.692464e+01	7.265754e+02
1.620000e-06	7.949694e-06	1.106041e-08	5.698367e+01	7.268366e+02
1.630000e-06	7.955123e-06	1.106343e-08	5.702259e+01	7.269679e+02
1.640000e-06	7.957761e-06	1.106525e-08	5.704150e+01	7.269600e+02
1.650000e-06	7.957517e-06	1.106556e-08	5.703975e+01	7.268083e+02
1.660000e-06	7.954575e-06	1.105727e-08	5.701866e+01	7.265137e+02
1.670000e-06	7.948986e-06	1.104882e-08	5.697860e+01	7.260835e+02
1.680000e-06	7.940733e-06	1.104229e-08	5.691944e+01	7.255303e+02
1.690000e-06	7.929884e-06	1.103340e-08	5.684167e+01	7.248715e+02
1.700000e-06	7.916192e-06	1.102458e-08	5.674353e+01	7.241270e+02
1.710000e-06	7.899759e-06	1.101623e-08	5.662574e+01	7.233175e+02
1.720000e-06	7.881055e-06	1.100090e-08	5.649167e+01	7.224622e+02
1.730000e-06	7.860060e-06	1.095817e-08	5.634117e+01	7.215770e+02
1.740000e-06	7.836131e-06	1.088787e-08	5.616965e+01	7.206727e+02
1.750000e-06	7.808703e-06	1.090764e-08	5.597304e+01	7.197545e+02
1.760000e-06	7.777770e-06	1.092754e-08	5.575131e+01	7.188211e+02
1.770000e-06	7.743978e-06	1.090397e-08	5.550909e+01	7.178654e+02
1.780000e-06	7.707898e-06	1.090498e-08	5.525047e+01	7.168748e+02
1.790000e-06	7.669441e-06	1.093996e-08	5.497481e+01	7.158329e+02
1.800000e-06	7.628925e-06	1.089820e-08	5.468439e+01	7.147206e+02
1.810000e-06	7.586293e-06	1.083751e-08	5.437880e+01	7.135173e+02
1.820000e-06	7.541005e-06	1.091270e-08	5.405417e+01	7.122032e+02
1.830000e-06	7.493063e-06	1.086325e-08	5.371053e+01	7.107593e+02
1.840000e-06	7.442230e-06	1.087463e-08	5.334616e+01	7.091697e+02
1.850000e-06	7.388387e-06	1.084918e-08	5.296020e+01	7.074214e+02
1.860000e-06	7.331806e-06	1.075355e-08	5.255463e+01	7.055050e+02
1.870000e-06	7.272569e-06	1.075146e-08	5.213002e+01	7.034152e+02
1.880000e-06	7.210673e-06	1.067357e-08	5.168635e+01	7.011504e+02
1.890000e-06	7.145971e-06	1.070053e-08	5.122256e+01	6.987128e+02
1.900000e-06	7.078533e-06	1.065982e-08	5.073916e+01	6.961075e+02
1.910000e-06	7.008319e-06	1.058061e-08	5.023586e+01	6.933426e+02
1.920000e-06	6.935342e-06	1.055119e-08	4.971276e+01	6.904278e+02
1.930000e-06	6.859831e-06	1.047548e-08	4.917150e+01	6.873740e+02
1.940000e-06	6.781479e-06	1.046979e-08	4.860987e+01	6.841921e+02
1.950000e-06	6.700491e-06	1.040914e-08	4.802935e+01	6.808918e+02
1.960000e-06	6.617188e-06	1.037290e-08	4.743222e+01	6.774812e+02
1.970000e-06	6.531389e-06	1.031272e-08	4.681722e+01	6.739651e+02
1.980000e-06	6.443099e-06	1.022791e-08	4.618435e+01	6.703448e+02
1.990000e-06	6.352524e-06	1.018396e-08	4.553510e+01	6.666178e+02
2.000000e-06	6.259802e-06	1.011993e-08	4.487047e+01	6.627775e+02
2.010000e-06	6.164739e-06	1.007772e-08	4.418905e+01	6.588142e+02
2.020000e-06	6.067434e-06	9.992354e-09	4.349157e+01	6.547154e+02
2.030000e-06	5.968070e-06	9.928409e-09	4.277932e+01	6.504674e+02
2.040000e-06	5.866597e-06	9.860078e-09	4.205196e+01	6.460568e+02
2.050000e-06	5.762977e-06	9.802701e-09	4.130921e+01	6.414717e+02
2.060000e-06	5.657349e-06	9.730419e-09	4.055207e+01	6.367029e+02
2.070000e-06	5.549879e-06	9.636488e-09	3.978171e+01	6.317452e+02
2.080000e-06	5.440487e-06	9.563037e-09	3.899759e+01	6.265972e+02
2.090000e-06	5.329056e-06	9.482537e-09	3.819885e+01	6.212613e+02
2.100000e-06	5.215612e-06	9.403900e-09	3.738568e+01	6.157429e+02
2.110000e-06	5.100261e-06	9.324649e-09	3.655884e+01	6.100486e+02
2.120000e-06	4.982944e-06	9.245778e-09	3.571791e+01	6.041849e+02
2.130000e-06	4.863640e-06	9.133912e-09	3.486273e+01	5.981559e+02
2.140000e-06	4.742477e-06	9.028364e-09	3.399423e+01	5.919623e+02
2.150000e-06	4.619613e-06	8.938493e-09	3.311354e+01	5.855993e+02
2.160000e-06	4.495034e-06	8.854268e-09	3.222056e+01	5.790571e+02
2.170000e-06	4.368867e-06	8.747264e-09	3.131618e+01	5.723204e+02
2.180000e-06	4.241037e-06	8.631342e-09	3.039989e+01	5.653697e+02
2.190000e-06	4.111616e-06	8.521013e-09	2.947220e+01	5.581832e+02
2.200000e-06	3.980837e-06	8.400712e-09	2.853477e+01	5.507387e+02
2.210000e-06	3.848523e-06	8.282715e-09	2.758634e+01	5.430159e+02
2.220000e-06	3.714751e-06	8.174391e-09	2.662746e+01	5.349986e+02
2.230000e-06	3.579602e-06	8.057612e-09	2.565870e+01	5.266759e+02
2.240000e-06	3.443111e-06	7.915940e-09	2.468033e+01	5.180428e+02
2.250000e-06	3.305312e-06	7.772127e-09	2.369259e+01	5.090997e+02
2.260000e-06	3.166202e-06	7.637000e-09	2.269544e+01	4.998515e+02
2.270000e-06	3.025851e-06	7.500010e-09	2.168940e+01	4.903045e+02
2.280000e-06	2.884330e-06	7.345765e-09	2.067497e+01	4.804646e+02
2.290000e-06	2.741735e-06	7.189418e-09	1.965285e+01	4.703339e+02
2.300000e-06	2.598060e-06	7.033881e-09	1.862298e+01	4.599085e+02
2.310000e-06	2.453398e-06	6.872371e-09	1.758604e+01	4.491768e+02
2.320000e-06	2.307958e-06	6.704160e-09	1.654352e+01	4.381190e+02
2.330000e-06	2.161806e-06	6.527235e-09	1.549590e+01	4.267077e+02
2.340000e-06	2.014873e-06	6.339577e-09	1.444268e+01	4.149098e+02
2.350000e-06	1.867191e-06	6.147288e-09	1.338409e+01	4.026899e+02
2.360000e-06	1.718935e-06	5.957171e-09	1.232138e+01	3.900129e+02
2.370000e-06	1.570224e-06	5.763990e-09	1.125542e+01	3.768482e+02
2.380000e-06	1.421034e-06	5.558813e-09	1.018602e+01	3.631725e+02
2.390000e-06	1.271392e-06	5.338444e-09	9.113380e+00	3.489709e+02
2.400000e-06	1.121310e-06	5.107287e-09	8.037589e+00	3.342377e+02
2.410000e-06	9.708393e-07	4.871146e-09	6.959008e+00	3.189744e+02
2.420000e-06	8.200942e-07	4.633863e-09	5.878463e+00	3.031862e+02
2.430000e-06	6.691097e-07	4.391586e-09	4.796201e+00	2.868773e+02
2.440000e-06	5.179138e-07	4.137375e-09	3.712424e+00	2.700456e+02
2.450000e-06	3.664909e-07	3.869821e-09	2.627019e+00	2.526767e+02
2.460000e-06	2.148631e-07	3.593160e-09	1.540146e+00	2.347401e+02
2.470000e-06	6.313483e-08	3.308228e-09	4.525526e-01	2.161858e+02
2.480000e-06	-8.861990e-08	3.013255e-09	-6.352304e-01	1.969447e+02
2.490000e-06	-2.404257e-07	2.707017e-09	-1.723380e+00	1.769318e+02
2.500000e-06	-3.921782e-07	2.386896e-09	-2.811147e+00	1.560515e+02
2.510000e-06	-5.437663e-07	2.051813e-09	-3.897735e+00	1.342073e+02
2.520000e-06	-6.952322e-07	1.703432e-09	-4.983448e+00	1.113126e+02
2.530000e-06	-8.465056e-07	1.341502e-09	-6.067780e+00	8.730264e+01
2.540000e-06	-9.974596e-07	9.627861e-10	-7.149823e+00	6.214639e+01
2.550000e-06	-1.148023e-06	5.655419e-10	-8.229068e+00	3.585704e+01
2.560000e-06	-1.298218e-06	1.507582e-10	-9.305672e+00	8.499312e+00
2.570000e-06	-1.447990e-06	-2.775928e-10	-1.037924e+01	-1.980698e+01
2.580000e-06	-1.597156e-06	-7.201385e-10	-1.144847e+01	-4.888792e+01
2.590000e-06	-1.745712e-06	-1.176929e-09	-1.251332e+01	-7.852126e+01
2.600000e-06	-1.893704e-06	-1.643037e-09	-1.357414e+01	-1.084466e+02
2.610000e-06	-2.041051e-06	-2.109668e-09	-1.463032e+01	-1.383792e+02
2.620000e-06	-2.187583e-06	-2.568795e-09	-1.568067e+01	-1.680262e+02
2.630000e-06	-2.333230e-06	-3.014745e-09	-1.672467e+01	-1.971036e+02
2.640000e-06	-2.478003e-06	-3.443754e-09	-1.776241e+01	-2.253528e+02
2.650000e-06	-2.621797e-06	-3.857034e-09	-1.879313e+01	-2.525546e+02
2.660000e-06	-2.764556e-06	-4.252643e-09	-1.981643e+01	-2.785399e+02
2.670000e-06	-2.906202e-06	-4.625938e-09	-2.083176e+01	-3.031958e+02
2.680000e-06	-3.046693e-06	-4.974494e-09	-2.183880e+01	-3.264672e+02
2.690000e-06	-3.186069e-06	-5.303095e-09	-2.283785e+01	-3.483529e+02
2.700000e-06	-3.324194e-06	-5.616847e-09	-2.382794e+01	-3.688989e+02
2.710000e-06	-3.460955e-06	-5.914543e-09	-2.480824e+01	-3.881869e+02
2.720000e-06	-3.596449e-06	-6.194674e-09	-2.577946e+01	-4.063229e+02
2.730000e-06	-3.730698e-06	-6.458302e-09	-2.674177e+01	-4.234235e+02
2.740000e-06	-3.863577e-06	-6.708136e-09	-2.769425e+01	-4.396045e+02
2.750000e-06	-3.995048e-06	-6.946525e-09	-2.863663e+01	-4.549709e+02
2.760000e-06	-4.125117e-06	-7.174746e-09	-2.956897e+01	-4.696104e+02
2.770000e-06	-4.253710e-06	-7.391538e-09	-3.049074e+01	-4.835889e+02
2.780000e-06	-4.380835e-06	-7.595275e-09	-3.140198e+01	-4.969512e+02
2.790000e-06	-4.506531e-06	-7.787063e-09	-3.230296e+01	-5.097227e+02
2.800000e-06	-4.630652e-06	-7.968721e-09	-3.319267e+01	-5.219143e+02
2.810000e-06	-4.753108e-06	-8.142618e-09	-3.407044e+01	-5.335284e+02
2.820000e-06	-4.873843e-06	-8.309362e-09	-3.493587e+01	-5.445647e+02
2.830000e-06	-4.992750e-06	-8.466972e-09	-3.578820e+01	-5.550258e+02
2.840000e-06	-5.109690e-06	-8.617067e-09	-3.662643e+01	-5.649214e+02
2.850000e-06	-5.224504e-06	-8.761807e-09	-3.744942e+01	-5.742705e+02
2.860000e-06	-5.337180e-06	-8.901094e-09	-3.825709e+01	-5.831015e+02
2.870000e-06	-5.447848e-06	-9.031211e-09	-3.905036e+01	-5.914514e+02
2.880000e-06	-5.556582e-06	-9.151509e-09	-3.982977e+01	-5.993622e+02
2.890000e-06	-5.663420e-06	-9.266909e-09	-4.059558e+01	-6.068780e+02
2.900000e-06	-5.768278e-06	-9.377542e-09	-4.134721e+01	-6.140408e+02
2.910000e-06	-5.870960e-06	-9.482734e-09	-4.208324e+01	-6.208874e+02
2.920000e-06	-5.971453e-06	-9.583614e-09	-4.280357e+01	-6.274468e+02
2.930000e-06	-6.069776e-06	-9.681166e-09	-4.350836e+01	-6.337392e+02
2.940000e-06	-6.165920e-06	-9.774979e-09	-4.419752e+01	-6.397761e+02
