# Temperatura_=_54.96
# Concentracion g/m^3_=_10000.0
# C_Vs_to_Am_M_A/Vsm_=_65563218390.804596
# pendiente_HvsI_1/m_=_3716.3
# ordenada_HvsI_A/m_=_1297.0
# frecuencia_Hz_=_302549.6639281666

Tiempo_(s)	Campo_(V.s)	Magnetizacion_(V.s)	Campo_(kA/m)	Magnetizacion_(A/m)
0.000000e+00	-7.878541e-06	-1.151869e-08	-5.685284e+01	-7.547837e+02
1.000000e-08	-7.874981e-06	-1.151712e-08	-5.682715e+01	-7.543955e+02
2.000000e-08	-7.868851e-06	-1.151239e-08	-5.678291e+01	-7.538777e+02
3.000000e-08	-7.860144e-06	-1.150688e-08	-5.672008e+01	-7.532477e+02
4.000000e-08	-7.848689e-06	-1.149906e-08	-5.663742e+01	-7.525241e+02
5.000000e-08	-7.834267e-06	-1.148775e-08	-5.653335e+01	-7.517247e+02
6.000000e-08	-7.816986e-06	-1.147488e-08	-5.640865e+01	-7.508644e+02
7.000000e-08	-7.797352e-06	-1.146152e-08	-5.626697e+01	-7.499534e+02
8.000000e-08	-7.775413e-06	-1.145180e-08	-5.610865e+01	-7.489967e+02
9.000000e-08	-7.750605e-06	-1.148166e-08	-5.592963e+01	-7.479933e+02
1.000000e-07	-7.722621e-06	-1.146707e-08	-5.572770e+01	-7.469371e+02
1.100000e-07	-7.691695e-06	-1.140697e-08	-5.550453e+01	-7.458176e+02
1.200000e-07	-7.658038e-06	-1.136975e-08	-5.526165e+01	-7.446217e+02
1.300000e-07	-7.621800e-06	-1.134012e-08	-5.500015e+01	-7.433348e+02
1.400000e-07	-7.583263e-06	-1.130190e-08	-5.472206e+01	-7.419425e+02
1.500000e-07	-7.542569e-06	-1.125344e-08	-5.442841e+01	-7.404320e+02
1.600000e-07	-7.499518e-06	-1.127137e-08	-5.411775e+01	-7.387923e+02
1.700000e-07	-7.453774e-06	-1.124765e-08	-5.378765e+01	-7.370153e+02
1.800000e-07	-7.405346e-06	-1.116602e-08	-5.343818e+01	-7.350953e+02
1.900000e-07	-7.354051e-06	-1.120422e-08	-5.306803e+01	-7.330287e+02
2.000000e-07	-7.299767e-06	-1.115717e-08	-5.267631e+01	-7.308135e+02
2.100000e-07	-7.242750e-06	-1.109258e-08	-5.226486e+01	-7.284490e+02
2.200000e-07	-7.183097e-06	-1.107107e-08	-5.183440e+01	-7.259350e+02
2.300000e-07	-7.120867e-06	-1.098800e-08	-5.138534e+01	-7.232716e+02
2.400000e-07	-7.055997e-06	-1.096326e-08	-5.091723e+01	-7.204595e+02
2.500000e-07	-6.988433e-06	-1.092549e-08	-5.042967e+01	-7.174997e+02
2.600000e-07	-6.918271e-06	-1.090052e-08	-4.992337e+01	-7.143938e+02
2.700000e-07	-6.845435e-06	-1.085298e-08	-4.939778e+01	-7.111443e+02
2.800000e-07	-6.769763e-06	-1.078739e-08	-4.885171e+01	-7.077545e+02
2.900000e-07	-6.691263e-06	-1.072022e-08	-4.828525e+01	-7.042285e+02
3.000000e-07	-6.610100e-06	-1.066627e-08	-4.769956e+01	-7.005706e+02
3.100000e-07	-6.526616e-06	-1.063598e-08	-4.709713e+01	-6.967847e+02
3.200000e-07	-6.440984e-06	-1.055789e-08	-4.647919e+01	-6.928736e+02
3.300000e-07	-6.353164e-06	-1.049965e-08	-4.584547e+01	-6.888382e+02
3.400000e-07	-6.262996e-06	-1.045204e-08	-4.519480e+01	-6.846768e+02
3.500000e-07	-6.170552e-06	-1.037977e-08	-4.452771e+01	-6.803847e+02
3.600000e-07	-6.075958e-06	-1.030431e-08	-4.384510e+01	-6.759547e+02
3.700000e-07	-5.979019e-06	-1.023533e-08	-4.314558e+01	-6.713769e+02
3.800000e-07	-5.879787e-06	-1.016661e-08	-4.242950e+01	-6.666404e+02
3.900000e-07	-5.778481e-06	-1.008317e-08	-4.169846e+01	-6.617339e+02
4.000000e-07	-5.675195e-06	-1.000797e-08	-4.095313e+01	-6.566476e+02
4.100000e-07	-5.569940e-06	-9.932267e-09	-4.019359e+01	-6.513738e+02
4.200000e-07	-5.462654e-06	-9.850866e-09	-3.941940e+01	-6.459083e+02
4.300000e-07	-5.353375e-06	-9.752364e-09	-3.863083e+01	-6.402508e+02
4.400000e-07	-5.242265e-06	-9.657934e-09	-3.782904e+01	-6.344042e+02
4.500000e-07	-5.129272e-06	-9.578951e-09	-3.701367e+01	-6.283741e+02
4.600000e-07	-5.014196e-06	-9.492451e-09	-3.618325e+01	-6.221672e+02
4.700000e-07	-4.897098e-06	-9.392975e-09	-3.533826e+01	-6.157897e+02
4.800000e-07	-4.778221e-06	-9.292255e-09	-3.448042e+01	-6.092451e+02
4.900000e-07	-4.657667e-06	-9.188871e-09	-3.361049e+01	-6.025329e+02
5.000000e-07	-4.535430e-06	-9.073130e-09	-3.272840e+01	-5.956472e+02
5.100000e-07	-4.411479e-06	-8.960607e-09	-3.183396e+01	-5.885767e+02
5.200000e-07	-4.285959e-06	-8.855312e-09	-3.092818e+01	-5.813047e+02
5.300000e-07	-4.158945e-06	-8.747725e-09	-3.001162e+01	-5.738107e+02
5.400000e-07	-4.030401e-06	-8.626368e-09	-2.908403e+01	-5.660725e+02
5.500000e-07	-3.900344e-06	-8.504023e-09	-2.814552e+01	-5.580682e+02
5.600000e-07	-3.768704e-06	-8.382049e-09	-2.719558e+01	-5.497786e+02
5.700000e-07	-3.635559e-06	-8.247857e-09	-2.623479e+01	-5.411895e+02
5.800000e-07	-3.501080e-06	-8.100445e-09	-2.526436e+01	-5.322926e+02
5.900000e-07	-3.365339e-06	-7.955782e-09	-2.428484e+01	-5.230857e+02
6.000000e-07	-3.228376e-06	-7.815465e-09	-2.329649e+01	-5.135722e+02
6.100000e-07	-3.090111e-06	-7.668569e-09	-2.229875e+01	-5.037589e+02
6.200000e-07	-2.950398e-06	-7.516372e-09	-2.129056e+01	-4.936535e+02
6.300000e-07	-2.809393e-06	-7.358457e-09	-2.027304e+01	-4.832615e+02
6.400000e-07	-2.667286e-06	-7.193850e-09	-1.924757e+01	-4.725831e+02
6.500000e-07	-2.524167e-06	-7.021877e-09	-1.821480e+01	-4.616114e+02
6.600000e-07	-2.380190e-06	-6.850646e-09	-1.717584e+01	-4.503304e+02
6.700000e-07	-2.235252e-06	-6.676261e-09	-1.612995e+01	-4.387154e+02
6.800000e-07	-2.089434e-06	-6.491730e-09	-1.507769e+01	-4.267343e+02
6.900000e-07	-1.942966e-06	-6.300032e-09	-1.402076e+01	-4.143503e+02
7.000000e-07	-1.795942e-06	-6.101233e-09	-1.295981e+01	-4.015251e+02
7.100000e-07	-1.648398e-06	-5.893269e-09	-1.189511e+01	-3.882235e+02
7.200000e-07	-1.500361e-06	-5.679331e-09	-1.082685e+01	-3.744160e+02
7.300000e-07	-1.351855e-06	-5.465097e-09	-9.755203e+00	-3.600822e+02
7.400000e-07	-1.202938e-06	-5.243147e-09	-8.680599e+00	-3.452111e+02
7.500000e-07	-1.053662e-06	-5.010722e-09	-7.603399e+00	-3.298010e+02
7.600000e-07	-9.040380e-07	-4.771950e-09	-6.523686e+00	-3.138558e+02
7.700000e-07	-7.541337e-07	-4.525038e-09	-5.441952e+00	-2.973808e+02
7.800000e-07	-6.039886e-07	-4.265930e-09	-4.358481e+00	-2.803769e+02
7.900000e-07	-4.536632e-07	-3.997149e-09	-3.273708e+00	-2.628345e+02
8.000000e-07	-3.031931e-07	-3.723151e-09	-2.187891e+00	-2.447274e+02
8.100000e-07	-1.525731e-07	-3.436842e-09	-1.100992e+00	-2.260094e+02
8.200000e-07	-1.828213e-09	-3.132967e-09	-1.319269e-02	-2.066128e+02
8.300000e-07	1.489321e-07	-2.815518e-09	1.074719e+00	-1.864498e+02
8.400000e-07	2.996785e-07	-2.489073e-09	2.162529e+00	-1.654180e+02
8.500000e-07	4.503673e-07	-2.151125e-09	3.249924e+00	-1.434091e+02
8.600000e-07	6.009203e-07	-1.799336e-09	4.336339e+00	-1.203197e+02
8.700000e-07	7.513647e-07	-1.433293e-09	5.421971e+00	-9.606493e+01
8.800000e-07	9.016226e-07	-1.051959e-09	6.506256e+00	-7.059136e+01
8.900000e-07	1.051593e-06	-6.524612e-10	7.588463e+00	-4.388943e+01
9.000000e-07	1.201177e-06	-2.325557e-10	8.667887e+00	-1.600312e+01
9.100000e-07	1.350334e-06	2.044510e-10	9.744227e+00	1.296436e+01
9.200000e-07	1.499058e-06	6.599253e-10	1.081744e+01	4.284954e+01
9.300000e-07	1.647229e-06	1.132517e-09	1.188667e+01	7.343302e+01
9.400000e-07	1.794769e-06	1.613416e-09	1.295135e+01	1.044488e+02
9.500000e-07	1.941656e-06	2.094424e-09	1.401131e+01	1.355982e+02
9.600000e-07	2.087876e-06	2.571573e-09	1.506645e+01	1.665666e+02
9.700000e-07	2.233332e-06	3.037526e-09	1.611609e+01	1.970422e+02
9.800000e-07	2.377912e-06	3.486378e-09	1.715940e+01	2.267346e+02
9.900000e-07	2.521612e-06	3.914842e-09	1.819636e+01	2.553910e+02
1.000000e-06	2.664376e-06	4.322964e-09	1.922657e+01	2.828099e+02
1.010000e-06	2.806144e-06	4.713605e-09	2.024959e+01	3.088492e+02
1.020000e-06	2.946798e-06	5.085039e-09	2.126458e+01	3.334299e+02
1.030000e-06	3.086134e-06	5.436969e-09	2.227004e+01	3.565338e+02
1.040000e-06	3.224161e-06	5.765330e-09	2.326607e+01	3.781970e+02
1.050000e-06	3.360889e-06	6.073975e-09	2.425273e+01	3.984991e+02
1.060000e-06	3.496329e-06	6.365513e-09	2.523008e+01	4.175504e+02
1.070000e-06	3.630545e-06	6.641794e-09	2.619861e+01	4.354772e+02
1.080000e-06	3.763539e-06	6.902793e-09	2.715831e+01	4.524090e+02
1.090000e-06	3.895188e-06	7.147569e-09	2.810831e+01	4.684665e+02
1.100000e-06	4.025405e-06	7.380624e-09	2.904798e+01	4.837530e+02
1.110000e-06	4.154193e-06	7.603331e-09	2.997733e+01	4.983493e+02
1.120000e-06	4.281503e-06	7.816052e-09	3.089602e+01	5.123123e+02
1.130000e-06	4.407348e-06	8.015841e-09	3.180414e+01	5.256762e+02
1.140000e-06	4.531697e-06	8.204124e-09	3.270147e+01	5.384578e+02
1.150000e-06	4.654494e-06	8.384655e-09	3.358759e+01	5.506616e+02
1.160000e-06	4.775633e-06	8.557682e-09	3.446174e+01	5.622868e+02
1.170000e-06	4.894989e-06	8.723114e-09	3.532304e+01	5.733335e+02
1.180000e-06	5.012561e-06	8.881759e-09	3.617146e+01	5.838077e+02
1.190000e-06	5.128230e-06	9.034277e-09	3.700614e+01	5.937241e+02
1.200000e-06	5.241884e-06	9.180266e-09	3.782629e+01	6.031071e+02
1.210000e-06	5.353547e-06	9.319405e-09	3.863207e+01	6.119904e+02
1.220000e-06	5.463341e-06	9.451221e-09	3.942436e+01	6.204141e+02
1.230000e-06	5.571309e-06	9.576397e-09	4.020347e+01	6.284209e+02
1.240000e-06	5.677231e-06	9.694462e-09	4.096783e+01	6.360530e+02
1.250000e-06	5.780983e-06	9.803939e-09	4.171652e+01	6.433481e+02
1.260000e-06	5.882625e-06	9.907970e-09	4.244998e+01	6.503366e+02
1.270000e-06	5.982106e-06	1.000808e-08	4.316785e+01	6.570408e+02
1.280000e-06	6.079266e-06	1.010387e-08	4.386897e+01	6.634743e+02
1.290000e-06	6.174144e-06	1.019598e-08	4.455363e+01	6.696433e+02
1.300000e-06	6.266875e-06	1.028370e-08	4.522279e+01	6.755492e+02
1.310000e-06	6.357441e-06	1.036945e-08	4.587633e+01	6.811908e+02
1.320000e-06	6.445653e-06	1.045349e-08	4.651289e+01	6.865672e+02
1.330000e-06	6.531546e-06	1.053119e-08	4.713270e+01	6.916799e+02
1.340000e-06	6.615221e-06	1.060404e-08	4.773651e+01	6.965345e+02
1.350000e-06	6.696510e-06	1.067297e-08	4.832311e+01	7.011409e+02
1.360000e-06	6.775277e-06	1.073974e-08	4.889151e+01	7.055128e+02
1.370000e-06	6.851508e-06	1.080424e-08	4.944160e+01	7.096664e+02
1.380000e-06	6.925152e-06	1.086575e-08	4.997303e+01	7.136180e+02
1.390000e-06	6.996235e-06	1.092435e-08	5.048597e+01	7.173825e+02
1.400000e-06	7.064912e-06	1.097861e-08	5.098156e+01	7.209707e+02
1.410000e-06	7.131081e-06	1.103053e-08	5.145905e+01	7.243890e+02
1.420000e-06	7.194646e-06	1.107991e-08	5.191774e+01	7.276381e+02
1.430000e-06	7.255793e-06	1.112555e-08	5.235899e+01	7.307137e+02
1.440000e-06	7.314559e-06	1.116826e-08	5.278305e+01	7.336083e+02
1.450000e-06	7.370706e-06	1.120779e-08	5.318822e+01	7.363125e+02
1.460000e-06	7.424069e-06	1.124314e-08	5.357329e+01	7.388179e+02
1.470000e-06	7.474417e-06	1.127463e-08	5.393661e+01	7.411188e+02
1.480000e-06	7.521778e-06	1.130321e-08	5.427838e+01	7.432143e+02
1.490000e-06	7.566488e-06	1.133050e-08	5.460101e+01	7.451089e+02
1.500000e-06	7.608492e-06	1.135761e-08	5.490412e+01	7.468132e+02
1.510000e-06	7.647700e-06	1.138362e-08	5.518705e+01	7.483427e+02
1.520000e-06	7.684280e-06	1.140549e-08	5.545102e+01	7.497159e+02
1.530000e-06	7.718178e-06	1.142442e-08	5.569563e+01	7.509527e+02
1.540000e-06	7.749287e-06	1.144302e-08	5.592012e+01	7.520713e+02
1.550000e-06	7.777715e-06	1.146054e-08	5.612526e+01	7.530867e+02
1.560000e-06	7.803333e-06	1.147551e-08	5.631013e+01	7.540084e+02
1.570000e-06	7.826046e-06	1.148636e-08	5.647403e+01	7.548393e+02
1.580000e-06	7.846059e-06	1.149582e-08	5.661844e+01	7.555765e+02
1.590000e-06	7.863332e-06	1.150509e-08	5.674309e+01	7.562114e+02
1.600000e-06	7.877642e-06	1.151354e-08	5.684635e+01	7.567318e+02
1.610000e-06	7.888848e-06	1.152203e-08	5.692721e+01	7.571241e+02
1.620000e-06	7.896928e-06	1.152759e-08	5.698552e+01	7.573753e+02
1.630000e-06	7.902170e-06	1.153036e-08	5.702335e+01	7.574761e+02
1.640000e-06	7.904686e-06	1.153089e-08	5.704150e+01	7.574218e+02
1.650000e-06	7.904428e-06	1.152937e-08	5.703964e+01	7.572138e+02
1.660000e-06	7.901542e-06	1.151905e-08	5.701882e+01	7.568595e+02
1.670000e-06	7.895984e-06	1.150923e-08	5.697871e+01	7.563717e+02
1.680000e-06	7.887745e-06	1.150282e-08	5.691925e+01	7.557672e+02
1.690000e-06	7.876899e-06	1.149532e-08	5.684099e+01	7.550644e+02
1.700000e-06	7.863246e-06	1.148737e-08	5.674247e+01	7.542816e+02
1.710000e-06	7.846943e-06	1.147841e-08	5.662482e+01	7.534344e+02
1.720000e-06	7.828372e-06	1.146659e-08	5.649081e+01	7.525346e+02
1.730000e-06	7.807498e-06	1.142581e-08	5.634018e+01	7.515883e+02
1.740000e-06	7.783779e-06	1.134937e-08	5.616902e+01	7.505961e+02
1.750000e-06	7.756574e-06	1.135765e-08	5.597270e+01	7.495530e+02
1.760000e-06	7.725856e-06	1.137201e-08	5.575104e+01	7.484497e+02
1.770000e-06	7.692293e-06	1.135151e-08	5.550884e+01	7.472734e+02
1.780000e-06	7.656420e-06	1.135350e-08	5.524997e+01	7.460097e+02
1.790000e-06	7.618208e-06	1.138948e-08	5.497423e+01	7.446442e+02
1.800000e-06	7.577933e-06	1.132478e-08	5.468360e+01	7.431635e+02
1.810000e-06	7.535540e-06	1.127946e-08	5.437768e+01	7.415561e+02
1.820000e-06	7.490550e-06	1.134411e-08	5.405303e+01	7.398133e+02
1.830000e-06	7.442959e-06	1.125758e-08	5.370961e+01	7.379286e+02
1.840000e-06	7.392502e-06	1.126659e-08	5.334550e+01	7.358980e+02
1.850000e-06	7.339024e-06	1.119028e-08	5.295959e+01	7.337192e+02
1.860000e-06	7.282760e-06	1.111694e-08	5.255359e+01	7.313912e+02
1.870000e-06	7.223852e-06	1.116039e-08	5.212850e+01	7.289137e+02
1.880000e-06	7.162393e-06	1.106066e-08	5.168500e+01	7.262868e+02
1.890000e-06	7.098179e-06	1.106437e-08	5.122162e+01	7.235109e+02
1.900000e-06	7.031199e-06	1.098923e-08	5.073828e+01	7.205870e+02
1.910000e-06	6.961530e-06	1.090346e-08	5.023554e+01	7.175166e+02
1.920000e-06	6.889153e-06	1.089388e-08	4.971325e+01	7.143018e+02
1.930000e-06	6.814214e-06	1.084846e-08	4.917248e+01	7.109459e+02
1.940000e-06	6.736473e-06	1.084110e-08	4.861149e+01	7.074527e+02
1.950000e-06	6.656031e-06	1.073337e-08	4.803100e+01	7.038265e+02
1.960000e-06	6.573151e-06	1.068654e-08	4.743293e+01	7.000714e+02
1.970000e-06	6.487872e-06	1.061744e-08	4.681754e+01	6.961906e+02
1.980000e-06	6.400217e-06	1.052602e-08	4.618501e+01	6.921855e+02
1.990000e-06	6.310223e-06	1.050109e-08	4.553560e+01	6.880550e+02
2.000000e-06	6.218128e-06	1.043478e-08	4.487102e+01	6.837954e+02
2.010000e-06	6.123790e-06	1.037861e-08	4.419027e+01	6.793998e+02
2.020000e-06	6.027130e-06	1.028621e-08	4.349275e+01	6.748591e+02
2.030000e-06	5.928372e-06	1.022050e-08	4.278010e+01	6.701625e+02
2.040000e-06	5.827638e-06	1.014471e-08	4.205318e+01	6.652987e+02
2.050000e-06	5.724755e-06	1.006128e-08	4.131076e+01	6.602572e+02
2.060000e-06	5.619765e-06	9.976550e-09	4.055314e+01	6.550300e+02
2.070000e-06	5.512900e-06	9.901164e-09	3.978198e+01	6.496118e+02
2.080000e-06	5.404165e-06	9.832084e-09	3.899733e+01	6.440013e+02
2.090000e-06	5.293490e-06	9.735454e-09	3.819868e+01	6.382006e+02
2.100000e-06	5.180851e-06	9.650043e-09	3.738587e+01	6.322149e+02
2.110000e-06	5.066266e-06	9.554988e-09	3.655900e+01	6.260508e+02
2.120000e-06	4.949682e-06	9.453624e-09	3.571771e+01	6.197146e+02
2.130000e-06	4.831175e-06	9.343975e-09	3.486255e+01	6.132108e+02
2.140000e-06	4.710783e-06	9.256837e-09	3.399378e+01	6.065399e+02
2.150000e-06	4.588640e-06	9.164252e-09	3.311237e+01	5.996976e+02
2.160000e-06	4.464882e-06	9.052900e-09	3.221932e+01	5.926738e+02
2.170000e-06	4.339560e-06	8.930292e-09	3.131497e+01	5.854531e+02
2.180000e-06	4.212610e-06	8.814238e-09	3.039888e+01	5.780158e+02
2.190000e-06	4.084035e-06	8.700766e-09	2.947106e+01	5.703399e+02
2.200000e-06	3.953981e-06	8.578868e-09	2.853257e+01	5.624032e+02
2.210000e-06	3.822502e-06	8.461613e-09	2.758379e+01	5.541857e+02
2.220000e-06	3.689655e-06	8.339381e-09	2.662516e+01	5.456716e+02
2.230000e-06	3.555425e-06	8.202890e-09	2.565652e+01	5.368512e+02
2.240000e-06	3.419769e-06	8.054491e-09	2.467761e+01	5.277208e+02
2.250000e-06	3.282809e-06	7.913738e-09	2.368928e+01	5.182826e+02
2.260000e-06	3.144686e-06	7.770691e-09	2.269257e+01	5.085427e+02
2.270000e-06	3.005416e-06	7.620959e-09	2.168757e+01	4.985088e+02
2.280000e-06	2.864991e-06	7.464802e-09	2.067424e+01	4.881872e+02
2.290000e-06	2.723399e-06	7.308919e-09	1.965249e+01	4.775800e+02
2.300000e-06	2.580762e-06	7.144999e-09	1.862320e+01	4.666819e+02
2.310000e-06	2.437155e-06	6.972521e-09	1.758691e+01	4.554793e+02
2.320000e-06	2.292592e-06	6.794734e-09	1.654372e+01	4.439497e+02
2.330000e-06	2.147247e-06	6.608213e-09	1.549488e+01	4.320626e+02
2.340000e-06	2.001209e-06	6.415252e-09	1.444105e+01	4.197820e+02
2.350000e-06	1.854496e-06	6.221279e-09	1.338234e+01	4.070698e+02
2.360000e-06	1.707198e-06	6.026221e-09	1.231942e+01	3.938895e+02
2.370000e-06	1.559412e-06	5.818679e-09	1.125297e+01	3.802099e+02
2.380000e-06	1.411181e-06	5.599553e-09	1.018331e+01	3.660082e+02
2.390000e-06	1.262415e-06	5.373723e-09	9.109789e+00	3.512711e+02
2.400000e-06	1.113121e-06	5.141610e-09	8.032462e+00	3.359947e+02
2.410000e-06	9.634861e-07	4.903411e-09	6.952673e+00	3.201818e+02
2.420000e-06	8.136605e-07	4.659975e-09	5.871507e+00	3.038380e+02
2.430000e-06	6.636463e-07	4.405073e-09	4.788980e+00	2.869659e+02
2.440000e-06	5.133888e-07	4.135751e-09	3.704697e+00	2.695590e+02
2.450000e-06	3.629624e-07	3.858472e-09	2.619196e+00	2.515957e+02
2.460000e-06	2.124558e-07	3.576778e-09	1.533116e+00	2.330351e+02
2.470000e-06	6.186775e-08	3.284418e-09	4.464478e-01	2.138149e+02
2.480000e-06	-8.880466e-08	2.977098e-09	-6.408289e-01	1.938517e+02
2.490000e-06	-2.395441e-07	2.657204e-09	-1.728590e+00	1.730464e+02
2.500000e-06	-3.902595e-07	2.324279e-09	-2.816176e+00	1.512910e+02
2.510000e-06	-5.408430e-07	1.975299e-09	-3.902811e+00	1.284798e+02
2.520000e-06	-6.912425e-07	1.609901e-09	-4.988119e+00	1.045219e+02
2.530000e-06	-8.414363e-07	1.229165e-09	-6.071942e+00	7.935500e+01
2.540000e-06	-9.914040e-07	8.318282e-10	-7.154133e+00	5.295741e+01
2.550000e-06	-1.141083e-06	4.167825e-10	-8.234244e+00	2.535903e+01
2.560000e-06	-1.290349e-06	-1.487557e-11	-9.311367e+00	-3.352021e+00
2.570000e-06	-1.439086e-06	-4.632865e-10	-1.038468e+01	-3.302714e+01
2.580000e-06	-1.587288e-06	-9.281023e-10	-1.145413e+01	-6.346022e+01
2.590000e-06	-1.734943e-06	-1.405632e-09	-1.251963e+01	-9.439580e+01
2.600000e-06	-1.881981e-06	-1.889311e-09	-1.358068e+01	-1.255418e+02
2.610000e-06	-2.028302e-06	-2.371599e-09	-1.463656e+01	-1.565860e+02
2.620000e-06	-2.173879e-06	-2.845506e-09	-1.568706e+01	-1.872140e+02
2.630000e-06	-2.318690e-06	-3.305507e-09	-1.673205e+01	-2.171285e+02
2.640000e-06	-2.462549e-06	-3.746614e-09	-1.777015e+01	-2.460658e+02
2.650000e-06	-2.605368e-06	-4.166936e-09	-1.880076e+01	-2.738107e+02
2.660000e-06	-2.747168e-06	-4.565518e-09	-1.982401e+01	-3.002056e+02
2.670000e-06	-2.887798e-06	-4.941328e-09	-2.083882e+01	-3.251558e+02
2.680000e-06	-3.027254e-06	-5.294743e-09	-2.184516e+01	-3.486284e+02
2.690000e-06	-3.165592e-06	-5.628476e-09	-2.284343e+01	-3.706466e+02
2.700000e-06	-3.302773e-06	-5.945205e-09	-2.383335e+01	-3.912805e+02
2.710000e-06	-3.438656e-06	-6.244458e-09	-2.481390e+01	-4.106339e+02
2.720000e-06	-3.573188e-06	-6.526383e-09	-2.578470e+01	-4.288304e+02
2.730000e-06	-3.706497e-06	-6.790948e-09	-2.674668e+01	-4.460000e+02
2.740000e-06	-3.838477e-06	-7.040808e-09	-2.769908e+01	-4.622664e+02
2.750000e-06	-3.969098e-06	-7.280635e-09	-2.864166e+01	-4.777380e+02
2.760000e-06	-4.098432e-06	-7.511883e-09	-2.957495e+01	-4.925015e+02
2.770000e-06	-4.226290e-06	-7.731391e-09	-3.049760e+01	-5.066196e+02
2.780000e-06	-4.352596e-06	-7.937288e-09	-3.140904e+01	-5.201321e+02
2.790000e-06	-4.477419e-06	-8.132755e-09	-3.230979e+01	-5.330593e+02
2.800000e-06	-4.600672e-06	-8.318028e-09	-3.319920e+01	-5.454083e+02
2.810000e-06	-4.722321e-06	-8.494328e-09	-3.407704e+01	-5.571791e+02
2.820000e-06	-4.842282e-06	-8.662063e-09	-3.494270e+01	-5.683711e+02
2.830000e-06	-4.960424e-06	-8.820402e-09	-3.579523e+01	-5.789883e+02
2.840000e-06	-5.076558e-06	-8.973685e-09	-3.663327e+01	-5.890430e+02
2.850000e-06	-5.190552e-06	-9.122452e-09	-3.745587e+01	-5.985575e+02
2.860000e-06	-5.302437e-06	-9.265508e-09	-3.826325e+01	-6.075630e+02
2.870000e-06	-5.412314e-06	-9.400271e-09	-3.905614e+01	-6.160984e+02
2.880000e-06	-5.520367e-06	-9.525459e-09	-3.983587e+01	-6.242063e+02
2.890000e-06	-5.626597e-06	-9.645404e-09	-4.060244e+01	-6.319292e+02
2.900000e-06	-5.730788e-06	-9.759792e-09	-4.135430e+01	-6.393062e+02
2.910000e-06	-5.832831e-06	-9.866782e-09	-4.209066e+01	-6.463698e+02
2.920000e-06	-5.932686e-06	-9.967393e-09	-4.281123e+01	-6.531444e+02
2.930000e-06	-6.030407e-06	-1.006367e-08	-4.351640e+01	-6.596455e+02
2.940000e-06	-6.126016e-06	-1.015841e-08	-4.420633e+01	-6.658812e+02
