# Temperatura_=_55.36
# Concentracion g/m^3_=_10000.0
# C_Vs_to_Am_M_A/Vsm_=_65563218390.804596
# pendiente_HvsI_1/m_=_3716.3
# ordenada_HvsI_A/m_=_1297.0
# frecuencia_Hz_=_302549.7792974955

Tiempo_(s)	Campo_(V.s)	Magnetizacion_(V.s)	Campo_(kA/m)	Magnetizacion_(A/m)
0.000000e+00	-7.886893e-06	-1.156009e-08	-5.685361e+01	-7.581103e+02
1.000000e-08	-7.883945e-06	-1.156420e-08	-5.683235e+01	-7.577918e+02
2.000000e-08	-7.878381e-06	-1.156148e-08	-5.679224e+01	-7.573396e+02
3.000000e-08	-7.870275e-06	-1.155779e-08	-5.673381e+01	-7.567650e+02
4.000000e-08	-7.859363e-06	-1.155244e-08	-5.665515e+01	-7.560816e+02
5.000000e-08	-7.845507e-06	-1.154150e-08	-5.655527e+01	-7.553039e+02
6.000000e-08	-7.828775e-06	-1.152403e-08	-5.643465e+01	-7.544457e+02
7.000000e-08	-7.809657e-06	-1.150580e-08	-5.629684e+01	-7.535189e+02
8.000000e-08	-7.788362e-06	-1.147878e-08	-5.614333e+01	-7.525324e+02
9.000000e-08	-7.764292e-06	-1.153434e-08	-5.596982e+01	-7.514917e+02
1.000000e-07	-7.737012e-06	-1.156338e-08	-5.577317e+01	-7.503988e+02
1.100000e-07	-7.706630e-06	-1.146961e-08	-5.555415e+01	-7.492521e+02
1.200000e-07	-7.673432e-06	-1.141246e-08	-5.531485e+01	-7.480472e+02
1.300000e-07	-7.637626e-06	-1.139446e-08	-5.505673e+01	-7.467769e+02
1.400000e-07	-7.599510e-06	-1.136254e-08	-5.478197e+01	-7.454323e+02
1.500000e-07	-7.559280e-06	-1.128138e-08	-5.449197e+01	-7.440031e+02
1.600000e-07	-7.516737e-06	-1.128812e-08	-5.418529e+01	-7.424777e+02
1.700000e-07	-7.471547e-06	-1.134390e-08	-5.385953e+01	-7.408438e+02
1.800000e-07	-7.423679e-06	-1.117136e-08	-5.351447e+01	-7.390888e+02
1.900000e-07	-7.372977e-06	-1.123561e-08	-5.314898e+01	-7.371996e+02
2.000000e-07	-7.319238e-06	-1.126432e-08	-5.276160e+01	-7.351633e+02
2.100000e-07	-7.262765e-06	-1.113290e-08	-5.235451e+01	-7.329679e+02
2.200000e-07	-7.203691e-06	-1.115492e-08	-5.192866e+01	-7.306028e+02
2.300000e-07	-7.142014e-06	-1.105561e-08	-5.148405e+01	-7.280595e+02
2.400000e-07	-7.077718e-06	-1.103854e-08	-5.102057e+01	-7.253326e+02
2.500000e-07	-7.010688e-06	-1.097849e-08	-5.053738e+01	-7.224203e+02
2.600000e-07	-6.941036e-06	-1.093085e-08	-5.003528e+01	-7.193251e+02
2.700000e-07	-6.868677e-06	-1.090912e-08	-4.951367e+01	-7.160533e+02
2.800000e-07	-6.793526e-06	-1.083993e-08	-4.897194e+01	-7.126152e+02
2.900000e-07	-6.715618e-06	-1.077397e-08	-4.841033e+01	-7.090233e+02
3.000000e-07	-6.634982e-06	-1.070809e-08	-4.782906e+01	-7.052917e+02
3.100000e-07	-6.551959e-06	-1.071109e-08	-4.723058e+01	-7.014339e+02
3.200000e-07	-6.466739e-06	-1.062522e-08	-4.661626e+01	-6.974610e+02
3.300000e-07	-6.379247e-06	-1.053267e-08	-4.598556e+01	-6.933805e+02
3.400000e-07	-6.289439e-06	-1.051663e-08	-4.533817e+01	-6.891948e+02
3.500000e-07	-6.197344e-06	-1.045454e-08	-4.467429e+01	-6.849008e+02
3.600000e-07	-6.103049e-06	-1.037015e-08	-4.399455e+01	-6.804897e+02
3.700000e-07	-6.006535e-06	-1.029365e-08	-4.329882e+01	-6.759484e+02
3.800000e-07	-5.907753e-06	-1.023997e-08	-4.258674e+01	-6.712607e+02
3.900000e-07	-5.806843e-06	-1.015392e-08	-4.185931e+01	-6.664095e+02
4.000000e-07	-5.703936e-06	-1.005769e-08	-4.111750e+01	-6.613786e+02
4.100000e-07	-5.598987e-06	-9.990334e-09	-4.036096e+01	-6.561553e+02
4.200000e-07	-5.492014e-06	-9.924050e-09	-3.958983e+01	-6.507312e+02
4.300000e-07	-5.383153e-06	-9.831276e-09	-3.880510e+01	-6.451034e+02
4.400000e-07	-5.272426e-06	-9.722777e-09	-3.800691e+01	-6.392746e+02
4.500000e-07	-5.159646e-06	-9.651152e-09	-3.719392e+01	-6.332513e+02
4.600000e-07	-5.044791e-06	-9.574433e-09	-3.636597e+01	-6.270430e+02
4.700000e-07	-4.928074e-06	-9.466900e-09	-3.552460e+01	-6.206590e+02
4.800000e-07	-4.809537e-06	-9.361172e-09	-3.467012e+01	-6.141067e+02
4.900000e-07	-4.689217e-06	-9.266725e-09	-3.380278e+01	-6.073889e+02
5.000000e-07	-4.567185e-06	-9.156616e-09	-3.292310e+01	-6.005023e+02
5.100000e-07	-4.443531e-06	-9.036970e-09	-3.203172e+01	-5.934369e+02
5.200000e-07	-4.318330e-06	-8.929491e-09	-3.112919e+01	-5.861760e+02
5.300000e-07	-4.191469e-06	-8.821067e-09	-3.021470e+01	-5.786980e+02
5.400000e-07	-4.063102e-06	-8.698269e-09	-2.928935e+01	-5.709780e+02
5.500000e-07	-3.933290e-06	-8.574773e-09	-2.835358e+01	-5.629913e+02
5.600000e-07	-3.801878e-06	-8.457729e-09	-2.740629e+01	-5.547152e+02
5.700000e-07	-3.668971e-06	-8.330482e-09	-2.644821e+01	-5.461327e+02
5.800000e-07	-3.534703e-06	-8.184787e-09	-2.548032e+01	-5.372329e+02
5.900000e-07	-3.399104e-06	-8.040859e-09	-2.450285e+01	-5.280128e+02
6.000000e-07	-3.262254e-06	-7.898655e-09	-2.351634e+01	-5.184756e+02
6.100000e-07	-3.124116e-06	-7.748600e-09	-2.252056e+01	-5.086295e+02
6.200000e-07	-2.984634e-06	-7.594254e-09	-2.151509e+01	-4.984845e+02
6.300000e-07	-2.843786e-06	-7.437586e-09	-2.049977e+01	-4.880494e+02
6.400000e-07	-2.701760e-06	-7.274078e-09	-1.947595e+01	-4.773280e+02
6.500000e-07	-2.558755e-06	-7.100586e-09	-1.844509e+01	-4.663166e+02
6.600000e-07	-2.414778e-06	-6.927925e-09	-1.740722e+01	-4.550023e+02
6.700000e-07	-2.269899e-06	-6.751527e-09	-1.636284e+01	-4.433624e+02
6.800000e-07	-2.124192e-06	-6.566166e-09	-1.531249e+01	-4.313657e+02
6.900000e-07	-1.977754e-06	-6.374238e-09	-1.425687e+01	-4.189752e+02
7.000000e-07	-1.830670e-06	-6.178928e-09	-1.319660e+01	-4.061517e+02
7.100000e-07	-1.683017e-06	-5.974902e-09	-1.213222e+01	-3.928577e+02
7.200000e-07	-1.534859e-06	-5.763348e-09	-1.106421e+01	-3.790618e+02
7.300000e-07	-1.386333e-06	-5.548746e-09	-9.993548e+00	-3.647412e+02
7.400000e-07	-1.237410e-06	-5.324321e-09	-8.920020e+00	-3.498835e+02
7.500000e-07	-1.088071e-06	-5.090258e-09	-7.843491e+00	-3.344860e+02
7.600000e-07	-9.383950e-07	-4.850287e-09	-6.764531e+00	-3.185530e+02
7.700000e-07	-7.884227e-07	-4.604810e-09	-5.683438e+00	-3.020914e+02
7.800000e-07	-6.381686e-07	-4.345793e-09	-4.600314e+00	-2.851044e+02
7.900000e-07	-4.876320e-07	-4.077263e-09	-3.515153e+00	-2.675856e+02
8.000000e-07	-3.369038e-07	-3.803642e-09	-2.428611e+00	-2.495126e+02
8.100000e-07	-1.860445e-07	-3.518583e-09	-1.341124e+00	-2.308425e+02
8.200000e-07	-3.508605e-08	-3.216778e-09	-2.529220e-01	-2.115101e+02
8.300000e-07	1.159285e-07	-2.903464e-09	8.356843e-01	-1.914287e+02
8.400000e-07	2.669299e-07	-2.581363e-09	1.924196e+00	-1.704958e+02
8.500000e-07	4.178117e-07	-2.244366e-09	3.011845e+00	-1.486004e+02
8.600000e-07	5.685720e-07	-1.894262e-09	4.098619e+00	-1.256347e+02
8.700000e-07	7.192013e-07	-1.530635e-09	5.184448e+00	-1.015075e+02
8.800000e-07	8.696182e-07	-1.150285e-09	6.268746e+00	-7.615739e+01
8.900000e-07	1.019755e-06	-7.488499e-10	7.351027e+00	-4.956590e+01
9.000000e-07	1.169553e-06	-3.288661e-10	8.430859e+00	-2.176773e+01
9.100000e-07	1.318941e-06	1.058810e-10	9.507742e+00	7.142785e+00
9.200000e-07	1.467911e-06	5.574149e-10	1.058161e+01	3.700995e+01
9.300000e-07	1.616391e-06	1.026802e-09	1.165195e+01	6.762038e+01
9.400000e-07	1.764281e-06	1.507212e-09	1.271803e+01	9.871186e+01
9.500000e-07	1.911514e-06	1.988770e-09	1.377938e+01	1.299868e+02
9.600000e-07	2.057999e-06	2.469394e-09	1.483533e+01	1.611293e+02
9.700000e-07	2.203699e-06	2.942067e-09	1.588563e+01	1.918234e+02
9.800000e-07	2.348567e-06	3.400425e-09	1.692993e+01	2.217726e+02
9.900000e-07	2.492528e-06	3.839502e-09	1.796769e+01	2.507164e+02
1.000000e-06	2.635524e-06	4.256998e-09	1.899849e+01	2.784444e+02
1.010000e-06	2.777543e-06	4.651581e-09	2.002225e+01	3.048052e+02
1.020000e-06	2.918508e-06	5.023895e-09	2.103841e+01	3.297109e+02
1.030000e-06	3.058272e-06	5.377858e-09	2.204591e+01	3.531356e+02
1.040000e-06	3.196710e-06	5.711008e-09	2.304386e+01	3.751086e+02
1.050000e-06	3.333862e-06	6.025564e-09	2.403254e+01	3.957048e+02
1.060000e-06	3.469781e-06	6.321471e-09	2.501232e+01	4.150314e+02
1.070000e-06	3.604392e-06	6.601196e-09	2.598269e+01	4.332135e+02
1.080000e-06	3.737741e-06	6.866700e-09	2.694395e+01	4.503809e+02
1.090000e-06	3.869776e-06	7.118977e-09	2.789574e+01	4.666558e+02
1.100000e-06	4.000319e-06	7.359052e-09	2.883677e+01	4.821438e+02
1.110000e-06	4.129453e-06	7.585867e-09	2.976765e+01	4.969285e+02
1.120000e-06	4.257214e-06	7.799952e-09	3.068863e+01	5.110692e+02
1.130000e-06	4.383443e-06	8.002535e-09	3.159857e+01	5.246026e+02
1.140000e-06	4.508217e-06	8.194795e-09	3.249802e+01	5.375470e+02
1.150000e-06	4.631420e-06	8.377313e-09	3.338614e+01	5.499080e+02
1.160000e-06	4.752938e-06	8.552741e-09	3.426212e+01	5.616851e+02
1.170000e-06	4.872842e-06	8.721828e-09	3.512646e+01	5.728782e+02
1.180000e-06	4.990968e-06	8.884342e-09	3.597799e+01	5.834926e+02
1.190000e-06	5.107174e-06	9.039609e-09	3.681567e+01	5.935421e+02
1.200000e-06	5.221382e-06	9.188041e-09	3.763895e+01	6.030509e+02
1.210000e-06	5.333645e-06	9.328870e-09	3.844821e+01	6.120521e+02
1.220000e-06	5.443988e-06	9.459461e-09	3.924363e+01	6.205860e+02
1.230000e-06	5.552423e-06	9.582681e-09	4.002530e+01	6.286962e+02
1.240000e-06	5.658849e-06	9.701542e-09	4.079248e+01	6.364259e+02
1.250000e-06	5.763164e-06	9.816170e-09	4.154445e+01	6.438141e+02
1.260000e-06	5.865433e-06	9.925082e-09	4.228167e+01	6.508932e+02
1.270000e-06	5.965547e-06	1.002726e-08	4.300335e+01	6.576867e+02
1.280000e-06	6.063397e-06	1.012453e-08	4.370872e+01	6.642095e+02
1.290000e-06	6.158948e-06	1.021709e-08	4.439751e+01	6.704689e+02
1.300000e-06	6.252315e-06	1.030655e-08	4.507055e+01	6.764664e+02
1.310000e-06	6.343462e-06	1.039388e-08	4.572760e+01	6.822004e+02
1.320000e-06	6.432283e-06	1.047795e-08	4.636788e+01	6.876693e+02
1.330000e-06	6.518824e-06	1.055731e-08	4.699172e+01	6.928736e+02
1.340000e-06	6.603121e-06	1.063152e-08	4.759938e+01	6.978175e+02
1.350000e-06	6.685084e-06	1.070183e-08	4.819022e+01	7.025098e+02
1.360000e-06	6.764576e-06	1.077019e-08	4.876325e+01	7.069637e+02
1.370000e-06	6.841579e-06	1.083620e-08	4.931834e+01	7.111949e+02
1.380000e-06	6.915964e-06	1.089963e-08	4.985455e+01	7.152203e+02
1.390000e-06	6.987731e-06	1.095947e-08	5.037189e+01	7.190558e+02
1.400000e-06	7.057044e-06	1.101547e-08	5.087154e+01	7.227138e+02
1.410000e-06	7.123853e-06	1.106866e-08	5.135314e+01	7.262024e+02
1.420000e-06	7.188052e-06	1.111924e-08	5.181592e+01	7.295241e+02
1.430000e-06	7.249761e-06	1.116595e-08	5.226076e+01	7.326763e+02
1.440000e-06	7.309037e-06	1.120836e-08	5.268806e+01	7.356520e+02
1.450000e-06	7.365771e-06	1.124876e-08	5.309703e+01	7.384421e+02
1.460000e-06	7.419818e-06	1.128602e-08	5.348664e+01	7.410369e+02
1.470000e-06	7.470898e-06	1.132068e-08	5.385486e+01	7.434288e+02
1.480000e-06	7.518950e-06	1.135356e-08	5.420124e+01	7.456139e+02
1.490000e-06	7.564294e-06	1.138443e-08	5.452811e+01	7.475935e+02
1.500000e-06	7.606969e-06	1.141362e-08	5.483574e+01	7.493746e+02
1.510000e-06	7.646812e-06	1.143985e-08	5.512295e+01	7.509692e+02
1.520000e-06	7.684014e-06	1.146232e-08	5.539112e+01	7.523938e+02
1.530000e-06	7.718618e-06	1.148140e-08	5.564057e+01	7.536667e+02
1.540000e-06	7.750399e-06	1.149935e-08	5.586967e+01	7.548067e+02
1.550000e-06	7.779448e-06	1.151588e-08	5.607908e+01	7.558303e+02
1.560000e-06	7.805744e-06	1.153016e-08	5.626863e+01	7.567503e+02
1.570000e-06	7.829080e-06	1.154161e-08	5.643685e+01	7.575742e+02
1.580000e-06	7.849718e-06	1.155201e-08	5.658562e+01	7.583040e+02
1.590000e-06	7.867735e-06	1.156222e-08	5.671550e+01	7.589364e+02
1.600000e-06	7.882776e-06	1.157094e-08	5.682393e+01	7.594639e+02
1.610000e-06	7.894702e-06	1.157827e-08	5.690990e+01	7.598764e+02
1.620000e-06	7.903504e-06	1.158307e-08	5.697335e+01	7.601629e+02
1.630000e-06	7.909410e-06	1.158579e-08	5.701592e+01	7.603138e+02
1.640000e-06	7.912593e-06	1.158722e-08	5.703887e+01	7.603225e+02
1.650000e-06	7.912958e-06	1.158942e-08	5.704150e+01	7.601862e+02
1.660000e-06	7.910648e-06	1.157900e-08	5.702484e+01	7.599070e+02
1.670000e-06	7.905728e-06	1.156622e-08	5.698937e+01	7.594915e+02
1.680000e-06	7.898125e-06	1.155930e-08	5.693457e+01	7.589500e+02
1.690000e-06	7.887913e-06	1.155093e-08	5.686096e+01	7.582956e+02
1.700000e-06	7.874912e-06	1.154302e-08	5.676724e+01	7.575429e+02
1.710000e-06	7.859173e-06	1.153912e-08	5.665378e+01	7.567059e+02
1.720000e-06	7.841079e-06	1.153684e-08	5.652335e+01	7.557970e+02
1.730000e-06	7.820693e-06	1.151675e-08	5.637639e+01	7.548263e+02
1.740000e-06	7.797604e-06	1.137851e-08	5.620996e+01	7.538002e+02
1.750000e-06	7.771191e-06	1.137692e-08	5.601955e+01	7.527217e+02
1.760000e-06	7.741188e-06	1.143704e-08	5.580327e+01	7.515902e+02
1.770000e-06	7.708120e-06	1.140314e-08	5.556490e+01	7.504020e+02
1.780000e-06	7.672709e-06	1.138177e-08	5.530963e+01	7.491506e+02
1.790000e-06	7.634968e-06	1.147432e-08	5.503757e+01	7.478277e+02
1.800000e-06	7.595057e-06	1.143907e-08	5.474987e+01	7.464233e+02
1.810000e-06	7.553098e-06	1.126477e-08	5.444740e+01	7.449260e+02
1.820000e-06	7.508630e-06	1.144574e-08	5.412685e+01	7.433239e+02
1.830000e-06	7.461572e-06	1.132703e-08	5.378762e+01	7.416043e+02
1.840000e-06	7.411751e-06	1.129956e-08	5.342848e+01	7.397542e+02
1.850000e-06	7.358887e-06	1.132424e-08	5.304741e+01	7.377607e+02
1.860000e-06	7.303218e-06	1.113897e-08	5.264612e+01	7.356114e+02
1.870000e-06	7.244894e-06	1.126742e-08	5.222568e+01	7.332952e+02
1.880000e-06	7.183969e-06	1.112623e-08	5.178649e+01	7.308030e+02
1.890000e-06	7.120334e-06	1.113864e-08	5.132777e+01	7.281283e+02
1.900000e-06	7.053960e-06	1.115684e-08	5.084931e+01	7.252684e+02
1.910000e-06	6.984839e-06	1.097561e-08	5.035104e+01	7.222244e+02
1.920000e-06	6.912887e-06	1.098909e-08	4.983237e+01	7.190017e+02
1.930000e-06	6.838355e-06	1.091451e-08	4.929509e+01	7.156093e+02
1.940000e-06	6.761071e-06	1.094575e-08	4.873798e+01	7.120595e+02
1.950000e-06	6.681036e-06	1.081739e-08	4.816104e+01	7.083658e+02
1.960000e-06	6.598616e-06	1.074936e-08	4.756690e+01	7.045422e+02
1.970000e-06	6.513806e-06	1.074662e-08	4.695555e+01	7.006007e+02
1.980000e-06	6.426557e-06	1.058835e-08	4.632660e+01	6.965499e+02
1.990000e-06	6.336963e-06	1.057754e-08	4.568075e+01	6.923938e+02
2.000000e-06	6.245255e-06	1.050932e-08	4.501966e+01	6.881309e+02
2.010000e-06	6.151322e-06	1.047405e-08	4.434254e+01	6.837538e+02
2.020000e-06	6.055091e-06	1.035683e-08	4.364884e+01	6.792508e+02
2.030000e-06	5.956688e-06	1.028148e-08	4.293949e+01	6.746061e+02
2.040000e-06	5.856152e-06	1.023902e-08	4.221477e+01	6.698028e+02
2.050000e-06	5.753488e-06	1.014983e-08	4.147470e+01	6.648242e+02
2.060000e-06	5.648773e-06	1.006103e-08	4.071985e+01	6.596564e+02
2.070000e-06	5.542219e-06	9.963263e-09	3.995174e+01	6.542896e+02
2.080000e-06	5.433826e-06	9.913591e-09	3.917038e+01	6.487195e+02
2.090000e-06	5.323494e-06	9.805007e-09	3.837504e+01	6.429471e+02
2.100000e-06	5.211183e-06	9.726854e-09	3.756543e+01	6.369779e+02
2.110000e-06	5.096978e-06	9.640660e-09	3.674217e+01	6.308209e+02
2.120000e-06	4.980803e-06	9.542551e-09	3.590471e+01	6.244857e+02
2.130000e-06	4.862578e-06	9.414557e-09	3.505247e+01	6.179805e+02
2.140000e-06	4.742445e-06	9.316753e-09	3.418648e+01	6.113094e+02
2.150000e-06	4.620607e-06	9.235660e-09	3.330819e+01	6.044712e+02
2.160000e-06	4.497158e-06	9.128324e-09	3.241830e+01	5.974578e+02
2.170000e-06	4.372022e-06	9.008220e-09	3.151624e+01	5.902542e+02
2.180000e-06	4.245258e-06	8.886324e-09	3.060244e+01	5.828401e+02
2.190000e-06	4.116895e-06	8.776579e-09	2.967713e+01	5.751914e+02
2.200000e-06	3.987016e-06	8.651198e-09	2.874088e+01	5.672828e+02
2.210000e-06	3.855667e-06	8.535375e-09	2.779403e+01	5.590909e+02
2.220000e-06	3.722901e-06	8.407919e-09	2.683697e+01	5.505967e+02
2.230000e-06	3.588776e-06	8.269429e-09	2.587012e+01	5.417877e+02
2.240000e-06	3.453333e-06	8.117121e-09	2.489376e+01	5.326585e+02
2.250000e-06	3.316564e-06	7.977997e-09	2.390784e+01	5.232107e+02
2.260000e-06	3.178535e-06	7.838096e-09	2.291285e+01	5.134513e+02
2.270000e-06	3.039326e-06	7.688391e-09	2.190934e+01	5.033902e+02
2.280000e-06	2.898893e-06	7.530784e-09	2.089702e+01	4.930367e+02
2.290000e-06	2.757335e-06	7.372068e-09	1.987657e+01	4.823966e+02
2.300000e-06	2.614739e-06	7.210497e-09	1.884866e+01	4.714684e+02
2.310000e-06	2.471172e-06	7.041410e-09	1.781373e+01	4.602420e+02
2.320000e-06	2.326700e-06	6.865436e-09	1.677230e+01	4.486974e+02
2.330000e-06	2.181419e-06	6.672821e-09	1.572502e+01	4.368057e+02
2.340000e-06	2.035492e-06	6.473440e-09	1.467309e+01	4.245312e+02
2.350000e-06	1.888937e-06	6.278134e-09	1.361662e+01	4.118348e+02
2.360000e-06	1.741646e-06	6.086981e-09	1.255487e+01	3.986783e+02
2.370000e-06	1.593735e-06	5.883570e-09	1.148863e+01	3.850280e+02
2.380000e-06	1.445362e-06	5.665311e-09	1.041907e+01	3.708585e+02
2.390000e-06	1.296563e-06	5.439586e-09	9.346430e+00	3.561544e+02
2.400000e-06	1.147369e-06	5.207230e-09	8.270949e+00	3.409104e+02
2.410000e-06	9.978365e-07	4.967874e-09	7.193023e+00	3.251292e+02
2.420000e-06	8.480021e-07	4.724793e-09	6.112924e+00	3.088174e+02
2.430000e-06	6.979576e-07	4.471305e-09	5.031310e+00	2.919801e+02
2.440000e-06	5.476792e-07	4.201277e-09	3.948010e+00	2.746142e+02
2.450000e-06	3.971277e-07	3.922708e-09	2.862742e+00	2.567024e+02
2.460000e-06	2.463849e-07	3.643501e-09	1.776095e+00	2.382081e+02
2.470000e-06	9.549784e-08	3.354461e-09	6.884075e-01	2.190723e+02
2.480000e-06	-5.551543e-08	3.047623e-09	-4.001895e-01	1.992143e+02
2.490000e-06	-2.065493e-07	2.726954e-09	-1.488935e+00	1.785352e+02
2.500000e-06	-3.574555e-07	2.395968e-09	-2.576760e+00	1.569256e+02
2.510000e-06	-5.082257e-07	2.050933e-09	-3.663606e+00	1.342755e+02
2.520000e-06	-6.588031e-07	1.687400e-09	-4.749061e+00	1.104875e+02
2.530000e-06	-8.091236e-07	1.307726e-09	-5.832664e+00	8.549018e+01
2.540000e-06	-9.592092e-07	9.102417e-10	-6.914573e+00	5.925178e+01
2.550000e-06	-1.109036e-06	4.935696e-10	-7.994619e+00	3.179089e+01
2.560000e-06	-1.258498e-06	6.296905e-11	-9.072031e+00	3.184416e+00
2.570000e-06	-1.407509e-06	-3.817769e-10	-1.014619e+01	-2.642933e+01
2.580000e-06	-1.556082e-06	-8.445329e-10	-1.121720e+01	-5.685278e+01
2.590000e-06	-1.704140e-06	-1.323470e-09	-1.228449e+01	-8.783647e+01
2.600000e-06	-1.851516e-06	-1.809214e-09	-1.334687e+01	-1.190913e+02
2.610000e-06	-1.998132e-06	-2.293363e-09	-1.440377e+01	-1.503048e+02
2.620000e-06	-2.143971e-06	-2.770170e-09	-1.545507e+01	-1.811590e+02
2.630000e-06	-2.289035e-06	-3.234235e-09	-1.650078e+01	-2.113500e+02
2.640000e-06	-2.433258e-06	-3.681032e-09	-1.754043e+01	-2.406055e+02
2.650000e-06	-2.576425e-06	-4.109002e-09	-1.857247e+01	-2.686995e+02
2.660000e-06	-2.718487e-06	-4.513945e-09	-1.959654e+01	-2.954632e+02
2.670000e-06	-2.859514e-06	-4.893807e-09	-2.061314e+01	-3.207906e+02
2.680000e-06	-2.999451e-06	-5.251589e-09	-2.162190e+01	-3.446382e+02
2.690000e-06	-3.138203e-06	-5.590017e-09	-2.262211e+01	-3.670206e+02
2.700000e-06	-3.275776e-06	-5.910430e-09	-2.361382e+01	-3.880010e+02
2.710000e-06	-3.412144e-06	-6.213268e-09	-2.459684e+01	-4.076786e+02
2.720000e-06	-3.547091e-06	-6.499704e-09	-2.556962e+01	-4.261749e+02
2.730000e-06	-3.680721e-06	-6.768682e-09	-2.653291e+01	-4.436198e+02
2.740000e-06	-3.813168e-06	-7.023145e-09	-2.748768e+01	-4.601386e+02
2.750000e-06	-3.944208e-06	-7.266502e-09	-2.843229e+01	-4.758424e+02
2.760000e-06	-4.073875e-06	-7.499495e-09	-2.936701e+01	-4.908215e+02
2.770000e-06	-4.202207e-06	-7.720599e-09	-3.029211e+01	-5.051420e+02
2.780000e-06	-4.328949e-06	-7.930217e-09	-3.120574e+01	-5.188469e+02
2.790000e-06	-4.454234e-06	-8.130583e-09	-3.210888e+01	-5.319592e+02
2.800000e-06	-4.578092e-06	-8.318858e-09	-3.300172e+01	-5.444873e+02
2.810000e-06	-4.700284e-06	-8.495293e-09	-3.388256e+01	-5.564319e+02
2.820000e-06	-4.820814e-06	-8.663911e-09	-3.475141e+01	-5.677922e+02
2.830000e-06	-4.939498e-06	-8.824899e-09	-3.560696e+01	-5.785714e+02
2.840000e-06	-5.056197e-06	-8.979142e-09	-3.644819e+01	-5.887809e+02
2.850000e-06	-5.170823e-06	-9.129304e-09	-3.727449e+01	-5.984417e+02
2.860000e-06	-5.283292e-06	-9.275255e-09	-3.808524e+01	-6.075846e+02
2.870000e-06	-5.393763e-06	-9.412931e-09	-3.888158e+01	-6.162482e+02
2.880000e-06	-5.502367e-06	-9.540437e-09	-3.966447e+01	-6.244755e+02
2.890000e-06	-5.609096e-06	-9.660752e-09	-4.043383e+01	-6.323102e+02
2.900000e-06	-5.713827e-06	-9.774315e-09	-4.118880e+01	-6.397929e+02
2.910000e-06	-5.816374e-06	-9.880837e-09	-4.192802e+01	-6.469580e+02
2.920000e-06	-5.916740e-06	-9.982475e-09	-4.265152e+01	-6.538317e+02
2.930000e-06	-6.015018e-06	-1.008253e-08	-4.335997e+01	-6.604314e+02
2.940000e-06	-6.111159e-06	-1.018101e-08	-4.405301e+01	-6.667663e+02
