# Temperatura_=_61.34
# Concentracion g/m^3_=_10000.0
# C_Vs_to_Am_M_A/Vsm_=_65563218390.804596
# pendiente_HvsI_1/m_=_3716.3
# ordenada_HvsI_A/m_=_1297.0
# frecuencia_Hz_=_302551.9037826326

Tiempo_(s)	Campo_(V.s)	Magnetizacion_(V.s)	Campo_(kA/m)	Magnetizacion_(A/m)
0.000000e+00	-7.961236e-06	-1.190163e-08	-5.684435e+01	-7.810803e+02
1.000000e-08	-7.957193e-06	-1.190056e-08	-5.681548e+01	-7.806804e+02
2.000000e-08	-7.950601e-06	-1.189408e-08	-5.676841e+01	-7.801597e+02
3.000000e-08	-7.941329e-06	-1.188987e-08	-5.670221e+01	-7.795320e+02
4.000000e-08	-7.929220e-06	-1.188205e-08	-5.661575e+01	-7.788100e+02
5.000000e-08	-7.914158e-06	-1.186841e-08	-5.650820e+01	-7.780037e+02
6.000000e-08	-7.896328e-06	-1.185215e-08	-5.638090e+01	-7.771198e+02
7.000000e-08	-7.876218e-06	-1.182820e-08	-5.623730e+01	-7.761609e+02
8.000000e-08	-7.853655e-06	-1.185235e-08	-5.607621e+01	-7.751257e+02
9.000000e-08	-7.828006e-06	-1.191485e-08	-5.589307e+01	-7.740102e+02
1.000000e-07	-7.799189e-06	-1.184104e-08	-5.568731e+01	-7.728081e+02
1.100000e-07	-7.767536e-06	-1.176060e-08	-5.546130e+01	-7.715125e+02
1.200000e-07	-7.733060e-06	-1.174524e-08	-5.521514e+01	-7.701171e+02
1.300000e-07	-7.695945e-06	-1.172372e-08	-5.495014e+01	-7.686162e+02
1.400000e-07	-7.656625e-06	-1.166297e-08	-5.466938e+01	-7.670057e+02
1.500000e-07	-7.615063e-06	-1.160215e-08	-5.437262e+01	-7.652829e+02
1.600000e-07	-7.571027e-06	-1.167849e-08	-5.405820e+01	-7.634453e+02
1.700000e-07	-7.524370e-06	-1.157012e-08	-5.372507e+01	-7.614904e+02
1.800000e-07	-7.474927e-06	-1.150671e-08	-5.337203e+01	-7.594146e+02
1.900000e-07	-7.422507e-06	-1.159947e-08	-5.299775e+01	-7.572126e+02
2.000000e-07	-7.367239e-06	-1.148026e-08	-5.260312e+01	-7.548770e+02
2.100000e-07	-7.309250e-06	-1.145268e-08	-5.218907e+01	-7.523985e+02
2.200000e-07	-7.248570e-06	-1.143308e-08	-5.175581e+01	-7.497668e+02
2.300000e-07	-7.185316e-06	-1.138076e-08	-5.130417e+01	-7.469717e+02
2.400000e-07	-7.119334e-06	-1.133292e-08	-5.083305e+01	-7.440040e+02
2.500000e-07	-7.050650e-06	-1.125068e-08	-5.034264e+01	-7.408579e+02
2.600000e-07	-6.979246e-06	-1.124092e-08	-4.983280e+01	-7.375310e+02
2.700000e-07	-6.904999e-06	-1.116668e-08	-4.930266e+01	-7.340257e+02
2.800000e-07	-6.828037e-06	-1.110202e-08	-4.875315e+01	-7.303490e+02
2.900000e-07	-6.748304e-06	-1.103840e-08	-4.818384e+01	-7.265113e+02
3.000000e-07	-6.665939e-06	-1.101300e-08	-4.759574e+01	-7.225256e+02
3.100000e-07	-6.581291e-06	-1.096913e-08	-4.699134e+01	-7.184053e+02
3.200000e-07	-6.494432e-06	-1.085499e-08	-4.637116e+01	-7.141619e+02
3.300000e-07	-6.405226e-06	-1.082029e-08	-4.573422e+01	-7.098034e+02
3.400000e-07	-6.313648e-06	-1.076445e-08	-4.508034e+01	-7.053325e+02
3.500000e-07	-6.219814e-06	-1.068235e-08	-4.441035e+01	-7.007457e+02
3.600000e-07	-6.123729e-06	-1.059463e-08	-4.372429e+01	-6.960340e+02
3.700000e-07	-6.025381e-06	-1.053846e-08	-4.302207e+01	-6.911830e+02
3.800000e-07	-5.924844e-06	-1.047020e-08	-4.230422e+01	-6.861753e+02
3.900000e-07	-5.822286e-06	-1.036339e-08	-4.157194e+01	-6.809925e+02
4.000000e-07	-5.717634e-06	-1.028765e-08	-4.082471e+01	-6.756178e+02
4.100000e-07	-5.610887e-06	-1.021230e-08	-4.006253e+01	-6.700382e+02
4.200000e-07	-5.502191e-06	-1.013269e-08	-3.928642e+01	-6.642458e+02
4.300000e-07	-5.391622e-06	-1.002227e-08	-3.849694e+01	-6.582391e+02
4.400000e-07	-5.279075e-06	-9.936323e-09	-3.769334e+01	-6.520220e+02
4.500000e-07	-5.164342e-06	-9.855382e-09	-3.687413e+01	-6.456032e+02
4.600000e-07	-5.047587e-06	-9.751348e-09	-3.604048e+01	-6.389935e+02
4.700000e-07	-4.929071e-06	-9.638700e-09	-3.519426e+01	-6.322033e+02
4.800000e-07	-4.808797e-06	-9.538269e-09	-3.433549e+01	-6.252401e+02
4.900000e-07	-4.686683e-06	-9.436789e-09	-3.346358e+01	-6.181060e+02
5.000000e-07	-4.562853e-06	-9.311756e-09	-3.257942e+01	-6.107961e+02
5.100000e-07	-4.437420e-06	-9.192483e-09	-3.168381e+01	-6.032983e+02
5.200000e-07	-4.310349e-06	-9.078604e-09	-3.077650e+01	-5.955939e+02
5.300000e-07	-4.181657e-06	-8.963414e-09	-2.985762e+01	-5.876595e+02
5.400000e-07	-4.051429e-06	-8.830975e-09	-2.892778e+01	-5.794697e+02
5.500000e-07	-3.919709e-06	-8.701294e-09	-2.798727e+01	-5.709999e+02
5.600000e-07	-3.786515e-06	-8.570363e-09	-2.703625e+01	-5.622299e+02
5.700000e-07	-3.651902e-06	-8.431421e-09	-2.607510e+01	-5.531456e+02
5.800000e-07	-3.515828e-06	-8.285982e-09	-2.510351e+01	-5.437409e+02
5.900000e-07	-3.378351e-06	-8.140064e-09	-2.412190e+01	-5.340171e+02
6.000000e-07	-3.239534e-06	-7.994049e-09	-2.313073e+01	-5.239820e+02
6.100000e-07	-3.099427e-06	-7.835044e-09	-2.213034e+01	-5.136469e+02
6.200000e-07	-2.957967e-06	-7.671986e-09	-2.112030e+01	-5.030232e+02
6.300000e-07	-2.815166e-06	-7.505202e-09	-2.010068e+01	-4.921186e+02
6.400000e-07	-2.671255e-06	-7.334828e-09	-1.907314e+01	-4.809337e+02
6.500000e-07	-2.526444e-06	-7.155375e-09	-1.803917e+01	-4.694592e+02
6.600000e-07	-2.380868e-06	-6.970539e-09	-1.699974e+01	-4.576753e+02
6.700000e-07	-2.234470e-06	-6.783604e-09	-1.595443e+01	-4.455517e+02
6.800000e-07	-2.087253e-06	-6.592360e-09	-1.490328e+01	-4.330501e+02
6.900000e-07	-1.939363e-06	-6.398229e-09	-1.384732e+01	-4.201278e+02
7.000000e-07	-1.790911e-06	-6.192676e-09	-1.278736e+01	-4.067423e+02
7.100000e-07	-1.641941e-06	-5.980704e-09	-1.172369e+01	-3.928559e+02
7.200000e-07	-1.492467e-06	-5.762809e-09	-1.065643e+01	-3.784393e+02
7.300000e-07	-1.342516e-06	-5.538043e-09	-9.585751e+00	-3.634745e+02
7.400000e-07	-1.192099e-06	-5.302829e-09	-8.511755e+00	-3.479546e+02
7.500000e-07	-1.041230e-06	-5.058523e-09	-7.434527e+00	-3.318825e+02
7.600000e-07	-8.899611e-07	-4.807359e-09	-6.354448e+00	-3.152663e+02
7.700000e-07	-7.383418e-07	-4.544303e-09	-5.271864e+00	-2.981131e+02
7.800000e-07	-5.864228e-07	-4.272219e-09	-4.187141e+00	-2.804222e+02
7.900000e-07	-4.342648e-07	-3.994964e-09	-3.100712e+00	-2.621781e+02
8.000000e-07	-2.819602e-07	-3.713076e-09	-2.013235e+00	-2.433444e+02
8.100000e-07	-1.295734e-07	-3.414674e-09	-9.251720e-01	-2.238607e+02
8.200000e-07	2.287809e-08	-3.098916e-09	1.633528e-01	-2.036422e+02
8.300000e-07	1.754084e-07	-2.770878e-09	1.252440e+00	-1.825834e+02
8.400000e-07	3.279472e-07	-2.431291e-09	2.341589e+00	-1.605660e+02
8.500000e-07	4.804075e-07	-2.076279e-09	3.430177e+00	-1.374699e+02
8.600000e-07	6.327170e-07	-1.706335e-09	4.517689e+00	-1.131868e+02
8.700000e-07	7.848222e-07	-1.321778e-09	5.603741e+00	-8.763534e+01
8.800000e-07	9.366596e-07	-9.178587e-10	6.687881e+00	-6.077539e+01
8.900000e-07	1.088136e-06	-4.953708e-10	7.769444e+00	-3.262050e+01
9.000000e-07	1.239159e-06	-5.394070e-11	8.847770e+00	-3.246480e+00
9.100000e-07	1.389680e-06	4.054646e-10	9.922510e+00	2.720497e+01
9.200000e-07	1.539711e-06	8.841641e-10	1.099375e+01	5.852825e+01
9.300000e-07	1.689243e-06	1.376249e-09	1.206143e+01	9.046166e+01
9.400000e-07	1.838186e-06	1.874396e-09	1.312491e+01	1.227005e+02
9.500000e-07	1.986432e-06	2.371411e-09	1.418341e+01	1.549145e+02
9.600000e-07	2.133953e-06	2.861588e-09	1.523673e+01	1.867670e+02
9.700000e-07	2.280685e-06	3.339286e-09	1.628441e+01	2.179363e+02
9.800000e-07	2.426567e-06	3.794579e-09	1.732603e+01	2.481338e+02
9.900000e-07	2.571608e-06	4.228951e-09	1.836164e+01	2.771207e+02
1.000000e-06	2.715680e-06	4.641201e-09	1.939034e+01	3.047188e+02
1.010000e-06	2.858594e-06	5.032125e-09	2.041076e+01	3.308169e+02
1.020000e-06	3.000410e-06	5.401790e-09	2.142335e+01	3.553703e+02
1.030000e-06	3.141083e-06	5.750886e-09	2.242777e+01	3.783957e+02
1.040000e-06	3.280487e-06	6.079943e-09	2.342314e+01	3.999610e+02
1.050000e-06	3.418599e-06	6.388781e-09	2.440928e+01	4.201720e+02
1.060000e-06	3.555396e-06	6.680976e-09	2.538603e+01	4.391576e+02
1.070000e-06	3.690773e-06	6.956905e-09	2.635264e+01	4.570548e+02
1.080000e-06	3.824733e-06	7.217411e-09	2.730913e+01	4.739959e+02
1.090000e-06	3.957348e-06	7.463047e-09	2.825602e+01	4.900975e+02
1.100000e-06	4.088581e-06	7.698963e-09	2.919305e+01	5.054545e+02
1.110000e-06	4.218457e-06	7.924321e-09	3.012038e+01	5.201365e+02
1.120000e-06	4.346895e-06	8.137757e-09	3.103744e+01	5.341893e+02
1.130000e-06	4.473789e-06	8.339335e-09	3.194348e+01	5.476381e+02
1.140000e-06	4.599151e-06	8.530671e-09	3.283859e+01	5.604937e+02
1.150000e-06	4.722914e-06	8.714386e-09	3.372227e+01	5.727588e+02
1.160000e-06	4.845015e-06	8.889743e-09	3.459409e+01	5.844354e+02
1.170000e-06	4.965405e-06	9.056541e-09	3.545369e+01	5.955291e+02
1.180000e-06	5.083951e-06	9.216343e-09	3.630012e+01	6.060538e+02
1.190000e-06	5.200586e-06	9.370260e-09	3.713292e+01	6.160327e+02
1.200000e-06	5.315239e-06	9.518182e-09	3.795155e+01	6.254976e+02
1.210000e-06	5.427845e-06	9.659604e-09	3.875558e+01	6.344872e+02
1.220000e-06	5.538459e-06	9.793629e-09	3.954538e+01	6.430433e+02
1.230000e-06	5.647106e-06	9.920167e-09	4.032113e+01	6.512069e+02
1.240000e-06	5.753739e-06	1.003912e-08	4.108250e+01	6.590149e+02
1.250000e-06	5.858255e-06	1.015248e-08	4.182877e+01	6.664971e+02
1.260000e-06	5.960656e-06	1.026307e-08	4.255993e+01	6.736752e+02
1.270000e-06	6.060877e-06	1.036957e-08	4.327552e+01	6.805623e+02
1.280000e-06	6.158797e-06	1.046991e-08	4.397468e+01	6.871642e+02
1.290000e-06	6.254403e-06	1.056336e-08	4.465732e+01	6.934823e+02
1.300000e-06	6.347774e-06	1.065221e-08	4.532400e+01	6.995159e+02
1.310000e-06	6.438914e-06	1.073905e-08	4.597476e+01	7.052649e+02
1.320000e-06	6.527641e-06	1.082268e-08	4.660828e+01	7.107330e+02
1.330000e-06	6.614032e-06	1.090123e-08	4.722512e+01	7.159280e+02
1.340000e-06	6.698164e-06	1.097516e-08	4.782583e+01	7.208631e+02
1.350000e-06	6.779928e-06	1.104653e-08	4.840964e+01	7.255556e+02
1.360000e-06	6.859226e-06	1.111583e-08	4.897584e+01	7.300253e+02
1.370000e-06	6.935958e-06	1.118453e-08	4.952372e+01	7.342923e+02
1.380000e-06	7.010072e-06	1.124986e-08	5.005290e+01	7.383743e+02
1.390000e-06	7.081607e-06	1.130951e-08	5.056367e+01	7.422842e+02
1.400000e-06	7.150653e-06	1.136640e-08	5.105667e+01	7.460292e+02
1.410000e-06	7.217161e-06	1.142061e-08	5.153155e+01	7.496097e+02
1.420000e-06	7.281013e-06	1.147302e-08	5.198746e+01	7.530200e+02
1.430000e-06	7.342371e-06	1.152324e-08	5.242557e+01	7.562496e+02
1.440000e-06	7.401254e-06	1.156914e-08	5.284600e+01	7.592858e+02
1.450000e-06	7.457497e-06	1.161111e-08	5.324758e+01	7.621160e+02
1.460000e-06	7.510959e-06	1.164609e-08	5.362931e+01	7.647304e+02
1.470000e-06	7.561364e-06	1.167687e-08	5.398920e+01	7.671242e+02
1.480000e-06	7.608803e-06	1.170971e-08	5.432793e+01	7.692987e+02
1.490000e-06	7.653562e-06	1.174548e-08	5.464751e+01	7.712622e+02
1.500000e-06	7.695607e-06	1.178018e-08	5.494772e+01	7.730286e+02
1.510000e-06	7.734874e-06	1.180787e-08	5.522809e+01	7.746162e+02
1.520000e-06	7.771434e-06	1.183152e-08	5.548914e+01	7.760456e+02
1.530000e-06	7.805240e-06	1.185302e-08	5.573051e+01	7.773367e+02
1.540000e-06	7.836258e-06	1.187130e-08	5.595199e+01	7.785066e+02
1.550000e-06	7.864581e-06	1.188577e-08	5.615422e+01	7.795678e+02
1.560000e-06	7.889941e-06	1.189658e-08	5.633529e+01	7.805265e+02
1.570000e-06	7.912360e-06	1.190689e-08	5.649537e+01	7.813829e+02
1.580000e-06	7.932197e-06	1.191840e-08	5.663701e+01	7.821318e+02
1.590000e-06	7.949210e-06	1.193076e-08	5.675848e+01	7.827638e+02
1.600000e-06	7.963148e-06	1.194212e-08	5.685800e+01	7.832679e+02
1.610000e-06	7.973986e-06	1.195256e-08	5.693539e+01	7.836331e+02
1.620000e-06	7.981772e-06	1.196000e-08	5.699097e+01	7.838508e+02
1.630000e-06	7.986731e-06	1.196260e-08	5.702639e+01	7.839167e+02
1.640000e-06	7.988848e-06	1.196247e-08	5.704150e+01	7.838311e+02
1.650000e-06	7.988140e-06	1.195701e-08	5.703645e+01	7.835992e+02
1.660000e-06	7.984829e-06	1.194002e-08	5.701280e+01	7.832307e+02
1.670000e-06	7.978838e-06	1.193034e-08	5.697003e+01	7.827381e+02
1.680000e-06	7.970112e-06	1.192122e-08	5.690773e+01	7.821350e+02
1.690000e-06	7.958662e-06	1.191209e-08	5.682597e+01	7.814345e+02
1.700000e-06	7.944349e-06	1.190908e-08	5.672377e+01	7.806476e+02
1.710000e-06	7.927425e-06	1.190781e-08	5.660294e+01	7.797818e+02
1.720000e-06	7.908301e-06	1.190262e-08	5.646638e+01	7.788407e+02
1.730000e-06	7.886778e-06	1.179199e-08	5.631271e+01	7.778240e+02
1.740000e-06	7.862239e-06	1.172664e-08	5.613750e+01	7.767281e+02
1.750000e-06	7.834159e-06	1.179110e-08	5.593700e+01	7.755474e+02
1.760000e-06	7.802585e-06	1.178223e-08	5.571156e+01	7.742749e+02
1.770000e-06	7.768297e-06	1.173863e-08	5.546674e+01	7.729041e+02
1.780000e-06	7.731689e-06	1.177885e-08	5.520535e+01	7.714291e+02
1.790000e-06	7.692737e-06	1.183338e-08	5.492723e+01	7.698454e+02
1.800000e-06	7.651718e-06	1.164767e-08	5.463435e+01	7.681500e+02
1.810000e-06	7.608441e-06	1.171821e-08	5.432534e+01	7.663403e+02
1.820000e-06	7.562490e-06	1.175549e-08	5.399725e+01	7.644141e+02
1.830000e-06	7.513885e-06	1.160037e-08	5.365020e+01	7.623681e+02
1.840000e-06	7.462296e-06	1.169507e-08	5.328184e+01	7.601974e+02
1.850000e-06	7.407734e-06	1.152515e-08	5.289227e+01	7.578950e+02
1.860000e-06	7.350494e-06	1.154061e-08	5.248357e+01	7.554523e+02
1.870000e-06	7.290554e-06	1.150406e-08	5.205558e+01	7.528590e+02
1.880000e-06	7.227965e-06	1.139435e-08	5.160869e+01	7.501047e+02
1.890000e-06	7.162601e-06	1.149803e-08	5.114198e+01	7.471800e+02
1.900000e-06	7.094465e-06	1.133280e-08	5.065548e+01	7.440779e+02
1.910000e-06	7.023522e-06	1.130798e-08	5.014894e+01	7.407953e+02
1.920000e-06	6.949820e-06	1.125830e-08	4.962270e+01	7.373332e+02
1.930000e-06	6.873451e-06	1.123574e-08	4.907741e+01	7.336975e+02
1.940000e-06	6.794339e-06	1.118290e-08	4.851254e+01	7.298980e+02
1.950000e-06	6.712739e-06	1.103906e-08	4.792991e+01	7.259471e+02
1.960000e-06	6.628692e-06	1.106726e-08	4.732980e+01	7.218584e+02
1.970000e-06	6.542115e-06	1.093326e-08	4.671162e+01	7.176439e+02
1.980000e-06	6.453130e-06	1.087672e-08	4.607626e+01	7.133128e+02
1.990000e-06	6.361972e-06	1.082931e-08	4.542538e+01	7.088691e+02
2.000000e-06	6.268576e-06	1.077997e-08	4.475852e+01	7.043111e+02
2.010000e-06	6.172753e-06	1.068875e-08	4.407433e+01	6.996308e+02
2.020000e-06	6.074783e-06	1.057444e-08	4.337481e+01	6.948153e+02
2.030000e-06	5.974693e-06	1.054155e-08	4.266015e+01	6.898476e+02
2.040000e-06	5.872448e-06	1.045391e-08	4.193011e+01	6.847093e+02
2.050000e-06	5.768113e-06	1.037217e-08	4.118514e+01	6.793831e+02
2.060000e-06	5.661819e-06	1.025854e-08	4.042619e+01	6.738548e+02
2.070000e-06	5.553640e-06	1.019982e-08	3.965377e+01	6.681151e+02
2.080000e-06	5.443444e-06	1.010128e-08	3.886696e+01	6.621608e+02
2.090000e-06	5.331218e-06	1.000374e-08	3.806565e+01	6.559948e+02
2.100000e-06	5.217065e-06	9.918371e-09	3.725058e+01	6.496245e+02
2.110000e-06	5.100835e-06	9.826212e-09	3.642068e+01	6.430606e+02
2.120000e-06	4.982531e-06	9.709858e-09	3.557598e+01	6.363137e+02
2.130000e-06	4.862432e-06	9.586573e-09	3.471845e+01	6.293924e+02
2.140000e-06	4.740584e-06	9.497915e-09	3.384844e+01	6.223003e+02
2.150000e-06	4.617019e-06	9.391724e-09	3.296616e+01	6.150342e+02
2.160000e-06	4.491650e-06	9.276084e-09	3.207101e+01	6.075840e+02
2.170000e-06	4.364610e-06	9.146583e-09	3.116393e+01	5.999325e+02
2.180000e-06	4.236019e-06	9.036745e-09	3.024577e+01	5.920570e+02
2.190000e-06	4.105923e-06	8.911200e-09	2.931687e+01	5.839325e+02
2.200000e-06	3.974364e-06	8.785724e-09	2.837752e+01	5.755339e+02
2.210000e-06	3.841249e-06	8.651770e-09	2.742706e+01	5.668396e+02
2.220000e-06	3.706628e-06	8.512066e-09	2.646585e+01	5.578339e+02
2.230000e-06	3.570662e-06	8.360323e-09	2.549503e+01	5.485085e+02
2.240000e-06	3.433455e-06	8.209979e-09	2.451535e+01	5.388631e+02
2.250000e-06	3.294854e-06	8.068150e-09	2.352572e+01	5.289039e+02
2.260000e-06	3.154858e-06	7.919539e-09	2.252613e+01	5.186417e+02
2.270000e-06	3.013668e-06	7.762185e-09	2.151802e+01	5.080883e+02
2.280000e-06	2.871340e-06	7.594282e-09	2.050177e+01	4.972527e+02
2.290000e-06	2.727917e-06	7.428185e-09	1.947771e+01	4.861373e+02
2.300000e-06	2.583591e-06	7.255551e-09	1.844720e+01	4.747358e+02
2.310000e-06	2.438422e-06	7.079271e-09	1.741068e+01	4.630308e+02
2.320000e-06	2.292430e-06	6.891405e-09	1.636827e+01	4.509946e+02
2.330000e-06	2.145646e-06	6.693832e-09	1.532022e+01	4.385904e+02
2.340000e-06	1.998069e-06	6.492612e-09	1.426649e+01	4.257764e+02
2.350000e-06	1.849783e-06	6.290534e-09	1.320771e+01	4.125097e+02
2.360000e-06	1.700847e-06	6.084461e-09	1.214428e+01	3.987507e+02
2.370000e-06	1.551381e-06	5.866956e-09	1.107708e+01	3.844679e+02
2.380000e-06	1.401505e-06	5.641833e-09	1.000695e+01	3.696403e+02
2.390000e-06	1.251169e-06	5.409406e-09	8.933523e+00	3.542583e+02
2.400000e-06	1.100343e-06	5.167422e-09	7.856605e+00	3.383227e+02
2.410000e-06	9.491023e-07	4.919622e-09	6.776725e+00	3.218408e+02
2.420000e-06	7.976097e-07	4.665503e-09	5.695046e+00	3.048205e+02
2.430000e-06	6.458805e-07	4.396513e-09	4.611678e+00	2.872639e+02
2.440000e-06	4.939029e-07	4.114678e-09	3.526536e+00	2.691597e+02
2.450000e-06	3.418303e-07	3.829387e-09	2.440716e+00	2.504772e+02
2.460000e-06	1.896440e-07	3.538167e-09	1.354085e+00	2.311621e+02
2.470000e-06	3.730611e-08	3.232146e-09	2.663709e-01	2.111355e+02
2.480000e-06	-1.150275e-07	2.908474e-09	-8.213122e-01	1.902967e+02
2.490000e-06	-2.673396e-07	2.571181e-09	-1.908843e+00	1.685294e+02
2.500000e-06	-4.195968e-07	2.219973e-09	-2.995980e+00	1.457130e+02
2.510000e-06	-5.717161e-07	1.853268e-09	-4.082134e+00	1.217346e+02
2.520000e-06	-7.236978e-07	1.472229e-09	-5.167304e+00	9.650495e+01
2.530000e-06	-8.754433e-07	1.073955e-09	-6.250789e+00	6.997221e+01
2.540000e-06	-1.026897e-06	6.529109e-10	-7.332191e+00	4.213558e+01
2.550000e-06	-1.178045e-06	2.141242e-10	-8.411404e+00	1.305472e+01
2.560000e-06	-1.328776e-06	-2.390226e-10	-9.487646e+00	-1.714516e+01
2.570000e-06	-1.478956e-06	-7.099221e-10	-1.055995e+01	-4.827392e+01
2.580000e-06	-1.628569e-06	-1.199247e-09	-1.162821e+01	-8.008287e+01
2.590000e-06	-1.777673e-06	-1.700884e-09	-1.269283e+01	-1.122766e+02
2.600000e-06	-1.926180e-06	-2.204621e-09	-1.375320e+01	-1.445293e+02
2.610000e-06	-2.073945e-06	-2.701813e-09	-1.480826e+01	-1.765043e+02
2.620000e-06	-2.220870e-06	-3.185137e-09	-1.585733e+01	-2.078739e+02
2.630000e-06	-2.366940e-06	-3.650001e-09	-1.690029e+01	-2.383398e+02
2.640000e-06	-2.512118e-06	-4.094607e-09	-1.793687e+01	-2.676495e+02
2.650000e-06	-2.656272e-06	-4.517659e-09	-1.896616e+01	-2.956088e+02
2.660000e-06	-2.799359e-06	-4.915663e-09	-1.998782e+01	-3.220896e+02
2.670000e-06	-2.941372e-06	-5.290274e-09	-2.100181e+01	-3.470308e+02
2.680000e-06	-3.082341e-06	-5.644302e-09	-2.200835e+01	-3.704345e+02
2.690000e-06	-3.222086e-06	-5.979453e-09	-2.300615e+01	-3.923571e+02
2.700000e-06	-3.360476e-06	-6.297916e-09	-2.399427e+01	-4.128961e+02
2.710000e-06	-3.497560e-06	-6.597214e-09	-2.497307e+01	-4.321762e+02
2.720000e-06	-3.633326e-06	-6.877193e-09	-2.594246e+01	-4.503336e+02
2.730000e-06	-3.767813e-06	-7.139880e-09	-2.690271e+01	-4.675029e+02
2.740000e-06	-3.901036e-06	-7.389957e-09	-2.785394e+01	-4.838055e+02
2.750000e-06	-4.032811e-06	-7.630940e-09	-2.879484e+01	-4.993420e+02
2.760000e-06	-4.163099e-06	-7.859846e-09	-2.972511e+01	-5.141886e+02
2.770000e-06	-4.291982e-06	-8.076185e-09	-3.064536e+01	-5.283965e+02
2.780000e-06	-4.419338e-06	-8.282767e-09	-3.155470e+01	-5.419958e+02
2.790000e-06	-4.545197e-06	-8.480297e-09	-3.245335e+01	-5.550001e+02
2.800000e-06	-4.669493e-06	-8.666918e-09	-3.334084e+01	-5.674137e+02
2.810000e-06	-4.792087e-06	-8.843951e-09	-3.421617e+01	-5.792379e+02
2.820000e-06	-4.912994e-06	-9.012679e-09	-3.507947e+01	-5.904774e+02
2.830000e-06	-5.032116e-06	-9.171988e-09	-3.593002e+01	-6.011435e+02
2.840000e-06	-5.149301e-06	-9.325368e-09	-3.676673e+01	-6.112570e+02
2.850000e-06	-5.264365e-06	-9.475892e-09	-3.758831e+01	-6.208479e+02
2.860000e-06	-5.377256e-06	-9.620935e-09	-3.839436e+01	-6.299534e+02
2.870000e-06	-5.488044e-06	-9.755611e-09	-3.918541e+01	-6.386149e+02
2.880000e-06	-5.596772e-06	-9.880876e-09	-3.996174e+01	-6.468738e+02
2.890000e-06	-5.703594e-06	-1.000126e-08	-4.072446e+01	-6.547685e+02
2.900000e-06	-5.808468e-06	-1.011697e-08	-4.147328e+01	-6.623308e+02
2.910000e-06	-5.911208e-06	-1.022622e-08	-4.220686e+01	-6.695843e+02
2.920000e-06	-6.011721e-06	-1.032933e-08	-4.292454e+01	-6.765442e+02
2.930000e-06	-6.110044e-06	-1.042838e-08	-4.362657e+01	-6.832180e+02
2.940000e-06	-6.206244e-06	-1.052429e-08	-4.431346e+01	-6.896081e+02
