# Temperatura_=_32.86
# Concentracion g/m^3_=_10000.0
# C_Vs_to_Am_M_A/Vsm_=_65563218390.804596
# pendiente_HvsI_1/m_=_3716.3
# ordenada_HvsI_A/m_=_1297.0
# frecuencia_Hz_=_302549.3808951799

Tiempo_(s)	Campo_(V.s)	Magnetizacion_(V.s)	Campo_(kA/m)	Magnetizacion_(A/m)
0.000000e+00	-7.942824e-06	-1.108989e-08	-5.685337e+01	-7.272215e+02
1.000000e-08	-7.939619e-06	-1.109382e-08	-5.683043e+01	-7.269427e+02
2.000000e-08	-7.933788e-06	-1.108988e-08	-5.678869e+01	-7.265396e+02
3.000000e-08	-7.925405e-06	-1.108446e-08	-5.672868e+01	-7.260217e+02
4.000000e-08	-7.914265e-06	-1.108031e-08	-5.664895e+01	-7.254013e+02
5.000000e-08	-7.900185e-06	-1.107158e-08	-5.654816e+01	-7.246924e+02
6.000000e-08	-7.883223e-06	-1.105761e-08	-5.642675e+01	-7.239089e+02
7.000000e-08	-7.863831e-06	-1.104372e-08	-5.628795e+01	-7.230635e+02
8.000000e-08	-7.842182e-06	-1.102666e-08	-5.613299e+01	-7.221663e+02
9.000000e-08	-7.817736e-06	-1.107341e-08	-5.595801e+01	-7.212238e+02
1.000000e-07	-7.790056e-06	-1.108399e-08	-5.575988e+01	-7.202386e+02
1.100000e-07	-7.759295e-06	-1.099724e-08	-5.553969e+01	-7.192094e+02
1.200000e-07	-7.725731e-06	-1.095299e-08	-5.529945e+01	-7.181310e+02
1.300000e-07	-7.689504e-06	-1.094278e-08	-5.504014e+01	-7.169954e+02
1.400000e-07	-7.650914e-06	-1.092051e-08	-5.476393e+01	-7.157923e+02
1.500000e-07	-7.610164e-06	-1.085028e-08	-5.447224e+01	-7.145100e+02
1.600000e-07	-7.567112e-06	-1.084744e-08	-5.416408e+01	-7.131364e+02
1.700000e-07	-7.521433e-06	-1.088306e-08	-5.383712e+01	-7.116592e+02
1.800000e-07	-7.473001e-06	-1.072018e-08	-5.349045e+01	-7.100669e+02
1.900000e-07	-7.421655e-06	-1.077692e-08	-5.312293e+01	-7.083492e+02
2.000000e-07	-7.367359e-06	-1.080887e-08	-5.273428e+01	-7.064966e+02
2.100000e-07	-7.310324e-06	-1.070263e-08	-5.232604e+01	-7.045014e+02
2.200000e-07	-7.250633e-06	-1.073516e-08	-5.189878e+01	-7.023574e+02
2.300000e-07	-7.188420e-06	-1.065526e-08	-5.145347e+01	-7.000600e+02
2.400000e-07	-7.123572e-06	-1.062444e-08	-5.098930e+01	-6.976069e+02
2.500000e-07	-7.055953e-06	-1.055934e-08	-5.050530e+01	-6.949973e+02
2.600000e-07	-6.985687e-06	-1.052220e-08	-5.000234e+01	-6.922331e+02
2.700000e-07	-6.912660e-06	-1.049408e-08	-4.947963e+01	-6.893178e+02
2.800000e-07	-6.836815e-06	-1.042416e-08	-4.893674e+01	-6.862569e+02
2.900000e-07	-6.758162e-06	-1.036797e-08	-4.837376e+01	-6.830571e+02
3.000000e-07	-6.676824e-06	-1.031227e-08	-4.779156e+01	-6.797257e+02
3.100000e-07	-6.593177e-06	-1.031152e-08	-4.719283e+01	-6.762700e+02
3.200000e-07	-6.507298e-06	-1.024148e-08	-4.657812e+01	-6.726957e+02
3.300000e-07	-6.419035e-06	-1.016678e-08	-4.594635e+01	-6.690067e+02
3.400000e-07	-6.328389e-06	-1.014736e-08	-4.529752e+01	-6.652037e+02
3.500000e-07	-6.235497e-06	-1.008756e-08	-4.463261e+01	-6.612842e+02
3.600000e-07	-6.140403e-06	-1.000796e-08	-4.395195e+01	-6.572424e+02
3.700000e-07	-6.043044e-06	-9.938187e-09	-4.325507e+01	-6.530692e+02
3.800000e-07	-5.943486e-06	-9.887208e-09	-4.254245e+01	-6.487535e+02
3.900000e-07	-5.841783e-06	-9.809295e-09	-4.181448e+01	-6.442831e+02
4.000000e-07	-5.737963e-06	-9.724090e-09	-4.107135e+01	-6.396458e+02
4.100000e-07	-5.632105e-06	-9.664240e-09	-4.031364e+01	-6.348313e+02
4.200000e-07	-5.524274e-06	-9.603982e-09	-3.954180e+01	-6.298318e+02
4.300000e-07	-5.414556e-06	-9.517798e-09	-3.875646e+01	-6.246427e+02
4.400000e-07	-5.302895e-06	-9.413014e-09	-3.795721e+01	-6.192634e+02
4.500000e-07	-5.189150e-06	-9.336983e-09	-3.714304e+01	-6.136961e+02
4.600000e-07	-5.073331e-06	-9.263043e-09	-3.631403e+01	-6.079452e+02
4.700000e-07	-4.955671e-06	-9.167528e-09	-3.547184e+01	-6.020160e+02
4.800000e-07	-4.836232e-06	-9.074355e-09	-3.461691e+01	-5.959128e+02
4.900000e-07	-4.714932e-06	-8.987523e-09	-3.374867e+01	-5.896375e+02
5.000000e-07	-4.591922e-06	-8.884530e-09	-3.286818e+01	-5.831881e+02
5.100000e-07	-4.467289e-06	-8.771115e-09	-3.197608e+01	-5.765579e+02
5.200000e-07	-4.341062e-06	-8.670773e-09	-3.107257e+01	-5.697353e+02
5.300000e-07	-4.213285e-06	-8.572701e-09	-3.015797e+01	-5.627045e+02
5.400000e-07	-4.083876e-06	-8.456832e-09	-2.923168e+01	-5.554466e+02
5.500000e-07	-3.952938e-06	-8.333472e-09	-2.829445e+01	-5.479413e+02
5.600000e-07	-3.820539e-06	-8.217573e-09	-2.734676e+01	-5.401690e+02
5.700000e-07	-3.686691e-06	-8.100442e-09	-2.638870e+01	-5.321127e+02
5.800000e-07	-3.551494e-06	-7.968975e-09	-2.542098e+01	-5.237593e+02
5.900000e-07	-3.414891e-06	-7.836648e-09	-2.444320e+01	-5.151007e+02
6.000000e-07	-3.276826e-06	-7.704432e-09	-2.345496e+01	-5.061336e+02
6.100000e-07	-3.137470e-06	-7.564653e-09	-2.245747e+01	-4.968589e+02
6.200000e-07	-2.996834e-06	-7.417868e-09	-2.145082e+01	-4.872794e+02
6.300000e-07	-2.854882e-06	-7.267013e-09	-2.043475e+01	-4.773983e+02
6.400000e-07	-2.711713e-06	-7.109456e-09	-1.940998e+01	-4.672165e+02
6.500000e-07	-2.567475e-06	-6.941781e-09	-1.837754e+01	-4.567299e+02
6.600000e-07	-2.422437e-06	-6.775029e-09	-1.733939e+01	-4.459287e+02
6.700000e-07	-2.276655e-06	-6.607410e-09	-1.629590e+01	-4.347955e+02
6.800000e-07	-2.130063e-06	-6.434213e-09	-1.524662e+01	-4.233066e+02
6.900000e-07	-1.982761e-06	-6.254935e-09	-1.419226e+01	-4.114330e+02
7.000000e-07	-1.834838e-06	-6.069138e-09	-1.313346e+01	-3.991426e+02
7.100000e-07	-1.686358e-06	-5.871438e-09	-1.207066e+01	-3.864038e+02
7.200000e-07	-1.537374e-06	-5.666409e-09	-1.100425e+01	-3.731878e+02
7.300000e-07	-1.387943e-06	-5.460698e-09	-9.934655e+00	-3.594720e+02
7.400000e-07	-1.238087e-06	-5.246623e-09	-8.862010e+00	-3.452414e+02
7.500000e-07	-1.087768e-06	-5.021484e-09	-7.786059e+00	-3.304889e+02
7.600000e-07	-9.370294e-07	-4.787792e-09	-6.707095e+00	-3.152145e+02
7.700000e-07	-7.859141e-07	-4.549877e-09	-5.625438e+00	-2.994223e+02
7.800000e-07	-6.344668e-07	-4.302998e-09	-4.541404e+00	-2.831164e+02
7.900000e-07	-4.828278e-07	-4.047875e-09	-3.455998e+00	-2.662960e+02
8.000000e-07	-3.310499e-07	-3.787056e-09	-2.369598e+00	-2.489508e+02
8.100000e-07	-1.790963e-07	-3.515296e-09	-1.281940e+00	-2.310563e+02
8.200000e-07	-2.702849e-08	-3.227564e-09	-1.934653e-01	-2.125711e+02
8.300000e-07	1.251096e-07	-2.930330e-09	8.955129e-01	-1.934368e+02
8.400000e-07	2.771663e-07	-2.627695e-09	1.983909e+00	-1.735796e+02
8.500000e-07	4.290459e-07	-2.310808e-09	3.071037e+00	-1.529155e+02
8.600000e-07	5.808224e-07	-1.978057e-09	4.157427e+00	-1.313582e+02
8.700000e-07	7.325054e-07	-1.633925e-09	5.243148e+00	-1.088282e+02
8.800000e-07	8.839734e-07	-1.280187e-09	6.327329e+00	-8.526410e+01
8.900000e-07	1.035105e-06	-9.085860e-10	7.409100e+00	-6.063322e+01
9.000000e-07	1.185843e-06	-5.168699e-10	8.488060e+00	-3.494142e+01
9.100000e-07	1.336100e-06	-1.106871e-10	9.563577e+00	-8.240411e+00
9.200000e-07	1.485885e-06	3.075417e-10	1.063571e+01	1.936831e+01
9.300000e-07	1.635197e-06	7.379692e-10	1.170446e+01	4.773348e+01
9.400000e-07	1.783949e-06	1.178180e-09	1.276920e+01	7.665839e+01
9.500000e-07	1.932063e-06	1.623678e-09	1.382938e+01	1.059093e+02
9.600000e-07	2.079445e-06	2.073896e-09	1.488431e+01	1.352275e+02
9.700000e-07	2.226055e-06	2.521808e-09	1.593372e+01	1.643431e+02
9.800000e-07	2.371932e-06	2.958452e-09	1.697788e+01	1.929911e+02
9.900000e-07	2.517042e-06	3.379715e-09	1.801655e+01	2.209259e+02
1.000000e-06	2.661190e-06	3.785739e-09	1.904834e+01	2.479348e+02
1.010000e-06	2.804247e-06	4.175898e-09	2.007231e+01	2.738483e+02
1.020000e-06	2.946144e-06	4.549084e-09	2.108799e+01	2.985467e+02
1.030000e-06	3.086758e-06	4.905013e-09	2.209448e+01	3.219626e+02
1.040000e-06	3.226101e-06	5.240582e-09	2.309187e+01	3.440783e+02
1.050000e-06	3.364282e-06	5.557170e-09	2.408095e+01	3.649204e+02
1.060000e-06	3.501223e-06	5.856632e-09	2.506115e+01	3.845508e+02
1.070000e-06	3.636709e-06	6.141787e-09	2.603094e+01	4.030561e+02
1.080000e-06	3.770818e-06	6.410264e-09	2.699087e+01	4.205360e+02
1.090000e-06	3.903687e-06	6.661908e-09	2.794192e+01	4.370929e+02
1.100000e-06	4.035195e-06	6.901478e-09	2.888323e+01	4.528222e+02
1.110000e-06	4.165282e-06	7.131548e-09	2.981437e+01	4.678058e+02
1.120000e-06	4.293858e-06	7.351628e-09	3.073470e+01	4.821084e+02
1.130000e-06	4.420864e-06	7.558654e-09	3.164379e+01	4.957760e+02
1.140000e-06	4.546358e-06	7.753775e-09	3.254205e+01	5.088377e+02
1.150000e-06	4.670303e-06	7.939389e-09	3.342922e+01	5.213091e+02
1.160000e-06	4.792716e-06	8.117082e-09	3.430543e+01	5.331975e+02
1.170000e-06	4.913442e-06	8.288010e-09	3.516957e+01	5.445066e+02
1.180000e-06	5.032258e-06	8.452006e-09	3.602004e+01	5.552414e+02
1.190000e-06	5.149258e-06	8.606833e-09	3.685750e+01	5.654121e+02
1.200000e-06	5.264370e-06	8.753366e-09	3.768145e+01	5.750366e+02
1.210000e-06	5.377370e-06	8.894001e-09	3.849029e+01	5.841404e+02
1.220000e-06	5.488302e-06	9.028197e-09	3.928432e+01	5.927565e+02
1.230000e-06	5.597313e-06	9.155682e-09	4.006460e+01	6.009226e+02
1.240000e-06	5.704393e-06	9.275668e-09	4.083106e+01	6.086785e+02
1.250000e-06	5.809391e-06	9.387641e-09	4.158262e+01	6.160629e+02
1.260000e-06	5.912237e-06	9.493850e-09	4.231877e+01	6.231105e+02
1.270000e-06	6.012915e-06	9.596489e-09	4.303941e+01	6.298500e+02
1.280000e-06	6.111314e-06	9.694029e-09	4.374374e+01	6.363025e+02
1.290000e-06	6.207384e-06	9.786265e-09	4.443139e+01	6.424822e+02
1.300000e-06	6.301244e-06	9.874913e-09	4.510322e+01	6.483967e+02
1.310000e-06	6.392878e-06	9.961248e-09	4.575912e+01	6.540492e+02
1.320000e-06	6.482148e-06	1.004488e-08	4.639810e+01	6.594406e+02
1.330000e-06	6.569107e-06	1.012241e-08	4.702053e+01	6.645715e+02
1.340000e-06	6.653847e-06	1.019392e-08	4.762709e+01	6.694442e+02
1.350000e-06	6.736287e-06	1.026139e-08	4.821719e+01	6.740642e+02
1.360000e-06	6.816212e-06	1.032761e-08	4.878927e+01	6.784401e+02
1.370000e-06	6.893602e-06	1.039286e-08	4.934321e+01	6.825839e+02
1.380000e-06	6.968402e-06	1.045484e-08	4.987862e+01	6.865093e+02
1.390000e-06	7.040515e-06	1.051165e-08	5.039479e+01	6.902308e+02
1.400000e-06	7.110145e-06	1.056481e-08	5.089319e+01	6.937615e+02
1.410000e-06	7.177343e-06	1.061677e-08	5.137419e+01	6.971122e+02
1.420000e-06	7.241924e-06	1.066628e-08	5.183644e+01	7.002896e+02
1.430000e-06	7.303934e-06	1.071198e-08	5.228030e+01	7.032965e+02
1.440000e-06	7.363515e-06	1.075326e-08	5.270677e+01	7.061318e+02
1.450000e-06	7.420553e-06	1.079090e-08	5.311504e+01	7.087914e+02
1.460000e-06	7.474897e-06	1.082625e-08	5.350402e+01	7.112695e+02
1.470000e-06	7.526270e-06	1.085936e-08	5.387174e+01	7.135607e+02
1.480000e-06	7.574535e-06	1.088986e-08	5.421722e+01	7.156614e+02
1.490000e-06	7.620011e-06	1.091823e-08	5.454273e+01	7.175713e+02
1.500000e-06	7.662873e-06	1.094438e-08	5.484953e+01	7.192941e+02
1.510000e-06	7.702934e-06	1.096898e-08	5.513628e+01	7.208379e+02
1.520000e-06	7.740210e-06	1.099259e-08	5.540309e+01	7.222149e+02
1.530000e-06	7.774839e-06	1.101440e-08	5.565096e+01	7.234396e+02
1.540000e-06	7.806684e-06	1.103320e-08	5.587890e+01	7.245281e+02
1.550000e-06	7.835823e-06	1.104862e-08	5.608747e+01	7.254958e+02
1.560000e-06	7.862236e-06	1.106164e-08	5.627653e+01	7.263557e+02
1.570000e-06	7.885679e-06	1.107214e-08	5.644433e+01	7.271173e+02
1.580000e-06	7.906342e-06	1.108168e-08	5.659224e+01	7.277856e+02
1.590000e-06	7.924309e-06	1.109037e-08	5.672084e+01	7.283610e+02
1.600000e-06	7.939286e-06	1.109792e-08	5.682804e+01	7.288396e+02
1.610000e-06	7.951161e-06	1.110509e-08	5.691304e+01	7.292145e+02
1.620000e-06	7.959935e-06	1.111127e-08	5.697585e+01	7.294771e+02
1.630000e-06	7.965762e-06	1.111629e-08	5.701755e+01	7.296191e+02
1.640000e-06	7.968857e-06	1.111926e-08	5.703970e+01	7.296336e+02
1.650000e-06	7.969108e-06	1.112156e-08	5.704150e+01	7.295171e+02
1.660000e-06	7.966607e-06	1.111225e-08	5.702360e+01	7.292699e+02
1.670000e-06	7.961475e-06	1.110075e-08	5.698687e+01	7.288966e+02
1.680000e-06	7.953664e-06	1.109602e-08	5.693096e+01	7.284058e+02
1.690000e-06	7.943216e-06	1.108894e-08	5.685617e+01	7.278092e+02
1.700000e-06	7.929930e-06	1.108135e-08	5.676107e+01	7.271205e+02
1.710000e-06	7.913936e-06	1.107645e-08	5.664659e+01	7.263539e+02
1.720000e-06	7.895622e-06	1.107155e-08	5.651550e+01	7.255224e+02
1.730000e-06	7.875027e-06	1.104308e-08	5.636809e+01	7.246368e+02
1.740000e-06	7.851622e-06	1.092826e-08	5.620055e+01	7.237047e+02
1.750000e-06	7.824785e-06	1.093897e-08	5.600846e+01	7.227296e+02
1.760000e-06	7.794389e-06	1.099010e-08	5.579089e+01	7.217112e+02
1.770000e-06	7.760979e-06	1.095841e-08	5.555175e+01	7.206451e+02
1.780000e-06	7.725240e-06	1.093837e-08	5.529594e+01	7.195242e+02
1.790000e-06	7.687103e-06	1.101641e-08	5.502296e+01	7.183385e+02
1.800000e-06	7.646781e-06	1.098415e-08	5.473434e+01	7.170766e+02
1.810000e-06	7.604413e-06	1.084229e-08	5.443108e+01	7.157264e+02
1.820000e-06	7.559476e-06	1.100855e-08	5.410943e+01	7.142756e+02
1.830000e-06	7.511904e-06	1.090352e-08	5.376892e+01	7.127126e+02
1.840000e-06	7.461477e-06	1.086689e-08	5.340797e+01	7.110266e+02
1.850000e-06	7.407948e-06	1.087538e-08	5.302482e+01	7.092080e+02
1.860000e-06	7.351672e-06	1.070381e-08	5.262200e+01	7.072485e+02
1.870000e-06	7.292816e-06	1.080041e-08	5.220072e+01	7.051417e+02
1.880000e-06	7.231328e-06	1.069203e-08	5.176060e+01	7.028824e+02
1.890000e-06	7.167075e-06	1.071731e-08	5.130069e+01	7.004678e+02
1.900000e-06	7.100053e-06	1.072535e-08	5.082095e+01	6.978967e+02
1.910000e-06	7.030215e-06	1.057284e-08	5.032107e+01	6.951704e+02
1.920000e-06	6.957567e-06	1.057781e-08	4.980107e+01	6.922918e+02
1.930000e-06	6.882274e-06	1.051157e-08	4.926213e+01	6.892661e+02
1.940000e-06	6.804226e-06	1.053624e-08	4.870347e+01	6.860998e+02
1.950000e-06	6.723599e-06	1.042931e-08	4.812636e+01	6.828001e+02
1.960000e-06	6.640599e-06	1.037254e-08	4.753227e+01	6.793743e+02
1.970000e-06	6.555102e-06	1.036079e-08	4.692029e+01	6.758287e+02
1.980000e-06	6.467132e-06	1.022349e-08	4.629061e+01	6.721676e+02
1.990000e-06	6.376857e-06	1.020551e-08	4.564444e+01	6.683926e+02
2.000000e-06	6.284419e-06	1.014776e-08	4.498279e+01	6.645021e+02
2.010000e-06	6.189693e-06	1.011125e-08	4.430476e+01	6.604911e+02
2.020000e-06	6.092657e-06	1.000727e-08	4.361019e+01	6.563512e+02
2.030000e-06	5.993496e-06	9.939300e-09	4.290042e+01	6.520717e+02
2.040000e-06	5.892214e-06	9.896661e-09	4.217545e+01	6.476405e+02
2.050000e-06	5.788811e-06	9.814816e-09	4.143531e+01	6.430455e+02
2.060000e-06	5.683397e-06	9.729868e-09	4.068078e+01	6.382756e+02
2.070000e-06	5.576103e-06	9.645797e-09	3.991279e+01	6.333223e+02
2.080000e-06	5.466864e-06	9.598998e-09	3.913087e+01	6.281804e+02
2.090000e-06	5.355569e-06	9.503423e-09	3.833424e+01	6.228479e+02
2.100000e-06	5.242287e-06	9.426839e-09	3.752339e+01	6.173267e+02
2.110000e-06	5.127015e-06	9.345376e-09	3.669829e+01	6.116207e+02
2.120000e-06	5.009670e-06	9.251523e-09	3.585835e+01	6.057350e+02
2.130000e-06	4.890416e-06	9.131332e-09	3.500476e+01	5.996745e+02
2.140000e-06	4.769410e-06	9.040712e-09	3.413861e+01	5.934417e+02
2.150000e-06	4.646692e-06	8.967307e-09	3.326022e+01	5.870357e+02
2.160000e-06	4.522263e-06	8.870307e-09	3.236958e+01	5.804511e+02
2.170000e-06	4.396102e-06	8.758057e-09	3.146654e+01	5.736774e+02
2.180000e-06	4.268352e-06	8.645381e-09	3.055213e+01	5.666997e+02
2.190000e-06	4.139059e-06	8.540870e-09	2.962667e+01	5.594999e+02
2.200000e-06	4.008301e-06	8.421718e-09	2.869073e+01	5.520578e+02
2.210000e-06	3.876098e-06	8.309141e-09	2.774444e+01	5.443534e+02
2.220000e-06	3.742350e-06	8.190699e-09	2.678710e+01	5.363690e+02
2.230000e-06	3.607149e-06	8.062086e-09	2.581935e+01	5.280902e+02
2.240000e-06	3.470663e-06	7.919629e-09	2.484241e+01	5.195079e+02
2.250000e-06	3.332873e-06	7.786277e-09	2.385613e+01	5.106175e+02
2.260000e-06	3.193789e-06	7.653676e-09	2.286059e+01	5.014188e+02
2.270000e-06	3.053486e-06	7.512104e-09	2.185632e+01	4.919146e+02
2.280000e-06	2.911925e-06	7.363820e-09	2.084306e+01	4.821082e+02
2.290000e-06	2.769189e-06	7.215619e-09	1.982138e+01	4.720012e+02
2.300000e-06	2.625478e-06	7.063690e-09	1.879272e+01	4.615909e+02
2.310000e-06	2.480901e-06	6.901128e-09	1.775786e+01	4.508691e+02
2.320000e-06	2.335445e-06	6.729533e-09	1.671672e+01	4.398204e+02
2.330000e-06	2.189170e-06	6.545484e-09	1.566970e+01	4.284224e+02
2.340000e-06	2.042171e-06	6.356043e-09	1.461751e+01	4.166474e+02
2.350000e-06	1.894493e-06	6.168930e-09	1.356045e+01	4.044637e+02
2.360000e-06	1.746214e-06	5.982913e-09	1.249910e+01	3.918393e+02
2.370000e-06	1.597375e-06	5.787033e-09	1.143374e+01	3.787444e+02
2.380000e-06	1.447976e-06	5.579868e-09	1.036436e+01	3.651548e+02
2.390000e-06	1.297981e-06	5.366790e-09	9.290724e+00	3.510532e+02
2.400000e-06	1.147445e-06	5.145293e-09	8.213211e+00	3.364309e+02
2.410000e-06	9.965590e-07	4.914947e-09	7.133198e+00	3.212862e+02
2.420000e-06	8.454448e-07	4.679256e-09	6.051549e+00	3.056224e+02
2.430000e-06	6.941543e-07	4.431140e-09	4.968637e+00	2.894441e+02
2.440000e-06	5.427132e-07	4.168938e-09	3.884648e+00	2.727523e+02
2.450000e-06	3.911008e-07	3.900949e-09	2.799432e+00	2.555395e+02
2.460000e-06	2.392985e-07	3.632941e-09	1.712858e+00	2.377849e+02
2.470000e-06	8.737542e-08	3.357430e-09	6.254182e-01	2.194517e+02
2.480000e-06	-6.462233e-08	3.068373e-09	-4.625555e-01	2.004855e+02
2.490000e-06	-2.166129e-07	2.768773e-09	-1.550478e+00	1.808160e+02
2.500000e-06	-3.684642e-07	2.457730e-09	-2.637404e+00	1.603613e+02
2.510000e-06	-5.201961e-07	2.130234e-09	-3.723474e+00	1.390347e+02
2.520000e-06	-6.718313e-07	1.786013e-09	-4.808853e+00	1.167539e+02
2.530000e-06	-8.232885e-07	1.427523e-09	-5.892958e+00	9.345216e+01
2.540000e-06	-9.745080e-07	1.053877e-09	-6.975360e+00	6.908852e+01
2.550000e-06	-1.125459e-06	6.666475e-10	-8.055838e+00	4.365844e+01
2.560000e-06	-1.276083e-06	2.713680e-10	-9.133986e+00	1.720165e+01
2.570000e-06	-1.426270e-06	-1.348318e-10	-1.020899e+01	-1.019298e+01
2.580000e-06	-1.575897e-06	-5.597395e-10	-1.128000e+01	-3.838636e+01
2.590000e-06	-1.724892e-06	-1.003365e-09	-1.234648e+01	-6.719253e+01
2.600000e-06	-1.873187e-06	-1.456473e-09	-1.340795e+01	-9.638603e+01
2.610000e-06	-2.020700e-06	-1.912980e-09	-1.446382e+01	-1.257130e+02
2.620000e-06	-2.167405e-06	-2.369005e-09	-1.551391e+01	-1.549052e+02
2.630000e-06	-2.313344e-06	-2.817266e-09	-1.655852e+01	-1.836947e+02
2.640000e-06	-2.458434e-06	-3.250688e-09	-1.759705e+01	-2.118297e+02
2.650000e-06	-2.602542e-06	-3.666539e-09	-1.862855e+01	-2.390883e+02
2.660000e-06	-2.745710e-06	-4.061623e-09	-1.965332e+01	-2.652895e+02
2.670000e-06	-2.887905e-06	-4.434960e-09	-2.067112e+01	-2.903006e+02
2.680000e-06	-3.028892e-06	-4.788167e-09	-2.168029e+01	-3.140412e+02
2.690000e-06	-3.168543e-06	-5.125801e-09	-2.267988e+01	-3.364816e+02
2.700000e-06	-3.306968e-06	-5.450272e-09	-2.367070e+01	-3.576380e+02
2.710000e-06	-3.444097e-06	-5.758097e-09	-2.465225e+01	-3.775646e+02
2.720000e-06	-3.579843e-06	-6.050034e-09	-2.562390e+01	-3.963426e+02
2.730000e-06	-3.714430e-06	-6.323503e-09	-2.658725e+01	-4.140698e+02
2.740000e-06	-3.847755e-06	-6.581614e-09	-2.754156e+01	-4.308487e+02
2.750000e-06	-3.979537e-06	-6.828079e-09	-2.848484e+01	-4.467771e+02
2.760000e-06	-4.109961e-06	-7.063542e-09	-2.941839e+01	-4.619409e+02
2.770000e-06	-4.239096e-06	-7.284978e-09	-3.034272e+01	-4.764093e+02
2.780000e-06	-4.366729e-06	-7.493073e-09	-3.125629e+01	-4.902328e+02
2.790000e-06	-4.492891e-06	-7.693073e-09	-3.215934e+01	-5.034446e+02
2.800000e-06	-4.617408e-06	-7.885157e-09	-3.305061e+01	-5.160633e+02
2.810000e-06	-4.740240e-06	-8.068566e-09	-3.392982e+01	-5.280976e+02
2.820000e-06	-4.861535e-06	-8.242253e-09	-3.479803e+01	-5.395517e+02
2.830000e-06	-4.981073e-06	-8.406422e-09	-3.565366e+01	-5.504299e+02
2.840000e-06	-5.098641e-06	-8.562725e-09	-3.649519e+01	-5.607409e+02
2.850000e-06	-5.214036e-06	-8.713921e-09	-3.732117e+01	-5.705003e+02
2.860000e-06	-5.327243e-06	-8.859564e-09	-3.813149e+01	-5.797321e+02
2.870000e-06	-5.438319e-06	-8.995203e-09	-3.892655e+01	-5.884672e+02
2.880000e-06	-5.547414e-06	-9.118639e-09	-3.970743e+01	-5.967426e+02
2.890000e-06	-5.654747e-06	-9.236028e-09	-4.047571e+01	-6.045979e+02
2.900000e-06	-5.760148e-06	-9.351959e-09	-4.123015e+01	-6.120723e+02
2.910000e-06	-5.863414e-06	-9.463629e-09	-4.196931e+01	-6.192017e+02
2.920000e-06	-5.964403e-06	-9.568738e-09	-4.269217e+01	-6.260165e+02
2.930000e-06	-6.063204e-06	-9.668421e-09	-4.339937e+01	-6.325397e+02
2.940000e-06	-6.159931e-06	-9.763378e-09	-4.409173e+01	-6.387872e+02
