# Temperatura_=_58.45
# Concentracion g/m^3_=_10000.0
# C_Vs_to_Am_M_A/Vsm_=_65563218390.804596
# pendiente_HvsI_1/m_=_3716.3
# ordenada_HvsI_A/m_=_1297.0
# frecuencia_Hz_=_302550.74544279417

Tiempo_(s)	Campo_(V.s)	Magnetizacion_(V.s)	Campo_(kA/m)	Magnetizacion_(A/m)
0.000000e+00	-7.899877e-06	-1.173072e-08	-5.685296e+01	-7.694976e+02
1.000000e-08	-7.896393e-06	-1.172997e-08	-5.682789e+01	-7.690876e+02
2.000000e-08	-7.890301e-06	-1.172472e-08	-5.678405e+01	-7.685505e+02
3.000000e-08	-7.881646e-06	-1.171864e-08	-5.672176e+01	-7.679028e+02
4.000000e-08	-7.870214e-06	-1.171105e-08	-5.663948e+01	-7.671612e+02
5.000000e-08	-7.855769e-06	-1.170044e-08	-5.653552e+01	-7.663406e+02
6.000000e-08	-7.838467e-06	-1.168715e-08	-5.641101e+01	-7.654521e+02
7.000000e-08	-7.818867e-06	-1.167064e-08	-5.626995e+01	-7.645028e+02
8.000000e-08	-7.797002e-06	-1.165658e-08	-5.611260e+01	-7.634943e+02
9.000000e-08	-7.772248e-06	-1.169189e-08	-5.593445e+01	-7.624243e+02
1.000000e-07	-7.744243e-06	-1.167697e-08	-5.573291e+01	-7.612864e+02
1.100000e-07	-7.713269e-06	-1.160969e-08	-5.551000e+01	-7.600718e+02
1.200000e-07	-7.679589e-06	-1.157415e-08	-5.526761e+01	-7.587710e+02
1.300000e-07	-7.643274e-06	-1.155186e-08	-5.500627e+01	-7.573742e+02
1.400000e-07	-7.604638e-06	-1.151815e-08	-5.472822e+01	-7.558729e+02
1.500000e-07	-7.563917e-06	-1.144888e-08	-5.443516e+01	-7.542602e+02
1.600000e-07	-7.520880e-06	-1.146078e-08	-5.412543e+01	-7.525304e+02
1.700000e-07	-7.475099e-06	-1.143927e-08	-5.379596e+01	-7.506790e+02
1.800000e-07	-7.426624e-06	-1.132622e-08	-5.344710e+01	-7.487022e+02
1.900000e-07	-7.375317e-06	-1.139642e-08	-5.307786e+01	-7.465955e+02
2.000000e-07	-7.320973e-06	-1.136891e-08	-5.268676e+01	-7.443539e+02
2.100000e-07	-7.263910e-06	-1.130332e-08	-5.227610e+01	-7.419711e+02
2.200000e-07	-7.204199e-06	-1.130700e-08	-5.184638e+01	-7.394402e+02
2.300000e-07	-7.141901e-06	-1.120964e-08	-5.139804e+01	-7.367537e+02
2.400000e-07	-7.076957e-06	-1.116792e-08	-5.093066e+01	-7.339048e+02
2.500000e-07	-7.009283e-06	-1.110727e-08	-5.044363e+01	-7.308881e+02
2.600000e-07	-6.938984e-06	-1.107920e-08	-4.993771e+01	-7.277010e+02
2.700000e-07	-6.865936e-06	-1.102747e-08	-4.941200e+01	-7.243440e+02
2.800000e-07	-6.790078e-06	-1.096108e-08	-4.886608e+01	-7.208213e+02
2.900000e-07	-6.711462e-06	-1.089661e-08	-4.830031e+01	-7.171402e+02
3.000000e-07	-6.630198e-06	-1.084178e-08	-4.771547e+01	-7.133102e+02
3.100000e-07	-6.546570e-06	-1.082288e-08	-4.711363e+01	-7.093420e+02
3.200000e-07	-6.460752e-06	-1.074082e-08	-4.649602e+01	-7.052453e+02
3.300000e-07	-6.372687e-06	-1.067901e-08	-4.586225e+01	-7.010274e+02
3.400000e-07	-6.282383e-06	-1.063656e-08	-4.521236e+01	-6.966916e+02
3.500000e-07	-6.189852e-06	-1.056584e-08	-4.454644e+01	-6.922363e+02
3.600000e-07	-6.094977e-06	-1.048420e-08	-4.386366e+01	-6.876547e+02
3.700000e-07	-5.997777e-06	-1.040988e-08	-4.316414e+01	-6.829355e+02
3.800000e-07	-5.898348e-06	-1.033863e-08	-4.244858e+01	-6.780639e+02
3.900000e-07	-5.796875e-06	-1.024851e-08	-4.171831e+01	-6.730236e+02
4.000000e-07	-5.693426e-06	-1.016871e-08	-4.097382e+01	-6.677989e+02
4.100000e-07	-5.587939e-06	-1.009508e-08	-4.021466e+01	-6.623769e+02
4.200000e-07	-5.480427e-06	-1.002068e-08	-3.944093e+01	-6.567490e+02
4.300000e-07	-5.370987e-06	-9.922551e-09	-3.865332e+01	-6.509117e+02
4.400000e-07	-5.259679e-06	-9.820381e-09	-3.785228e+01	-6.448671e+02
4.500000e-07	-5.146336e-06	-9.735047e-09	-3.703658e+01	-6.386220e+02
4.600000e-07	-5.030935e-06	-9.646813e-09	-3.620608e+01	-6.321857e+02
4.700000e-07	-4.913633e-06	-9.544641e-09	-3.536189e+01	-6.255684e+02
4.800000e-07	-4.794537e-06	-9.445136e-09	-3.450479e+01	-6.187783e+02
4.900000e-07	-4.673676e-06	-9.344364e-09	-3.363500e+01	-6.118192e+02
5.000000e-07	-4.551130e-06	-9.225778e-09	-3.275307e+01	-6.046890e+02
5.100000e-07	-4.426946e-06	-9.106440e-09	-3.185935e+01	-5.973788e+02
5.200000e-07	-4.301152e-06	-8.993287e-09	-3.095405e+01	-5.898728e+02
5.300000e-07	-4.173806e-06	-8.875902e-09	-3.003758e+01	-5.821501e+02
5.400000e-07	-4.044979e-06	-8.743328e-09	-2.911046e+01	-5.741863e+02
5.500000e-07	-3.914681e-06	-8.616549e-09	-2.817274e+01	-5.659568e+02
5.600000e-07	-3.782851e-06	-8.496244e-09	-2.722400e+01	-5.574395e+02
5.700000e-07	-3.649534e-06	-8.368142e-09	-2.626456e+01	-5.486172e+02
5.800000e-07	-3.514778e-06	-8.224402e-09	-2.529477e+01	-5.394794e+02
5.900000e-07	-3.378678e-06	-8.080132e-09	-2.431530e+01	-5.300232e+02
6.000000e-07	-3.241271e-06	-7.936937e-09	-2.332642e+01	-5.202520e+02
6.100000e-07	-3.102579e-06	-7.782985e-09	-2.232829e+01	-5.101739e+02
6.200000e-07	-2.962602e-06	-7.622622e-09	-2.132092e+01	-4.997990e+02
6.300000e-07	-2.821278e-06	-7.456143e-09	-2.030386e+01	-4.891351e+02
6.400000e-07	-2.678782e-06	-7.283226e-09	-1.927836e+01	-4.781854e+02
6.500000e-07	-2.535320e-06	-7.102962e-09	-1.824591e+01	-4.669447e+02
6.600000e-07	-2.391009e-06	-6.926600e-09	-1.720735e+01	-4.553981e+02
6.700000e-07	-2.245888e-06	-6.749421e-09	-1.616296e+01	-4.435211e+02
6.800000e-07	-2.099877e-06	-6.565144e-09	-1.511216e+01	-4.312805e+02
6.900000e-07	-1.953100e-06	-6.374712e-09	-1.405585e+01	-4.186374e+02
7.000000e-07	-1.805725e-06	-6.174678e-09	-1.299524e+01	-4.055513e+02
7.100000e-07	-1.657851e-06	-5.965410e-09	-1.193104e+01	-3.919842e+02
7.200000e-07	-1.509560e-06	-5.749309e-09	-1.086383e+01	-3.779048e+02
7.300000e-07	-1.360776e-06	-5.529990e-09	-9.793082e+00	-3.632914e+02
7.400000e-07	-1.211519e-06	-5.299024e-09	-8.718924e+00	-3.481327e+02
7.500000e-07	-1.061858e-06	-5.057580e-09	-7.641863e+00	-3.324278e+02
7.600000e-07	-9.118079e-07	-4.810927e-09	-6.561998e+00	-3.161823e+02
7.700000e-07	-7.614803e-07	-4.558260e-09	-5.480137e+00	-2.994035e+02
7.800000e-07	-6.109368e-07	-4.295135e-09	-4.396722e+00	-2.820943e+02
7.900000e-07	-4.601251e-07	-4.022623e-09	-3.311377e+00	-2.642460e+02
8.000000e-07	-3.091178e-07	-3.746043e-09	-2.224625e+00	-2.458326e+02
8.100000e-07	-1.580189e-07	-3.457319e-09	-1.137213e+00	-2.268059e+02
8.200000e-07	-6.874526e-09	-3.149597e-09	-4.947383e-02	-2.070948e+02
8.300000e-07	1.442580e-07	-2.827394e-09	1.038180e+00	-1.866065e+02
8.400000e-07	2.954173e-07	-2.495065e-09	2.126026e+00	-1.652324e+02
8.500000e-07	4.465765e-07	-2.149183e-09	3.213872e+00	-1.428578e+02
8.600000e-07	5.975561e-07	-1.789752e-09	4.300426e+00	-1.193736e+02
8.700000e-07	7.483476e-07	-1.416775e-09	5.385625e+00	-9.469044e+01
8.800000e-07	8.989568e-07	-1.028458e-09	6.469512e+00	-6.875305e+01
8.900000e-07	1.049274e-06	-6.213210e-10	7.551300e+00	-4.155299e+01
9.000000e-07	1.199251e-06	-1.939940e-10	8.630633e+00	-1.313874e+01
9.100000e-07	1.348820e-06	2.503528e-10	9.707041e+00	1.637872e+01
9.200000e-07	1.497908e-06	7.126103e-10	1.077998e+01	4.682539e+01
9.300000e-07	1.646416e-06	1.192291e-09	1.184874e+01	7.796936e+01
9.400000e-07	1.794313e-06	1.681801e-09	1.291311e+01	1.095314e+02
9.500000e-07	1.941632e-06	2.170604e-09	1.397332e+01	1.411998e+02
9.600000e-07	2.088327e-06	2.654564e-09	1.502904e+01	1.726490e+02
9.700000e-07	2.234269e-06	3.127458e-09	1.607934e+01	2.035588e+02
9.800000e-07	2.379304e-06	3.583744e-09	1.712311e+01	2.336338e+02
9.900000e-07	2.523390e-06	4.021717e-09	1.816005e+01	2.626205e+02
1.000000e-06	2.666520e-06	4.438180e-09	1.919012e+01	2.903199e+02
1.010000e-06	2.808605e-06	4.831229e-09	2.021265e+01	3.165963e+02
1.020000e-06	2.949541e-06	5.203034e-09	2.122693e+01	3.413791e+02
1.030000e-06	3.089198e-06	5.557309e-09	2.223200e+01	3.646601e+02
1.040000e-06	3.227590e-06	5.890246e-09	2.322796e+01	3.864853e+02
1.050000e-06	3.364764e-06	6.200674e-09	2.421516e+01	4.069435e+02
1.060000e-06	3.500676e-06	6.491746e-09	2.519328e+01	4.261519e+02
1.070000e-06	3.635263e-06	6.769856e-09	2.616186e+01	4.442418e+02
1.080000e-06	3.768577e-06	7.035476e-09	2.712127e+01	4.613446e+02
1.090000e-06	3.900580e-06	7.285692e-09	2.807126e+01	4.775805e+02
1.100000e-06	4.031123e-06	7.523880e-09	2.901074e+01	4.930505e+02
1.110000e-06	4.160227e-06	7.750340e-09	2.993986e+01	5.078316e+02
1.120000e-06	4.287868e-06	7.965919e-09	3.085846e+01	5.219766e+02
1.130000e-06	4.414056e-06	8.169543e-09	3.176659e+01	5.355163e+02
1.140000e-06	4.538808e-06	8.360921e-09	3.266439e+01	5.484647e+02
1.150000e-06	4.661940e-06	8.543038e-09	3.355054e+01	5.608255e+02
1.160000e-06	4.783406e-06	8.718290e-09	3.442468e+01	5.725987e+02
1.170000e-06	4.903208e-06	8.887272e-09	3.528686e+01	5.837867e+02
1.180000e-06	5.021223e-06	9.049442e-09	3.613618e+01	5.943989e+02
1.190000e-06	5.137317e-06	9.204400e-09	3.697167e+01	6.044537e+02
1.200000e-06	5.251389e-06	9.352832e-09	3.779261e+01	6.139795e+02
1.210000e-06	5.363420e-06	9.495440e-09	3.859887e+01	6.230127e+02
1.220000e-06	5.473532e-06	9.629254e-09	3.939130e+01	6.315947e+02
1.230000e-06	5.581797e-06	9.755898e-09	4.017046e+01	6.397682e+02
1.240000e-06	5.688047e-06	9.876540e-09	4.093510e+01	6.475733e+02
1.250000e-06	5.792174e-06	9.989243e-09	4.168448e+01	6.550442e+02
1.260000e-06	5.894171e-06	1.009663e-08	4.241851e+01	6.622074e+02
1.270000e-06	5.994021e-06	1.020003e-08	4.313711e+01	6.690803e+02
1.280000e-06	6.091624e-06	1.029972e-08	4.383953e+01	6.756724e+02
1.290000e-06	6.186947e-06	1.039427e-08	4.452553e+01	6.819867e+02
1.300000e-06	6.280091e-06	1.048246e-08	4.519586e+01	6.880228e+02
1.310000e-06	6.371024e-06	1.056818e-08	4.585028e+01	6.937795e+02
1.320000e-06	6.459549e-06	1.065318e-08	4.648737e+01	6.992575e+02
1.330000e-06	6.545744e-06	1.073359e-08	4.710768e+01	7.044617e+02
1.340000e-06	6.629732e-06	1.080694e-08	4.771212e+01	7.094017e+02
1.350000e-06	6.711374e-06	1.087650e-08	4.829967e+01	7.140920e+02
1.360000e-06	6.790578e-06	1.094503e-08	4.886968e+01	7.185506e+02
1.370000e-06	6.867237e-06	1.101235e-08	4.942137e+01	7.227971e+02
1.380000e-06	6.941220e-06	1.107735e-08	4.995380e+01	7.268500e+02
1.390000e-06	7.012587e-06	1.113653e-08	5.046741e+01	7.307247e+02
1.400000e-06	7.081557e-06	1.119177e-08	5.096376e+01	7.344315e+02
1.410000e-06	7.148033e-06	1.124677e-08	5.144217e+01	7.379743e+02
1.420000e-06	7.211869e-06	1.129927e-08	5.190158e+01	7.413507e+02
1.430000e-06	7.273278e-06	1.134692e-08	5.234352e+01	7.445531e+02
1.440000e-06	7.332244e-06	1.139022e-08	5.276788e+01	7.475702e+02
1.450000e-06	7.388575e-06	1.143117e-08	5.317327e+01	7.503900e+02
1.460000e-06	7.442201e-06	1.146864e-08	5.355921e+01	7.530019e+02
1.470000e-06	7.492797e-06	1.150228e-08	5.392333e+01	7.553991e+02
1.480000e-06	7.540324e-06	1.153371e-08	5.426536e+01	7.575808e+02
1.490000e-06	7.585189e-06	1.156373e-08	5.458825e+01	7.595524e+02
1.500000e-06	7.627419e-06	1.159256e-08	5.489216e+01	7.613257e+02
1.510000e-06	7.666868e-06	1.161852e-08	5.517606e+01	7.629175e+02
1.520000e-06	7.703670e-06	1.164078e-08	5.544092e+01	7.643478e+02
1.530000e-06	7.737804e-06	1.166242e-08	5.568657e+01	7.656369e+02
1.540000e-06	7.769133e-06	1.168337e-08	5.591204e+01	7.668032e+02
1.550000e-06	7.797795e-06	1.170182e-08	5.611830e+01	7.678609e+02
1.560000e-06	7.823601e-06	1.171738e-08	5.630402e+01	7.688183e+02
1.570000e-06	7.846427e-06	1.172912e-08	5.646829e+01	7.696773e+02
1.580000e-06	7.866607e-06	1.173820e-08	5.661353e+01	7.704335e+02
1.590000e-06	7.884045e-06	1.174432e-08	5.673902e+01	7.710777e+02
1.600000e-06	7.898464e-06	1.175083e-08	5.684279e+01	7.715976e+02
1.610000e-06	7.909791e-06	1.175994e-08	5.692430e+01	7.719804e+02
1.620000e-06	7.918077e-06	1.176829e-08	5.698394e+01	7.722151e+02
1.630000e-06	7.923501e-06	1.177232e-08	5.702297e+01	7.722943e+02
1.640000e-06	7.926075e-06	1.177187e-08	5.704150e+01	7.722160e+02
1.650000e-06	7.925841e-06	1.177169e-08	5.703982e+01	7.719839e+02
1.660000e-06	7.923007e-06	1.176187e-08	5.701941e+01	7.716072e+02
1.670000e-06	7.917546e-06	1.175326e-08	5.698012e+01	7.710994e+02
1.680000e-06	7.909394e-06	1.174386e-08	5.692145e+01	7.704769e+02
1.690000e-06	7.898585e-06	1.173044e-08	5.684366e+01	7.697563e+02
1.700000e-06	7.884942e-06	1.171979e-08	5.674548e+01	7.689533e+02
1.710000e-06	7.868650e-06	1.171177e-08	5.662823e+01	7.680800e+02
1.720000e-06	7.850111e-06	1.170390e-08	5.649481e+01	7.671446e+02
1.730000e-06	7.829272e-06	1.166349e-08	5.634484e+01	7.661501e+02
1.740000e-06	7.805596e-06	1.157645e-08	5.617445e+01	7.650950e+02
1.750000e-06	7.778439e-06	1.158749e-08	5.597900e+01	7.639738e+02
1.760000e-06	7.747736e-06	1.160455e-08	5.575804e+01	7.627784e+02
1.770000e-06	7.714154e-06	1.157477e-08	5.551637e+01	7.614991e+02
1.780000e-06	7.678261e-06	1.156849e-08	5.525805e+01	7.601263e+02
1.790000e-06	7.640044e-06	1.163200e-08	5.498302e+01	7.586509e+02
1.800000e-06	7.599725e-06	1.156530e-08	5.469286e+01	7.570657e+02
1.810000e-06	7.557293e-06	1.150525e-08	5.438749e+01	7.553647e+02
1.820000e-06	7.512257e-06	1.160787e-08	5.406338e+01	7.535432e+02
1.830000e-06	7.464554e-06	1.147618e-08	5.372007e+01	7.515971e+02
1.840000e-06	7.414025e-06	1.147845e-08	5.335643e+01	7.495224e+02
1.850000e-06	7.360573e-06	1.139975e-08	5.297175e+01	7.473141e+02
1.860000e-06	7.304326e-06	1.129687e-08	5.256696e+01	7.449664e+02
1.870000e-06	7.245388e-06	1.136564e-08	5.214280e+01	7.424723e+02
1.880000e-06	7.183890e-06	1.126409e-08	5.170022e+01	7.398245e+02
1.890000e-06	7.119637e-06	1.130062e-08	5.123781e+01	7.370158e+02
1.900000e-06	7.052609e-06	1.122732e-08	5.075543e+01	7.340405e+02
1.910000e-06	6.982857e-06	1.112011e-08	5.025345e+01	7.308951e+02
1.920000e-06	6.910317e-06	1.110838e-08	4.973140e+01	7.275794e+02
1.930000e-06	6.835092e-06	1.105790e-08	4.919003e+01	7.240967e+02
1.940000e-06	6.757154e-06	1.106194e-08	4.862914e+01	7.204534e+02
1.950000e-06	6.676631e-06	1.093801e-08	4.804963e+01	7.166587e+02
1.960000e-06	6.593634e-06	1.089177e-08	4.745233e+01	7.127232e+02
1.970000e-06	6.508183e-06	1.082400e-08	4.683737e+01	7.086568e+02
1.980000e-06	6.420344e-06	1.071624e-08	4.620522e+01	7.044678e+02
1.990000e-06	6.330217e-06	1.069242e-08	4.555660e+01	7.001605e+02
2.000000e-06	6.237927e-06	1.062646e-08	4.489242e+01	6.957345e+02
2.010000e-06	6.143392e-06	1.056491e-08	4.421208e+01	6.911845e+02
2.020000e-06	6.046668e-06	1.045920e-08	4.351599e+01	6.865001e+02
2.030000e-06	5.947800e-06	1.039624e-08	4.280447e+01	6.816671e+02
2.040000e-06	5.846818e-06	1.032810e-08	4.207773e+01	6.766696e+02
2.050000e-06	5.743780e-06	1.024160e-08	4.133620e+01	6.714915e+02
2.060000e-06	5.638700e-06	1.014640e-08	4.057997e+01	6.661189e+02
2.070000e-06	5.531658e-06	1.006508e-08	3.980962e+01	6.605420e+02
2.080000e-06	5.422685e-06	9.995691e-09	3.902538e+01	6.547562e+02
2.090000e-06	5.311774e-06	9.896654e-09	3.822719e+01	6.487620e+02
2.100000e-06	5.198860e-06	9.810058e-09	3.741458e+01	6.425653e+02
2.110000e-06	5.084004e-06	9.709788e-09	3.658800e+01	6.361749e+02
2.120000e-06	4.967204e-06	9.597078e-09	3.574742e+01	6.296011e+02
2.130000e-06	4.848450e-06	9.475701e-09	3.489279e+01	6.228526e+02
2.140000e-06	4.727792e-06	9.387435e-09	3.402445e+01	6.159348e+02
2.150000e-06	4.605399e-06	9.298459e-09	3.314363e+01	6.088470e+02
2.160000e-06	4.481337e-06	9.186143e-09	3.225079e+01	6.015821e+02
2.170000e-06	4.355623e-06	9.060793e-09	3.134607e+01	5.941259e+02
2.180000e-06	4.228362e-06	8.942388e-09	3.043021e+01	5.864586e+02
2.190000e-06	4.099477e-06	8.825303e-09	2.950266e+01	5.785565e+02
2.200000e-06	3.969096e-06	8.698482e-09	2.856435e+01	5.703948e+02
2.210000e-06	3.837309e-06	8.573709e-09	2.761592e+01	5.619503e+02
2.220000e-06	3.704089e-06	8.440722e-09	2.665718e+01	5.532046e+02
2.230000e-06	3.569512e-06	8.294773e-09	2.568867e+01	5.441454e+02
2.240000e-06	3.433646e-06	8.142441e-09	2.471088e+01	5.347677e+02
2.250000e-06	3.296425e-06	8.002689e-09	2.372335e+01	5.250737e+02
2.260000e-06	3.157950e-06	7.860353e-09	2.272679e+01	5.150705e+02
2.270000e-06	3.018301e-06	7.707788e-09	2.172177e+01	5.047680e+02
2.280000e-06	2.877417e-06	7.548201e-09	2.070788e+01	4.941749e+02
2.290000e-06	2.735377e-06	7.389981e-09	1.968566e+01	4.832958e+02
2.300000e-06	2.592354e-06	7.224864e-09	1.865637e+01	4.721279e+02
2.310000e-06	2.448473e-06	7.048402e-09	1.762090e+01	4.606588e+02
2.320000e-06	2.303682e-06	6.863143e-09	1.657888e+01	4.488663e+02
2.330000e-06	2.158034e-06	6.667396e-09	1.553070e+01	4.367192e+02
2.340000e-06	2.011687e-06	6.467915e-09	1.447749e+01	4.241795e+02
2.350000e-06	1.864668e-06	6.270468e-09	1.341943e+01	4.112070e+02
2.360000e-06	1.717040e-06	6.072263e-09	1.235700e+01	3.977625e+02
2.370000e-06	1.568949e-06	5.860627e-09	1.129124e+01	3.838127e+02
2.380000e-06	1.420346e-06	5.636384e-09	1.022179e+01	3.693333e+02
2.390000e-06	1.271222e-06	5.406486e-09	9.148587e+00	3.543105e+02
2.400000e-06	1.121647e-06	5.171734e-09	8.072141e+00	3.387409e+02
2.410000e-06	9.716675e-07	4.930862e-09	6.992789e+00	3.226289e+02
2.420000e-06	8.213814e-07	4.683766e-09	5.911226e+00	3.059819e+02
2.430000e-06	6.708744e-07	4.422842e-09	4.828075e+00	2.888046e+02
2.440000e-06	5.201794e-07	4.146709e-09	3.743570e+00	2.710919e+02
2.450000e-06	3.692933e-07	3.864671e-09	2.657689e+00	2.528223e+02
2.460000e-06	2.182303e-07	3.578890e-09	1.570536e+00	2.339539e+02
2.470000e-06	6.705949e-08	3.281872e-09	4.826063e-01	2.144209e+02
2.480000e-06	-8.415718e-08	2.967856e-09	-6.056530e-01	1.941356e+02
2.490000e-06	-2.353497e-07	2.641972e-09	-1.693739e+00	1.729928e+02
2.500000e-06	-3.864176e-07	2.304982e-09	-2.780927e+00	1.508781e+02
2.510000e-06	-5.373605e-07	1.951948e-09	-3.867216e+00	1.276797e+02
2.520000e-06	-6.881666e-07	1.582914e-09	-4.952521e+00	1.033021e+02
2.530000e-06	-8.387810e-07	1.194657e-09	-6.036446e+00	7.768013e+01
2.540000e-06	-9.892055e-07	7.861846e-10	-7.119004e+00	5.079263e+01
2.550000e-06	-1.139360e-06	3.602663e-10	-8.199618e+00	2.267309e+01
2.560000e-06	-1.289116e-06	-7.990132e-11	-9.277369e+00	-6.583400e+00
2.570000e-06	-1.438352e-06	-5.347732e-10	-1.035137e+01	-3.681831e+01
2.580000e-06	-1.586976e-06	-1.009022e-09	-1.142097e+01	-6.781344e+01
2.590000e-06	-1.735008e-06	-1.497068e-09	-1.248631e+01	-9.930012e+01
2.600000e-06	-1.882437e-06	-1.990666e-09	-1.354732e+01	-1.309732e+02
2.610000e-06	-2.029146e-06	-2.480460e-09	-1.460313e+01	-1.625087e+02
2.620000e-06	-2.175091e-06	-2.959205e-09	-1.565345e+01	-1.935833e+02
2.630000e-06	-2.320261e-06	-3.423891e-09	-1.669820e+01	-2.238936e+02
2.640000e-06	-2.464479e-06	-3.871048e-09	-1.773609e+01	-2.531742e+02
2.650000e-06	-2.607689e-06	-4.298252e-09	-1.876672e+01	-2.812116e+02
2.660000e-06	-2.749897e-06	-4.699267e-09	-1.979015e+01	-3.078539e+02
2.670000e-06	-2.890992e-06	-5.074473e-09	-2.080557e+01	-3.330141e+02
2.680000e-06	-3.030927e-06	-5.428585e-09	-2.181264e+01	-3.566691e+02
2.690000e-06	-3.169663e-06	-5.765451e-09	-2.281108e+01	-3.788523e+02
2.700000e-06	-3.307190e-06	-6.087660e-09	-2.380082e+01	-3.996431e+02
2.710000e-06	-3.443486e-06	-6.391425e-09	-2.478170e+01	-4.191528e+02
2.720000e-06	-3.578460e-06	-6.676509e-09	-2.575307e+01	-4.375107e+02
2.730000e-06	-3.712138e-06	-6.944452e-09	-2.671510e+01	-4.548493e+02
2.740000e-06	-3.844547e-06	-7.197618e-09	-2.766801e+01	-4.712926e+02
2.750000e-06	-3.975599e-06	-7.439011e-09	-2.861115e+01	-4.869468e+02
2.760000e-06	-4.105279e-06	-7.669330e-09	-2.954442e+01	-5.018952e+02
2.770000e-06	-4.233501e-06	-7.888733e-09	-3.046719e+01	-5.161965e+02
2.780000e-06	-4.360205e-06	-8.097451e-09	-3.137904e+01	-5.298866e+02
2.790000e-06	-4.485469e-06	-8.295327e-09	-3.228053e+01	-5.429831e+02
2.800000e-06	-4.609130e-06	-8.483076e-09	-3.317048e+01	-5.554917e+02
2.810000e-06	-4.731107e-06	-8.662978e-09	-3.404831e+01	-5.674127e+02
2.820000e-06	-4.851405e-06	-8.834107e-09	-3.491405e+01	-5.787474e+02
2.830000e-06	-4.969925e-06	-8.994992e-09	-3.576700e+01	-5.895030e+02
2.840000e-06	-5.086498e-06	-9.149902e-09	-3.660594e+01	-5.996959e+02
2.850000e-06	-5.200928e-06	-9.300339e-09	-3.742946e+01	-6.093517e+02
2.860000e-06	-5.313261e-06	-9.444737e-09	-3.823789e+01	-6.185053e+02
2.870000e-06	-5.423503e-06	-9.578600e-09	-3.903126e+01	-6.271969e+02
2.880000e-06	-5.531789e-06	-9.703684e-09	-3.981057e+01	-6.354695e+02
2.890000e-06	-5.638292e-06	-9.825051e-09	-4.057703e+01	-6.433642e+02
2.900000e-06	-5.742794e-06	-9.941481e-09	-4.132910e+01	-6.509168e+02
2.910000e-06	-5.845093e-06	-1.005241e-08	-4.206531e+01	-6.581559e+02
2.920000e-06	-5.945206e-06	-1.015756e-08	-4.278580e+01	-6.651011e+02
2.930000e-06	-6.043271e-06	-1.025883e-08	-4.349155e+01	-6.717638e+02
2.940000e-06	-6.139210e-06	-1.035522e-08	-4.418198e+01	-6.781484e+02
