# Temperatura_=_63.18
# Concentracion g/m^3_=_10000.0
# C_Vs_to_Am_M_A/Vsm_=_65563218390.804596
# pendiente_HvsI_1/m_=_3716.3
# ordenada_HvsI_A/m_=_1297.0
# frecuencia_Hz_=_302552.07942642045

Tiempo_(s)	Campo_(V.s)	Magnetizacion_(V.s)	Campo_(kA/m)	Magnetizacion_(A/m)
0.000000e+00	-7.955245e-06	-1.195002e-08	-5.684690e+01	-7.826488e+02
1.000000e-08	-7.951390e-06	-1.194582e-08	-5.681935e+01	-7.822210e+02
2.000000e-08	-7.944991e-06	-1.193900e-08	-5.677363e+01	-7.816542e+02
3.000000e-08	-7.935904e-06	-1.193360e-08	-5.670869e+01	-7.809626e+02
4.000000e-08	-7.923945e-06	-1.192473e-08	-5.662324e+01	-7.801624e+02
5.000000e-08	-7.909057e-06	-1.190993e-08	-5.651684e+01	-7.792700e+02
6.000000e-08	-7.891357e-06	-1.189560e-08	-5.639037e+01	-7.783005e+02
7.000000e-08	-7.871311e-06	-1.187850e-08	-5.624712e+01	-7.772666e+02
8.000000e-08	-7.848871e-06	-1.189333e-08	-5.608677e+01	-7.761777e+02
9.000000e-08	-7.823464e-06	-1.191955e-08	-5.590521e+01	-7.750393e+02
1.000000e-07	-7.794858e-06	-1.186593e-08	-5.570080e+01	-7.738531e+02
1.100000e-07	-7.763351e-06	-1.180894e-08	-5.547565e+01	-7.726171e+02
1.200000e-07	-7.729104e-06	-1.178628e-08	-5.523093e+01	-7.713259e+02
1.300000e-07	-7.692208e-06	-1.176246e-08	-5.496728e+01	-7.699711e+02
1.400000e-07	-7.653016e-06	-1.171183e-08	-5.468722e+01	-7.685419e+02
1.500000e-07	-7.611651e-06	-1.165257e-08	-5.439163e+01	-7.670253e+02
1.600000e-07	-7.567855e-06	-1.167471e-08	-5.407867e+01	-7.654065e+02
1.700000e-07	-7.521340e-06	-1.160422e-08	-5.374628e+01	-7.636697e+02
1.800000e-07	-7.472048e-06	-1.156332e-08	-5.339405e+01	-7.617980e+02
1.900000e-07	-7.419887e-06	-1.161652e-08	-5.302132e+01	-7.597747e+02
2.000000e-07	-7.364826e-06	-1.154267e-08	-5.262786e+01	-7.575838e+02
2.100000e-07	-7.306960e-06	-1.150716e-08	-5.221436e+01	-7.552106e+02
2.200000e-07	-7.246429e-06	-1.146674e-08	-5.178181e+01	-7.526438e+02
2.300000e-07	-7.183444e-06	-1.140054e-08	-5.133174e+01	-7.498755e+02
2.400000e-07	-7.117823e-06	-1.135032e-08	-5.086282e+01	-7.469025e+02
2.500000e-07	-7.049405e-06	-1.130167e-08	-5.037391e+01	-7.437268e+02
2.600000e-07	-6.978275e-06	-1.127009e-08	-4.986563e+01	-7.403558e+02
2.700000e-07	-6.904329e-06	-1.119601e-08	-4.933722e+01	-7.368011e+02
2.800000e-07	-6.827597e-06	-1.113732e-08	-4.878891e+01	-7.330780e+02
2.900000e-07	-6.748079e-06	-1.107622e-08	-4.822068e+01	-7.292035e+02
3.000000e-07	-6.665949e-06	-1.103847e-08	-4.763380e+01	-7.251942e+02
3.100000e-07	-6.581535e-06	-1.099505e-08	-4.703059e+01	-7.210647e+02
3.200000e-07	-6.494808e-06	-1.090987e-08	-4.641085e+01	-7.168247e+02
3.300000e-07	-6.405736e-06	-1.085518e-08	-4.577435e+01	-7.124784e+02
3.400000e-07	-6.314399e-06	-1.079553e-08	-4.512168e+01	-7.080233e+02
3.500000e-07	-6.220860e-06	-1.072057e-08	-4.445326e+01	-7.034504e+02
3.600000e-07	-6.125008e-06	-1.063829e-08	-4.376832e+01	-6.987449e+02
3.700000e-07	-6.026857e-06	-1.057238e-08	-4.306695e+01	-6.938884e+02
3.800000e-07	-5.926545e-06	-1.049724e-08	-4.235014e+01	-6.888608e+02
3.900000e-07	-5.824126e-06	-1.040398e-08	-4.161827e+01	-6.836431e+02
4.000000e-07	-5.719623e-06	-1.032416e-08	-4.087150e+01	-6.782198e+02
4.100000e-07	-5.613131e-06	-1.024368e-08	-4.011053e+01	-6.725807e+02
4.200000e-07	-5.504687e-06	-1.015675e-08	-3.933560e+01	-6.667223e+02
4.300000e-07	-5.394269e-06	-1.004903e-08	-3.854658e+01	-6.606475e+02
4.400000e-07	-5.281887e-06	-9.956304e-09	-3.774351e+01	-6.543649e+02
4.500000e-07	-5.167410e-06	-9.874478e-09	-3.692548e+01	-6.478869e+02
4.600000e-07	-5.050935e-06	-9.778415e-09	-3.609317e+01	-6.412268e+02
4.700000e-07	-4.932625e-06	-9.668440e-09	-3.524774e+01	-6.343963e+02
4.800000e-07	-4.812460e-06	-9.564274e-09	-3.438907e+01	-6.274025e+02
4.900000e-07	-4.690505e-06	-9.458995e-09	-3.351760e+01	-6.202458e+02
5.000000e-07	-4.566903e-06	-9.338162e-09	-3.263435e+01	-6.129186e+02
5.100000e-07	-4.441692e-06	-9.220728e-09	-3.173962e+01	-6.054055e+02
5.200000e-07	-4.314809e-06	-9.106171e-09	-3.083293e+01	-5.976846e+02
5.300000e-07	-4.186300e-06	-8.982940e-09	-2.991463e+01	-5.897295e+02
5.400000e-07	-4.056276e-06	-8.846026e-09	-2.898549e+01	-5.815124e+02
5.500000e-07	-3.924749e-06	-8.715727e-09	-2.804562e+01	-5.730077e+02
5.600000e-07	-3.791753e-06	-8.588710e-09	-2.709526e+01	-5.641948e+02
5.700000e-07	-3.657320e-06	-8.451342e-09	-2.613462e+01	-5.550603e+02
5.800000e-07	-3.521405e-06	-8.306811e-09	-2.516339e+01	-5.455993e+02
5.900000e-07	-3.384149e-06	-8.163182e-09	-2.418258e+01	-5.358151e+02
6.000000e-07	-3.245608e-06	-8.014668e-09	-2.319259e+01	-5.257175e+02
6.100000e-07	-3.105698e-06	-7.852281e-09	-2.219282e+01	-5.153197e+02
6.200000e-07	-2.964392e-06	-7.685280e-09	-2.118307e+01	-5.046348e+02
6.300000e-07	-2.821854e-06	-7.515874e-09	-2.016451e+01	-4.936716e+02
6.400000e-07	-2.678236e-06	-7.340367e-09	-1.913824e+01	-4.824315e+02
6.500000e-07	-2.533611e-06	-7.158878e-09	-1.810478e+01	-4.709057e+02
6.600000e-07	-2.388157e-06	-6.978517e-09	-1.706539e+01	-4.590743e+02
6.700000e-07	-2.242001e-06	-6.794474e-09	-1.602098e+01	-4.469071e+02
6.800000e-07	-2.095074e-06	-6.600812e-09	-1.497106e+01	-4.343658e+02
6.900000e-07	-1.947318e-06	-6.403574e-09	-1.391522e+01	-4.214077e+02
7.000000e-07	-1.798925e-06	-6.199344e-09	-1.285483e+01	-4.079907e+02
7.100000e-07	-1.650064e-06	-5.988012e-09	-1.179109e+01	-3.940773e+02
7.200000e-07	-1.500741e-06	-5.768822e-09	-1.072405e+01	-3.796386e+02
7.300000e-07	-1.350999e-06	-5.542082e-09	-9.654023e+00	-3.646568e+02
7.400000e-07	-1.200763e-06	-5.305162e-09	-8.580461e+00	-3.491256e+02
7.500000e-07	-1.049973e-06	-5.059400e-09	-7.502937e+00	-3.330475e+02
7.600000e-07	-8.987350e-07	-4.809733e-09	-6.422216e+00	-3.164303e+02
7.700000e-07	-7.471305e-07	-4.550866e-09	-5.338874e+00	-2.992804e+02
7.800000e-07	-5.952959e-07	-4.282078e-09	-4.253888e+00	-2.815963e+02
7.900000e-07	-4.432382e-07	-4.004734e-09	-3.167309e+00	-2.633611e+02
8.000000e-07	-2.909853e-07	-3.719865e-09	-2.079334e+00	-2.445375e+02
8.100000e-07	-1.386472e-07	-3.420333e-09	-9.907504e-01	-2.250637e+02
8.200000e-07	1.375424e-08	-3.104029e-09	9.828556e-02	-2.048540e+02
8.300000e-07	1.661908e-07	-2.775728e-09	1.187572e+00	-1.838023e+02
8.400000e-07	3.185732e-07	-2.435693e-09	2.276473e+00	-1.617896e+02
8.500000e-07	4.708624e-07	-2.081793e-09	3.364707e+00	-1.386955e+02
8.600000e-07	6.230352e-07	-1.713990e-09	4.452109e+00	-1.144113e+02
8.700000e-07	7.750512e-07	-1.330210e-09	5.538391e+00	-8.885531e+01
8.800000e-07	9.268512e-07	-9.268324e-10	6.623129e+00	-6.198675e+01
8.900000e-07	1.078353e-06	-5.055099e-10	7.705734e+00	-3.381831e+01
9.000000e-07	1.229403e-06	-6.424055e-11	8.785115e+00	-4.424592e+00
9.100000e-07	1.379865e-06	3.964374e-10	9.860296e+00	2.605410e+01
9.200000e-07	1.529740e-06	8.753889e-10	1.093128e+01	5.741366e+01
9.300000e-07	1.679078e-06	1.368104e-09	1.199842e+01	8.939382e+01
9.400000e-07	1.827842e-06	1.866945e-09	1.306147e+01	1.216909e+02
9.500000e-07	1.976014e-06	2.364954e-09	1.412028e+01	1.539750e+02
9.600000e-07	2.123556e-06	2.856437e-09	1.517459e+01	1.859092e+02
9.700000e-07	2.270280e-06	3.334449e-09	1.622305e+01	2.171704e+02
9.800000e-07	2.416133e-06	3.791844e-09	1.726530e+01	2.474679e+02
9.900000e-07	2.561145e-06	4.227723e-09	1.830153e+01	2.765598e+02
1.000000e-06	2.705227e-06	4.641694e-09	1.933112e+01	3.042645e+02
1.010000e-06	2.848216e-06	5.034188e-09	2.035289e+01	3.304671e+02
1.020000e-06	2.990025e-06	5.405618e-09	2.136623e+01	3.551195e+02
1.030000e-06	3.130635e-06	5.756489e-09	2.237101e+01	3.782358e+02
1.040000e-06	3.269982e-06	6.086889e-09	2.336676e+01	3.998820e+02
1.050000e-06	3.408039e-06	6.396204e-09	2.435330e+01	4.201635e+02
1.060000e-06	3.544768e-06	6.687840e-09	2.533034e+01	4.392101e+02
1.070000e-06	3.680106e-06	6.963849e-09	2.629745e+01	4.571609e+02
1.080000e-06	3.814090e-06	7.224999e-09	2.725487e+01	4.741510e+02
1.090000e-06	3.946727e-06	7.472216e-09	2.820267e+01	4.903008e+02
1.100000e-06	4.077964e-06	7.709002e-09	2.914047e+01	5.057085e+02
1.110000e-06	4.207828e-06	7.935988e-09	3.006846e+01	5.204471e+02
1.120000e-06	4.336253e-06	8.150669e-09	3.098616e+01	5.345641e+02
1.130000e-06	4.463097e-06	8.352331e-09	3.189257e+01	5.480858e+02
1.140000e-06	4.588429e-06	8.543617e-09	3.278817e+01	5.610223e+02
1.150000e-06	4.712198e-06	8.727085e-09	3.367261e+01	5.733746e+02
1.160000e-06	4.834279e-06	8.902375e-09	3.454498e+01	5.851413e+02
1.170000e-06	4.954610e-06	9.070747e-09	3.540485e+01	5.963245e+02
1.180000e-06	5.073171e-06	9.232548e-09	3.625206e+01	6.069340e+02
1.190000e-06	5.189822e-06	9.387907e-09	3.708563e+01	6.169894e+02
1.200000e-06	5.304458e-06	9.535751e-09	3.790480e+01	6.265201e+02
1.210000e-06	5.417075e-06	9.677342e-09	3.870954e+01	6.355632e+02
1.220000e-06	5.527652e-06	9.812537e-09	3.949971e+01	6.441606e+02
1.230000e-06	5.636295e-06	9.941275e-09	4.027605e+01	6.523548e+02
1.240000e-06	5.742984e-06	1.006264e-08	4.103844e+01	6.601856e+02
1.250000e-06	5.847535e-06	1.017664e-08	4.178554e+01	6.676865e+02
1.260000e-06	5.949915e-06	1.028535e-08	4.251713e+01	6.748827e+02
1.270000e-06	6.050170e-06	1.038935e-08	4.323354e+01	6.817910e+02
1.280000e-06	6.148164e-06	1.048792e-08	4.393379e+01	6.884202e+02
1.290000e-06	6.243781e-06	1.058055e-08	4.461705e+01	6.947730e+02
1.300000e-06	6.337138e-06	1.067010e-08	4.528416e+01	7.008486e+02
1.310000e-06	6.428323e-06	1.075796e-08	4.593576e+01	7.066459e+02
1.320000e-06	6.517236e-06	1.084368e-08	4.657112e+01	7.121657e+02
1.330000e-06	6.603845e-06	1.092440e-08	4.719001e+01	7.174124e+02
1.340000e-06	6.688150e-06	1.099964e-08	4.779244e+01	7.223954e+02
1.350000e-06	6.770085e-06	1.107157e-08	4.837793e+01	7.271287e+02
1.360000e-06	6.849518e-06	1.113975e-08	4.894555e+01	7.316292e+02
1.370000e-06	6.926362e-06	1.120647e-08	4.949467e+01	7.359156e+02
1.380000e-06	7.000508e-06	1.127152e-08	5.002450e+01	7.400055e+02
1.390000e-06	7.072020e-06	1.133232e-08	5.053552e+01	7.439133e+02
1.400000e-06	7.141117e-06	1.138884e-08	5.102927e+01	7.476488e+02
1.410000e-06	7.207695e-06	1.144274e-08	5.150503e+01	7.512155e+02
1.420000e-06	7.271612e-06	1.149525e-08	5.196177e+01	7.546116e+02
1.430000e-06	7.333094e-06	1.154257e-08	5.240111e+01	7.578297e+02
1.440000e-06	7.392116e-06	1.158531e-08	5.282287e+01	7.608598e+02
1.450000e-06	7.448475e-06	1.162486e-08	5.322560e+01	7.636906e+02
1.460000e-06	7.502038e-06	1.166143e-08	5.360835e+01	7.663122e+02
1.470000e-06	7.552556e-06	1.169676e-08	5.396935e+01	7.687186e+02
1.480000e-06	7.600125e-06	1.173004e-08	5.430927e+01	7.709088e+02
1.490000e-06	7.645000e-06	1.176132e-08	5.462994e+01	7.728880e+02
1.500000e-06	7.687162e-06	1.179054e-08	5.493122e+01	7.746672e+02
1.510000e-06	7.726553e-06	1.181738e-08	5.521270e+01	7.762621e+02
1.520000e-06	7.763239e-06	1.184186e-08	5.547485e+01	7.776918e+02
1.530000e-06	7.797168e-06	1.186457e-08	5.571731e+01	7.789757e+02
1.540000e-06	7.828308e-06	1.188324e-08	5.593983e+01	7.801322e+02
1.550000e-06	7.856753e-06	1.189709e-08	5.614309e+01	7.811757e+02
1.560000e-06	7.882332e-06	1.190960e-08	5.632587e+01	7.821155e+02
1.570000e-06	7.904974e-06	1.192154e-08	5.648767e+01	7.829551e+02
1.580000e-06	7.924904e-06	1.193149e-08	5.663008e+01	7.836920e+02
1.590000e-06	7.942014e-06	1.193951e-08	5.675235e+01	7.843188e+02
1.600000e-06	7.956094e-06	1.194756e-08	5.685296e+01	7.848249e+02
1.610000e-06	7.967089e-06	1.195686e-08	5.693153e+01	7.851981e+02
1.620000e-06	7.975045e-06	1.196414e-08	5.698839e+01	7.854269e+02
1.630000e-06	7.980174e-06	1.196714e-08	5.702504e+01	7.855026e+02
1.640000e-06	7.982478e-06	1.196676e-08	5.704150e+01	7.854203e+02
1.650000e-06	7.981946e-06	1.196010e-08	5.703770e+01	7.851805e+02
1.660000e-06	7.978795e-06	1.194694e-08	5.701518e+01	7.847884e+02
1.670000e-06	7.972978e-06	1.193934e-08	5.697362e+01	7.842541e+02
1.680000e-06	7.964430e-06	1.193219e-08	5.691253e+01	7.835913e+02
1.690000e-06	7.953206e-06	1.192192e-08	5.683233e+01	7.828158e+02
1.700000e-06	7.939166e-06	1.191182e-08	5.673200e+01	7.819440e+02
1.710000e-06	7.922466e-06	1.190096e-08	5.661266e+01	7.809915e+02
1.720000e-06	7.903505e-06	1.188376e-08	5.647717e+01	7.799718e+02
1.730000e-06	7.882121e-06	1.180450e-08	5.632436e+01	7.788949e+02
1.740000e-06	7.857733e-06	1.176584e-08	5.615010e+01	7.777676e+02
1.750000e-06	7.829802e-06	1.179697e-08	5.595051e+01	7.765924e+02
1.760000e-06	7.798350e-06	1.178566e-08	5.572575e+01	7.753683e+02
1.770000e-06	7.764207e-06	1.175238e-08	5.548177e+01	7.740906e+02
1.780000e-06	7.727807e-06	1.176841e-08	5.522166e+01	7.727517e+02
1.790000e-06	7.689104e-06	1.179417e-08	5.494510e+01	7.713413e+02
1.800000e-06	7.648338e-06	1.169563e-08	5.465379e+01	7.698469e+02
1.810000e-06	7.605268e-06	1.174877e-08	5.434602e+01	7.682542e+02
1.820000e-06	7.559489e-06	1.176251e-08	5.401889e+01	7.665474e+02
1.830000e-06	7.511081e-06	1.166827e-08	5.367297e+01	7.647101e+02
1.840000e-06	7.459772e-06	1.169340e-08	5.330633e+01	7.627253e+02
1.850000e-06	7.405477e-06	1.157716e-08	5.291835e+01	7.605767e+02
1.860000e-06	7.348523e-06	1.157648e-08	5.251136e+01	7.582494e+02
1.870000e-06	7.288871e-06	1.155773e-08	5.208510e+01	7.557310e+02
1.880000e-06	7.226446e-06	1.149533e-08	5.163902e+01	7.530125e+02
1.890000e-06	7.161267e-06	1.150644e-08	5.117326e+01	7.500897e+02
1.900000e-06	7.093354e-06	1.138812e-08	5.068796e+01	7.469633e+02
1.910000e-06	7.022611e-06	1.135235e-08	5.018244e+01	7.436392e+02
1.920000e-06	6.949156e-06	1.130239e-08	4.965755e+01	7.401282e+02
1.930000e-06	6.873072e-06	1.128309e-08	4.911387e+01	7.364446e+02
1.940000e-06	6.794217e-06	1.122810e-08	4.855038e+01	7.326054e+02
1.950000e-06	6.712810e-06	1.111807e-08	4.796866e+01	7.286274e+02
1.960000e-06	6.628955e-06	1.108673e-08	4.736944e+01	7.245258e+02
1.970000e-06	6.542613e-06	1.098648e-08	4.675246e+01	7.203119e+02
1.980000e-06	6.453859e-06	1.092589e-08	4.611824e+01	7.159912e+02
1.990000e-06	6.362794e-06	1.087121e-08	4.546750e+01	7.115629e+02
2.000000e-06	6.269476e-06	1.081782e-08	4.480066e+01	7.070197e+02
2.010000e-06	6.173896e-06	1.072570e-08	4.411767e+01	7.023480e+02
2.020000e-06	6.076144e-06	1.063196e-08	4.341915e+01	6.975301e+02
2.030000e-06	5.976222e-06	1.057156e-08	4.270512e+01	6.925462e+02
2.040000e-06	5.874191e-06	1.049178e-08	4.197602e+01	6.873767e+02
2.050000e-06	5.770099e-06	1.040916e-08	4.123220e+01	6.820051e+02
2.060000e-06	5.664016e-06	1.031037e-08	4.047414e+01	6.764196e+02
2.070000e-06	5.556028e-06	1.024281e-08	3.970248e+01	6.706150e+02
2.080000e-06	5.446000e-06	1.014958e-08	3.891624e+01	6.645927e+02
2.090000e-06	5.333954e-06	1.005026e-08	3.811558e+01	6.583600e+02
2.100000e-06	5.219935e-06	9.952870e-09	3.730081e+01	6.519286e+02
2.110000e-06	5.103863e-06	9.858333e-09	3.647139e+01	6.453119e+02
2.120000e-06	4.985796e-06	9.743291e-09	3.562770e+01	6.385222e+02
2.130000e-06	4.865946e-06	9.628739e-09	3.477126e+01	6.315680e+02
2.140000e-06	4.744323e-06	9.535217e-09	3.390217e+01	6.244514e+02
2.150000e-06	4.620920e-06	9.432350e-09	3.302035e+01	6.171670e+02
2.160000e-06	4.495779e-06	9.312011e-09	3.212611e+01	6.097012e+02
2.170000e-06	4.368931e-06	9.183908e-09	3.121968e+01	6.020337e+02
2.180000e-06	4.240530e-06	9.070266e-09	3.030214e+01	5.941388e+02
2.190000e-06	4.110671e-06	8.948332e-09	2.937419e+01	5.859888e+02
2.200000e-06	3.979302e-06	8.820714e-09	2.843545e+01	5.775572e+02
2.210000e-06	3.846399e-06	8.685031e-09	2.748575e+01	5.688219e+02
2.220000e-06	3.712029e-06	8.544696e-09	2.652556e+01	5.597676e+02
2.230000e-06	3.576300e-06	8.392718e-09	2.555567e+01	5.503873e+02
2.240000e-06	3.439227e-06	8.242534e-09	2.457616e+01	5.406823e+02
2.250000e-06	3.300757e-06	8.098633e-09	2.358668e+01	5.306609e+02
2.260000e-06	3.161032e-06	7.951608e-09	2.258822e+01	5.203359e+02
2.270000e-06	3.020125e-06	7.794728e-09	2.158133e+01	5.097207e+02
2.280000e-06	2.877987e-06	7.629897e-09	2.056563e+01	4.988257e+02
2.290000e-06	2.734762e-06	7.462814e-09	1.954217e+01	4.876542e+02
2.300000e-06	2.590640e-06	7.286785e-09	1.851230e+01	4.762003e+02
2.310000e-06	2.445693e-06	7.105388e-09	1.747652e+01	4.644468e+02
2.320000e-06	2.299938e-06	6.916179e-09	1.643499e+01	4.523660e+02
2.330000e-06	2.153302e-06	6.719823e-09	1.538715e+01	4.399211e+02
2.340000e-06	2.005778e-06	6.521164e-09	1.433296e+01	4.270703e+02
2.350000e-06	1.857511e-06	6.319683e-09	1.327348e+01	4.137709e+02
2.360000e-06	1.708734e-06	6.112405e-09	1.221034e+01	3.999837e+02
2.370000e-06	1.559541e-06	5.893318e-09	1.114423e+01	3.856774e+02
2.380000e-06	1.409878e-06	5.667260e-09	1.007476e+01	3.708315e+02
2.390000e-06	1.259675e-06	5.435622e-09	9.001438e+00	3.554367e+02
2.400000e-06	1.108959e-06	5.194462e-09	7.924445e+00	3.394938e+02
2.410000e-06	9.578289e-07	4.946146e-09	6.844491e+00	3.230096e+02
2.420000e-06	8.063734e-07	4.690287e-09	5.762214e+00	3.059917e+02
2.430000e-06	6.547011e-07	4.421951e-09	4.678389e+00	2.884410e+02
2.440000e-06	5.028498e-07	4.141914e-09	3.593283e+00	2.703453e+02
2.450000e-06	3.508254e-07	3.856950e-09	2.506941e+00	2.516726e+02
2.460000e-06	1.987288e-07	3.564159e-09	1.420084e+00	2.323675e+02
2.470000e-06	4.656370e-08	3.257506e-09	3.327367e-01	2.123501e+02
2.480000e-06	-1.056592e-07	2.933639e-09	-7.550235e-01	1.915188e+02
2.490000e-06	-2.578464e-07	2.595390e-09	-1.842529e+00	1.697568e+02
2.500000e-06	-4.099781e-07	2.243720e-09	-2.929637e+00	1.469430e+02
2.510000e-06	-5.620296e-07	1.875931e-09	-4.016173e+00	1.229643e+02
2.520000e-06	-7.139475e-07	1.494495e-09	-5.101754e+00	9.773099e+01
2.530000e-06	-8.656864e-07	1.096799e-09	-6.186056e+00	7.119068e+01
2.540000e-06	-1.017161e-06	6.779074e-10	-7.268470e+00	4.334178e+01
2.550000e-06	-1.168270e-06	2.380090e-10	-8.348271e+00	1.424285e+01
2.560000e-06	-1.318908e-06	-2.181739e-10	-9.424706e+00	-1.598229e+01
2.570000e-06	-1.468934e-06	-6.905861e-10	-1.049677e+01	-4.714498e+01
2.580000e-06	-1.618397e-06	-1.181284e-09	-1.156480e+01	-7.899799e+01
2.590000e-06	-1.767423e-06	-1.683905e-09	-1.262972e+01	-1.112470e+02
2.600000e-06	-1.915892e-06	-2.187789e-09	-1.369066e+01	-1.435670e+02
2.610000e-06	-2.063577e-06	-2.684848e-09	-1.474599e+01	-1.756208e+02
2.620000e-06	-2.210367e-06	-3.169770e-09	-1.579493e+01	-2.070800e+02
2.630000e-06	-2.356302e-06	-3.637924e-09	-1.683775e+01	-2.376442e+02
2.640000e-06	-2.501346e-06	-4.085422e-09	-1.787421e+01	-2.670580e+02
2.650000e-06	-2.645502e-06	-4.509410e-09	-1.890433e+01	-2.951239e+02
2.660000e-06	-2.788712e-06	-4.908219e-09	-1.992768e+01	-3.217101e+02
2.670000e-06	-2.930774e-06	-5.282950e-09	-2.094284e+01	-3.467520e+02
2.680000e-06	-3.071641e-06	-5.636430e-09	-2.194945e+01	-3.702489e+02
2.690000e-06	-3.211289e-06	-5.971406e-09	-2.294736e+01	-3.922550e+02
2.700000e-06	-3.349641e-06	-6.291157e-09	-2.393599e+01	-4.128671e+02
2.710000e-06	-3.486680e-06	-6.593973e-09	-2.491525e+01	-4.322105e+02
2.720000e-06	-3.622470e-06	-6.876528e-09	-2.588559e+01	-4.504231e+02
2.730000e-06	-3.756982e-06	-7.139927e-09	-2.684679e+01	-4.676424e+02
2.740000e-06	-3.890130e-06	-7.390135e-09	-2.779824e+01	-4.839931e+02
2.750000e-06	-4.021845e-06	-7.631487e-09	-2.873946e+01	-4.995794e+02
2.760000e-06	-4.152143e-06	-7.862920e-09	-2.967054e+01	-5.144808e+02
2.770000e-06	-4.281063e-06	-8.082433e-09	-3.059178e+01	-5.287510e+02
2.780000e-06	-4.408472e-06	-8.290260e-09	-3.150223e+01	-5.424210e+02
2.790000e-06	-4.534352e-06	-8.487966e-09	-3.240175e+01	-5.555045e+02
2.800000e-06	-4.658686e-06	-8.675411e-09	-3.329022e+01	-5.680039e+02
2.810000e-06	-4.781311e-06	-8.854578e-09	-3.416648e+01	-5.799179e+02
2.820000e-06	-4.902223e-06	-9.025034e-09	-3.503050e+01	-5.912474e+02
2.830000e-06	-5.021351e-06	-9.185748e-09	-3.588177e+01	-6.019999e+02
2.840000e-06	-5.138501e-06	-9.340241e-09	-3.671890e+01	-6.121924e+02
2.850000e-06	-5.253516e-06	-9.489772e-09	-3.754078e+01	-6.218520e+02
2.860000e-06	-5.366354e-06	-9.634240e-09	-3.834710e+01	-6.310142e+02
2.870000e-06	-5.477153e-06	-9.769498e-09	-3.913885e+01	-6.397199e+02
2.880000e-06	-5.586007e-06	-9.895584e-09	-3.991671e+01	-6.480120e+02
2.890000e-06	-5.692952e-06	-1.001632e-08	-4.068091e+01	-6.559312e+02
2.900000e-06	-5.797941e-06	-1.013256e-08	-4.143115e+01	-6.635127e+02
2.910000e-06	-5.900773e-06	-1.024475e-08	-4.216597e+01	-6.707842e+02
2.920000e-06	-6.001330e-06	-1.035182e-08	-4.288453e+01	-6.777643e+02
2.930000e-06	-6.099681e-06	-1.045364e-08	-4.358734e+01	-6.844638e+02
2.940000e-06	-6.195907e-06	-1.055009e-08	-4.427495e+01	-6.908866e+02
