# Temperatura_=_44.68
# Concentracion g/m^3_=_10000.0
# C_Vs_to_Am_M_A/Vsm_=_65563218390.804596
# pendiente_HvsI_1/m_=_3716.3
# ordenada_HvsI_A/m_=_1297.0
# frecuencia_Hz_=_302552.66363638645

Tiempo_(s)	Campo_(V.s)	Magnetizacion_(V.s)	Campo_(kA/m)	Magnetizacion_(A/m)
0.000000e+00	-7.905738e-06	-1.122684e-08	-5.684616e+01	-7.363135e+02
1.000000e-08	-7.902206e-06	-1.122455e-08	-5.682076e+01	-7.359569e+02
2.000000e-08	-7.896083e-06	-1.121837e-08	-5.677674e+01	-7.354790e+02
3.000000e-08	-7.887313e-06	-1.121171e-08	-5.671367e+01	-7.348960e+02
4.000000e-08	-7.875699e-06	-1.120454e-08	-5.663016e+01	-7.342259e+02
5.000000e-08	-7.861111e-06	-1.119527e-08	-5.652527e+01	-7.334857e+02
6.000000e-08	-7.843778e-06	-1.118441e-08	-5.640064e+01	-7.326895e+02
7.000000e-08	-7.824164e-06	-1.117225e-08	-5.625961e+01	-7.318471e+02
8.000000e-08	-7.802158e-06	-1.116886e-08	-5.610137e+01	-7.309629e+02
9.000000e-08	-7.777255e-06	-1.119429e-08	-5.592231e+01	-7.300357e+02
1.000000e-07	-7.749157e-06	-1.117203e-08	-5.572027e+01	-7.290590e+02
1.100000e-07	-7.718062e-06	-1.111699e-08	-5.549668e+01	-7.280226e+02
1.200000e-07	-7.684216e-06	-1.108564e-08	-5.525331e+01	-7.269132e+02
1.300000e-07	-7.647788e-06	-1.105653e-08	-5.499137e+01	-7.257169e+02
1.400000e-07	-7.609071e-06	-1.101252e-08	-5.471298e+01	-7.244200e+02
1.500000e-07	-7.568144e-06	-1.096387e-08	-5.441869e+01	-7.230104e+02
1.600000e-07	-7.524911e-06	-1.098503e-08	-5.410783e+01	-7.214786e+02
1.700000e-07	-7.479065e-06	-1.097516e-08	-5.377817e+01	-7.198177e+02
1.800000e-07	-7.430394e-06	-1.089371e-08	-5.342820e+01	-7.180231e+02
1.900000e-07	-7.378798e-06	-1.092105e-08	-5.305720e+01	-7.160925e+02
2.000000e-07	-7.324322e-06	-1.088505e-08	-5.266549e+01	-7.140248e+02
2.100000e-07	-7.267152e-06	-1.082312e-08	-5.225441e+01	-7.118196e+02
2.200000e-07	-7.207312e-06	-1.080955e-08	-5.182413e+01	-7.094770e+02
2.300000e-07	-7.144899e-06	-1.074932e-08	-5.137535e+01	-7.069966e+02
2.400000e-07	-7.079811e-06	-1.071332e-08	-5.090733e+01	-7.043780e+02
2.500000e-07	-7.011993e-06	-1.065901e-08	-5.041969e+01	-7.016212e+02
2.600000e-07	-6.941540e-06	-1.064621e-08	-4.991310e+01	-6.987263e+02
2.700000e-07	-6.868310e-06	-1.060234e-08	-4.938654e+01	-6.956943e+02
2.800000e-07	-6.792300e-06	-1.052961e-08	-4.883999e+01	-6.925274e+02
2.900000e-07	-6.713469e-06	-1.046941e-08	-4.827316e+01	-6.892287e+02
3.000000e-07	-6.631985e-06	-1.043096e-08	-4.768725e+01	-6.858021e+02
3.100000e-07	-6.548265e-06	-1.040095e-08	-4.708526e+01	-6.822514e+02
3.200000e-07	-6.462321e-06	-1.033106e-08	-4.646728e+01	-6.785801e+02
3.300000e-07	-6.374064e-06	-1.028061e-08	-4.583267e+01	-6.747898e+02
3.400000e-07	-6.283491e-06	-1.022226e-08	-4.518140e+01	-6.708797e+02
3.500000e-07	-6.190684e-06	-1.015170e-08	-4.451407e+01	-6.668464e+02
3.600000e-07	-6.095667e-06	-1.008761e-08	-4.383086e+01	-6.626830e+02
3.700000e-07	-5.998367e-06	-1.002816e-08	-4.313122e+01	-6.583801e+02
3.800000e-07	-5.898856e-06	-9.965520e-09	-4.241569e+01	-6.539262e+02
3.900000e-07	-5.797263e-06	-9.889620e-09	-4.168518e+01	-6.493092e+02
4.000000e-07	-5.693642e-06	-9.815270e-09	-4.094010e+01	-6.445176e+02
4.100000e-07	-5.587965e-06	-9.737358e-09	-4.018023e+01	-6.395419e+02
4.200000e-07	-5.480256e-06	-9.662119e-09	-3.940575e+01	-6.343759e+02
4.300000e-07	-5.370686e-06	-9.579047e-09	-3.861788e+01	-6.290171e+02
4.400000e-07	-5.259285e-06	-9.492318e-09	-3.781685e+01	-6.234668e+02
4.500000e-07	-5.145808e-06	-9.406879e-09	-3.700090e+01	-6.177299e+02
4.600000e-07	-5.030218e-06	-9.324690e-09	-3.616975e+01	-6.118129e+02
4.700000e-07	-4.912767e-06	-9.233093e-09	-3.532522e+01	-6.057227e+02
4.800000e-07	-4.793548e-06	-9.136041e-09	-3.446798e+01	-5.994643e+02
4.900000e-07	-4.672547e-06	-9.039720e-09	-3.359792e+01	-5.930394e+02
5.000000e-07	-4.549809e-06	-8.934802e-09	-3.271538e+01	-5.864445e+02
5.100000e-07	-4.425451e-06	-8.826684e-09	-3.182118e+01	-5.796706e+02
5.200000e-07	-4.299517e-06	-8.723485e-09	-3.091565e+01	-5.727030e+02
5.300000e-07	-4.171980e-06	-8.623136e-09	-2.999860e+01	-5.655224e+02
5.400000e-07	-4.042989e-06	-8.503468e-09	-2.907109e+01	-5.581067e+02
5.500000e-07	-3.912502e-06	-8.376062e-09	-2.813282e+01	-5.504332e+02
5.600000e-07	-3.780463e-06	-8.257240e-09	-2.718340e+01	-5.424806e+02
5.700000e-07	-3.646952e-06	-8.139834e-09	-2.622338e+01	-5.342321e+02
5.800000e-07	-3.512049e-06	-8.006281e-09	-2.525337e+01	-5.256759e+02
5.900000e-07	-3.375828e-06	-7.868780e-09	-2.427387e+01	-5.168065e+02
6.000000e-07	-3.238336e-06	-7.733811e-09	-2.328523e+01	-5.076243e+02
6.100000e-07	-3.099505e-06	-7.588599e-09	-2.228697e+01	-4.981338e+02
6.200000e-07	-2.959292e-06	-7.435421e-09	-2.127877e+01	-4.883414e+02
6.300000e-07	-2.817845e-06	-7.280874e-09	-2.026170e+01	-4.782526e+02
6.400000e-07	-2.675243e-06	-7.125816e-09	-1.923632e+01	-4.678692e+02
6.500000e-07	-2.531601e-06	-6.959680e-09	-1.820346e+01	-4.571864e+02
6.600000e-07	-2.387052e-06	-6.789099e-09	-1.716408e+01	-4.461916e+02
6.700000e-07	-2.241633e-06	-6.617751e-09	-1.611845e+01	-4.348636e+02
6.800000e-07	-2.095446e-06	-6.440244e-09	-1.506729e+01	-4.231739e+02
6.900000e-07	-1.948576e-06	-6.253835e-09	-1.401123e+01	-4.110884e+02
7.000000e-07	-1.801072e-06	-6.059951e-09	-1.295060e+01	-3.985710e+02
7.100000e-07	-1.653020e-06	-5.860856e-09	-1.188603e+01	-3.855872e+02
7.200000e-07	-1.504497e-06	-5.655349e-09	-1.081808e+01	-3.721075e+02
7.300000e-07	-1.355549e-06	-5.446283e-09	-9.747070e+00	-3.581099e+02
7.400000e-07	-1.206195e-06	-5.227387e-09	-8.673134e+00	-3.435818e+02
7.500000e-07	-1.056469e-06	-4.998119e-09	-7.596536e+00	-3.285192e+02
7.600000e-07	-9.064106e-07	-4.762455e-09	-6.517540e+00	-3.129244e+02
7.700000e-07	-7.560342e-07	-4.520596e-09	-5.436259e+00	-2.968019e+02
7.800000e-07	-6.053782e-07	-4.268465e-09	-4.352968e+00	-2.801534e+02
7.900000e-07	-4.544791e-07	-4.004405e-09	-3.267929e+00	-2.629710e+02
8.000000e-07	-3.034000e-07	-3.734683e-09	-2.181596e+00	-2.452326e+02
8.100000e-07	-1.522521e-07	-3.453814e-09	-1.094768e+00	-2.268972e+02
8.200000e-07	-1.050500e-09	-3.158204e-09	-7.553614e-03	-2.079032e+02
8.300000e-07	1.502097e-07	-2.851831e-09	1.080082e+00	-1.881692e+02
8.400000e-07	3.014462e-07	-2.535639e-09	2.167547e+00	-1.675991e+02
8.500000e-07	4.525605e-07	-2.206093e-09	3.254133e+00	-1.460892e+02
8.600000e-07	6.035559e-07	-1.861040e-09	4.339865e+00	-1.235392e+02
8.700000e-07	7.544169e-07	-1.502125e-09	5.424630e+00	-9.986433e+01
8.800000e-07	9.050747e-07	-1.128228e-09	6.507934e+00	-7.500860e+01
8.900000e-07	1.055479e-06	-7.354686e-10	7.589416e+00	-4.895674e+01
9.000000e-07	1.205537e-06	-3.241341e-10	8.668403e+00	-2.174421e+01
9.100000e-07	1.355181e-06	1.020011e-10	9.744423e+00	6.536561e+00
9.200000e-07	1.504355e-06	5.436969e-10	1.081705e+01	3.573451e+01
9.300000e-07	1.652983e-06	1.001943e-09	1.188576e+01	6.564330e+01
9.400000e-07	1.801013e-06	1.473036e-09	1.295018e+01	9.600974e+01
9.500000e-07	1.948391e-06	1.946066e-09	1.400989e+01	1.265467e+02
9.600000e-07	2.095113e-06	2.413594e-09	1.506490e+01	1.569490e+02
9.700000e-07	2.241114e-06	2.869166e-09	1.611471e+01	1.869121e+02
9.800000e-07	2.386267e-06	3.308466e-09	1.715844e+01	2.161492e+02
9.900000e-07	2.530498e-06	3.731885e-09	1.819553e+01	2.444089e+02
1.000000e-06	2.673729e-06	4.137199e-09	1.922543e+01	2.714875e+02
1.010000e-06	2.815880e-06	4.523924e-09	2.024757e+01	2.972386e+02
1.020000e-06	2.956894e-06	4.893069e-09	2.126153e+01	3.215771e+02
1.030000e-06	3.096740e-06	5.244561e-09	2.226709e+01	3.444774e+02
1.040000e-06	3.235330e-06	5.573048e-09	2.326362e+01	3.659676e+02
1.050000e-06	3.372619e-06	5.877971e-09	2.425079e+01	3.861195e+02
1.060000e-06	3.508596e-06	6.164663e-09	2.522854e+01	4.050361e+02
1.070000e-06	3.643229e-06	6.437490e-09	2.619661e+01	4.228376e+02
1.080000e-06	3.776531e-06	6.695999e-09	2.715512e+01	4.396482e+02
1.090000e-06	3.908497e-06	6.939798e-09	2.810402e+01	4.555849e+02
1.100000e-06	4.039119e-06	7.171762e-09	2.904326e+01	4.707483e+02
1.110000e-06	4.168345e-06	7.392890e-09	2.997246e+01	4.852174e+02
1.120000e-06	4.296072e-06	7.604262e-09	3.089088e+01	4.990481e+02
1.130000e-06	4.422320e-06	7.805361e-09	3.179866e+01	5.122746e+02
1.140000e-06	4.547058e-06	7.995756e-09	3.269559e+01	5.249135e+02
1.150000e-06	4.670251e-06	8.174726e-09	3.358141e+01	5.369697e+02
1.160000e-06	4.791822e-06	8.344655e-09	3.445557e+01	5.484430e+02
1.170000e-06	4.911610e-06	8.507598e-09	3.531690e+01	5.593342e+02
1.180000e-06	5.029568e-06	8.663143e-09	3.616508e+01	5.696497e+02
1.190000e-06	5.145669e-06	8.812347e-09	3.699990e+01	5.794054e+02
1.200000e-06	5.259836e-06	8.955157e-09	3.782082e+01	5.886267e+02
1.210000e-06	5.371957e-06	9.092639e-09	3.862702e+01	5.973483e+02
1.220000e-06	5.482062e-06	9.223573e-09	3.941873e+01	6.056116e+02
1.230000e-06	5.590286e-06	9.346784e-09	4.019692e+01	6.134605e+02
1.240000e-06	5.696579e-06	9.461991e-09	4.096122e+01	6.209383e+02
1.250000e-06	5.800771e-06	9.568996e-09	4.171041e+01	6.280834e+02
1.260000e-06	5.902795e-06	9.669992e-09	4.244401e+01	6.349269e+02
1.270000e-06	6.002666e-06	9.767276e-09	4.316213e+01	6.414910e+02
1.280000e-06	6.100271e-06	9.861858e-09	4.386396e+01	6.477891e+02
1.290000e-06	6.195500e-06	9.953224e-09	4.454870e+01	6.538268e+02
1.300000e-06	6.288457e-06	1.004005e-08	4.521711e+01	6.596044e+02
1.310000e-06	6.379273e-06	1.012372e-08	4.587012e+01	6.651197e+02
1.320000e-06	6.467821e-06	1.020442e-08	4.650682e+01	6.703707e+02
1.330000e-06	6.554013e-06	1.028087e-08	4.712659e+01	6.753582e+02
1.340000e-06	6.637948e-06	1.035263e-08	4.773012e+01	6.800873e+02
1.350000e-06	6.719541e-06	1.041949e-08	4.831682e+01	6.845678e+02
1.360000e-06	6.798633e-06	1.048319e-08	4.888553e+01	6.888142e+02
1.370000e-06	6.875184e-06	1.054535e-08	4.943597e+01	6.928435e+02
1.380000e-06	6.949100e-06	1.060582e-08	4.996746e+01	6.966734e+02
1.390000e-06	7.020419e-06	1.066338e-08	5.048028e+01	7.003203e+02
1.400000e-06	7.089325e-06	1.071703e-08	5.097575e+01	7.037967e+02
1.410000e-06	7.155761e-06	1.076780e-08	5.145346e+01	7.071101e+02
1.420000e-06	7.219602e-06	1.081742e-08	5.191250e+01	7.102620e+02
1.430000e-06	7.280945e-06	1.086327e-08	5.235359e+01	7.132486e+02
1.440000e-06	7.339871e-06	1.090462e-08	5.277730e+01	7.160621e+02
1.450000e-06	7.396192e-06	1.094165e-08	5.318227e+01	7.186921e+02
1.460000e-06	7.449813e-06	1.097423e-08	5.356783e+01	7.211288e+02
1.470000e-06	7.500482e-06	1.100467e-08	5.393217e+01	7.233649e+02
1.480000e-06	7.548086e-06	1.103425e-08	5.427447e+01	7.253976e+02
1.490000e-06	7.592956e-06	1.106392e-08	5.459710e+01	7.272299e+02
1.500000e-06	7.635159e-06	1.109210e-08	5.490056e+01	7.288709e+02
1.510000e-06	7.674586e-06	1.111694e-08	5.518407e+01	7.303353e+02
1.520000e-06	7.711328e-06	1.113793e-08	5.544826e+01	7.316416e+02
1.530000e-06	7.745392e-06	1.115662e-08	5.569319e+01	7.328099e+02
1.540000e-06	7.776665e-06	1.117435e-08	5.591806e+01	7.338598e+02
1.550000e-06	7.805206e-06	1.118938e-08	5.612329e+01	7.348076e+02
1.560000e-06	7.830943e-06	1.120176e-08	5.630834e+01	7.356646e+02
1.570000e-06	7.853782e-06	1.121232e-08	5.647257e+01	7.364360e+02
1.580000e-06	7.873901e-06	1.122323e-08	5.661723e+01	7.371206e+02
1.590000e-06	7.891282e-06	1.123352e-08	5.674222e+01	7.377116e+02
1.600000e-06	7.905677e-06	1.124276e-08	5.684572e+01	7.381981e+02
1.610000e-06	7.916978e-06	1.125224e-08	5.692698e+01	7.385672e+02
1.620000e-06	7.925170e-06	1.125966e-08	5.698589e+01	7.388066e+02
1.630000e-06	7.930435e-06	1.126225e-08	5.702374e+01	7.389067e+02
1.640000e-06	7.932904e-06	1.126214e-08	5.704150e+01	7.388626e+02
1.650000e-06	7.932570e-06	1.126168e-08	5.703909e+01	7.386748e+02
1.660000e-06	7.929626e-06	1.125349e-08	5.701792e+01	7.383501e+02
1.670000e-06	7.924028e-06	1.124452e-08	5.697767e+01	7.379003e+02
1.680000e-06	7.915704e-06	1.123527e-08	5.691782e+01	7.373411e+02
1.690000e-06	7.904765e-06	1.122585e-08	5.683916e+01	7.366904e+02
1.700000e-06	7.891024e-06	1.121911e-08	5.674036e+01	7.359654e+02
1.710000e-06	7.874664e-06	1.121394e-08	5.662272e+01	7.351813e+02
1.720000e-06	7.856029e-06	1.120248e-08	5.648873e+01	7.343490e+02
1.730000e-06	7.835065e-06	1.115788e-08	5.633799e+01	7.334744e+02
1.740000e-06	7.811241e-06	1.109288e-08	5.616668e+01	7.325576e+02
1.750000e-06	7.783929e-06	1.110465e-08	5.597030e+01	7.315934e+02
1.760000e-06	7.753081e-06	1.111319e-08	5.574848e+01	7.305722e+02
1.770000e-06	7.719349e-06	1.109082e-08	5.550593e+01	7.294816e+02
1.780000e-06	7.683343e-06	1.109375e-08	5.524703e+01	7.283076e+02
1.790000e-06	7.645019e-06	1.113428e-08	5.497146e+01	7.270362e+02
1.800000e-06	7.604577e-06	1.108720e-08	5.468067e+01	7.256551e+02
1.810000e-06	7.562001e-06	1.103861e-08	5.437452e+01	7.241538e+02
1.820000e-06	7.516848e-06	1.108925e-08	5.404985e+01	7.225249e+02
1.830000e-06	7.469102e-06	1.100777e-08	5.370653e+01	7.207632e+02
1.840000e-06	7.418501e-06	1.100494e-08	5.334268e+01	7.188659e+02
1.850000e-06	7.364842e-06	1.095884e-08	5.295685e+01	7.168318e+02
1.860000e-06	7.308367e-06	1.090330e-08	5.255077e+01	7.146602e+02
1.870000e-06	7.249292e-06	1.090497e-08	5.212599e+01	7.123512e+02
1.880000e-06	7.187610e-06	1.080495e-08	5.168246e+01	7.099045e+02
1.890000e-06	7.123141e-06	1.082221e-08	5.121890e+01	7.073197e+02
1.900000e-06	7.055992e-06	1.076127e-08	5.073607e+01	7.045967e+02
1.910000e-06	6.986052e-06	1.068685e-08	5.023316e+01	7.017354e+02
1.920000e-06	6.913332e-06	1.067290e-08	4.971027e+01	6.987368e+02
1.930000e-06	6.838017e-06	1.062745e-08	4.916872e+01	6.956026e+02
1.940000e-06	6.759870e-06	1.060529e-08	4.860680e+01	6.923357e+02
1.950000e-06	6.679101e-06	1.051822e-08	4.802604e+01	6.889399e+02
1.960000e-06	6.596006e-06	1.047446e-08	4.742854e+01	6.854191e+02
1.970000e-06	6.510494e-06	1.040462e-08	4.681367e+01	6.817769e+02
1.980000e-06	6.422478e-06	1.033283e-08	4.618079e+01	6.780155e+02
1.990000e-06	6.332131e-06	1.030033e-08	4.553115e+01	6.741349e+02
2.000000e-06	6.239645e-06	1.024674e-08	4.486613e+01	6.701321e+02
2.010000e-06	6.144840e-06	1.018805e-08	4.418444e+01	6.660012e+02
2.020000e-06	6.047854e-06	1.008822e-08	4.348705e+01	6.617334e+02
2.030000e-06	5.948826e-06	1.001972e-08	4.277500e+01	6.573176e+02
2.040000e-06	5.847682e-06	9.950110e-09	4.204772e+01	6.527418e+02
2.050000e-06	5.744391e-06	9.890363e-09	4.130501e+01	6.479940e+02
2.060000e-06	5.639063e-06	9.818011e-09	4.054765e+01	6.430643e+02
2.070000e-06	5.531889e-06	9.736762e-09	3.977701e+01	6.379455e+02
2.080000e-06	5.422877e-06	9.656015e-09	3.899316e+01	6.326341e+02
2.090000e-06	5.311896e-06	9.562270e-09	3.819515e+01	6.271306e+02
2.100000e-06	5.198891e-06	9.475722e-09	3.738259e+01	6.214390e+02
2.110000e-06	5.083934e-06	9.395105e-09	3.655599e+01	6.155656e+02
2.120000e-06	4.966973e-06	9.309813e-09	3.571499e+01	6.095173e+02
2.130000e-06	4.848013e-06	9.202155e-09	3.485960e+01	6.032998e+02
2.140000e-06	4.727202e-06	9.105703e-09	3.399091e+01	5.969159e+02
2.150000e-06	4.604716e-06	9.013488e-09	3.311018e+01	5.903633e+02
2.160000e-06	4.480546e-06	8.916371e-09	3.221734e+01	5.836346e+02
2.170000e-06	4.354690e-06	8.800340e-09	3.131237e+01	5.767162e+02
2.180000e-06	4.227178e-06	8.686090e-09	3.039550e+01	5.695901e+02
2.190000e-06	4.098144e-06	8.577552e-09	2.946768e+01	5.622346e+02
2.200000e-06	3.967709e-06	8.462928e-09	2.852979e+01	5.546268e+02
2.210000e-06	3.835816e-06	8.346174e-09	2.758141e+01	5.467450e+02
2.220000e-06	3.702489e-06	8.226619e-09	2.662273e+01	5.385710e+02
2.230000e-06	3.567702e-06	8.091993e-09	2.565354e+01	5.300917e+02
2.240000e-06	3.431532e-06	7.945614e-09	2.467441e+01	5.213000e+02
2.250000e-06	3.294099e-06	7.809003e-09	2.368620e+01	5.121950e+02
2.260000e-06	3.155439e-06	7.679139e-09	2.268916e+01	5.027801e+02
2.270000e-06	3.015627e-06	7.540835e-09	2.168385e+01	4.930618e+02
2.280000e-06	2.874621e-06	7.384307e-09	2.066994e+01	4.830460e+02
2.290000e-06	2.732442e-06	7.224198e-09	1.964760e+01	4.727356e+02
2.300000e-06	2.589209e-06	7.060492e-09	1.861769e+01	4.621278e+02
2.310000e-06	2.445018e-06	6.893923e-09	1.758089e+01	4.512118e+02
2.320000e-06	2.300014e-06	6.725568e-09	1.653823e+01	4.399688e+02
2.330000e-06	2.154291e-06	6.548417e-09	1.549042e+01	4.283717e+02
2.340000e-06	2.007863e-06	6.359903e-09	1.443753e+01	4.163877e+02
2.350000e-06	1.860764e-06	6.165865e-09	1.337981e+01	4.039809e+02
2.360000e-06	1.713068e-06	5.972158e-09	1.231781e+01	3.911160e+02
2.370000e-06	1.564813e-06	5.772255e-09	1.125178e+01	3.777618e+02
2.380000e-06	1.416019e-06	5.561133e-09	1.018188e+01	3.638945e+02
2.390000e-06	1.266742e-06	5.340634e-09	9.108504e+00	3.494989e+02
2.400000e-06	1.117013e-06	5.111798e-09	8.031873e+00	3.345691e+02
2.410000e-06	9.668721e-07	4.876389e-09	6.952288e+00	3.191062e+02
2.420000e-06	8.164769e-07	4.637082e-09	5.870872e+00	3.031145e+02
2.430000e-06	6.658691e-07	4.387897e-09	4.787928e+00	2.865969e+02
2.440000e-06	5.150102e-07	4.124309e-09	3.703178e+00	2.695487e+02
2.450000e-06	3.639820e-07	3.852441e-09	2.617211e+00	2.519516e+02
2.460000e-06	2.127652e-07	3.576298e-09	1.529887e+00	2.337696e+02
2.470000e-06	6.139680e-08	3.291649e-09	4.414733e-01	2.149464e+02
2.480000e-06	-9.001877e-08	2.990975e-09	-6.472794e-01	1.954051e+02
2.490000e-06	-2.414274e-07	2.674894e-09	-1.735982e+00	1.750528e+02
2.500000e-06	-3.927367e-07	2.347126e-09	-2.823971e+00	1.537868e+02
2.510000e-06	-5.439077e-07	2.006748e-09	-3.910965e+00	1.315049e+02
2.520000e-06	-6.949195e-07	1.651684e-09	-4.996815e+00	1.081170e+02
2.530000e-06	-8.457429e-07	1.281868e-09	-6.081309e+00	8.355897e+01
2.540000e-06	-9.963450e-07	8.949962e-10	-7.164213e+00	5.780416e+01
2.550000e-06	-1.146624e-06	4.876569e-10	-8.244791e+00	3.087464e+01
2.560000e-06	-1.296472e-06	6.308102e-11	-9.322272e+00	2.848260e+00
2.570000e-06	-1.445775e-06	-3.751140e-10	-1.039584e+01	-2.613847e+01
2.580000e-06	-1.594483e-06	-8.279212e-10	-1.146512e+01	-5.589243e+01
2.590000e-06	-1.742590e-06	-1.294979e-09	-1.253008e+01	-8.617109e+01
2.600000e-06	-1.890061e-06	-1.770426e-09	-1.359047e+01	-1.166944e+02
2.610000e-06	-2.036882e-06	-2.245885e-09	-1.464619e+01	-1.471601e+02
2.620000e-06	-2.182990e-06	-2.712540e-09	-1.569677e+01	-1.772616e+02
2.630000e-06	-2.328249e-06	-3.163619e-09	-1.674126e+01	-2.067062e+02
2.640000e-06	-2.472595e-06	-3.596347e-09	-1.777918e+01	-2.352322e+02
2.650000e-06	-2.616009e-06	-4.010835e-09	-1.881040e+01	-2.626228e+02
2.660000e-06	-2.758403e-06	-4.406379e-09	-1.983428e+01	-2.887170e+02
2.670000e-06	-2.899641e-06	-4.780212e-09	-2.084985e+01	-3.134141e+02
2.680000e-06	-3.039617e-06	-5.131143e-09	-2.185635e+01	-3.366741e+02
2.690000e-06	-3.178341e-06	-5.462379e-09	-2.285384e+01	-3.585123e+02
2.700000e-06	-3.315846e-06	-5.775596e-09	-2.384257e+01	-3.789910e+02
2.710000e-06	-3.452148e-06	-6.071031e-09	-2.482265e+01	-3.982063e+02
2.720000e-06	-3.587245e-06	-6.349283e-09	-2.579406e+01	-4.162757e+02
2.730000e-06	-3.721062e-06	-6.612130e-09	-2.675628e+01	-4.333234e+02
2.740000e-06	-3.853483e-06	-6.861296e-09	-2.770844e+01	-4.494691e+02
2.750000e-06	-3.984537e-06	-7.098148e-09	-2.865079e+01	-4.648183e+02
2.760000e-06	-4.114261e-06	-7.326383e-09	-2.958357e+01	-4.794556e+02
2.770000e-06	-4.242545e-06	-7.544608e-09	-3.050599e+01	-4.934427e+02
2.780000e-06	-4.369335e-06	-7.749571e-09	-3.141768e+01	-5.068189e+02
2.790000e-06	-4.494576e-06	-7.941751e-09	-3.231822e+01	-5.196047e+02
2.800000e-06	-4.618230e-06	-8.122944e-09	-3.320735e+01	-5.318073e+02
2.810000e-06	-4.740282e-06	-8.296782e-09	-3.408497e+01	-5.434271e+02
2.820000e-06	-4.860645e-06	-8.462509e-09	-3.495044e+01	-5.544643e+02
2.830000e-06	-4.979188e-06	-8.619122e-09	-3.580282e+01	-5.649235e+02
2.840000e-06	-5.095688e-06	-8.769105e-09	-3.664052e+01	-5.748179e+02
2.850000e-06	-5.210066e-06	-8.913666e-09	-3.746295e+01	-5.841706e+02
2.860000e-06	-5.322365e-06	-9.054063e-09	-3.827043e+01	-5.930143e+02
2.870000e-06	-5.432660e-06	-9.186277e-09	-3.906350e+01	-6.013888e+02
2.880000e-06	-5.541047e-06	-9.309069e-09	-3.984286e+01	-6.093380e+02
2.890000e-06	-5.647546e-06	-9.426558e-09	-4.060865e+01	-6.169055e+02
2.900000e-06	-5.752053e-06	-9.537973e-09	-4.136010e+01	-6.241313e+02
2.910000e-06	-5.854368e-06	-9.641114e-09	-4.209580e+01	-6.310485e+02
2.920000e-06	-5.954474e-06	-9.738751e-09	-4.281561e+01	-6.376817e+02
2.930000e-06	-6.052494e-06	-9.834354e-09	-4.352042e+01	-6.440463e+02
2.940000e-06	-6.148411e-06	-9.928944e-09	-4.421011e+01	-6.501496e+02
