# Temperatura_=_33.3
# Concentracion g/m^3_=_10000.0
# C_Vs_to_Am_M_A/Vsm_=_65563218390.804596
# pendiente_HvsI_1/m_=_3716.3
# ordenada_HvsI_A/m_=_1297.0
# frecuencia_Hz_=_302551.7275337915

Tiempo_(s)	Campo_(V.s)	Magnetizacion_(V.s)	Campo_(kA/m)	Magnetizacion_(A/m)
0.000000e+00	-7.913077e-06	-1.097836e-08	-5.684804e+01	-7.200196e+02
1.000000e-08	-7.909406e-06	-1.097724e-08	-5.682167e+01	-7.197148e+02
2.000000e-08	-7.903117e-06	-1.097352e-08	-5.677649e+01	-7.192918e+02
3.000000e-08	-7.894192e-06	-1.097036e-08	-5.671237e+01	-7.187620e+02
4.000000e-08	-7.882462e-06	-1.096425e-08	-5.662811e+01	-7.181388e+02
5.000000e-08	-7.867763e-06	-1.095314e-08	-5.652251e+01	-7.174369e+02
6.000000e-08	-7.850243e-06	-1.094212e-08	-5.639664e+01	-7.166699e+02
7.000000e-08	-7.830417e-06	-1.092918e-08	-5.625421e+01	-7.158494e+02
8.000000e-08	-7.808259e-06	-1.093452e-08	-5.609502e+01	-7.149834e+02
9.000000e-08	-7.783146e-06	-1.096622e-08	-5.591461e+01	-7.140762e+02
1.000000e-07	-7.754819e-06	-1.092998e-08	-5.571111e+01	-7.131274e+02
1.100000e-07	-7.723547e-06	-1.087251e-08	-5.548645e+01	-7.121327e+02
1.200000e-07	-7.689494e-06	-1.084980e-08	-5.524181e+01	-7.110843e+02
1.300000e-07	-7.652810e-06	-1.082929e-08	-5.497827e+01	-7.099718e+02
1.400000e-07	-7.613874e-06	-1.078977e-08	-5.469855e+01	-7.087832e+02
1.500000e-07	-7.572876e-06	-1.074833e-08	-5.440402e+01	-7.075060e+02
1.600000e-07	-7.529492e-06	-1.077940e-08	-5.409235e+01	-7.061280e+02
1.700000e-07	-7.483386e-06	-1.071448e-08	-5.376112e+01	-7.046377e+02
1.800000e-07	-7.434579e-06	-1.064871e-08	-5.341048e+01	-7.030255e+02
1.900000e-07	-7.382835e-06	-1.070641e-08	-5.303875e+01	-7.012828e+02
2.000000e-07	-7.328132e-06	-1.065230e-08	-5.264576e+01	-6.994034e+02
2.100000e-07	-7.270740e-06	-1.062307e-08	-5.223345e+01	-6.973821e+02
2.200000e-07	-7.210695e-06	-1.061635e-08	-5.180209e+01	-6.952157e+02
2.300000e-07	-7.148084e-06	-1.055423e-08	-5.135229e+01	-6.929023e+02
2.400000e-07	-7.082821e-06	-1.050058e-08	-5.088343e+01	-6.904413e+02
2.500000e-07	-7.014780e-06	-1.044540e-08	-5.039462e+01	-6.878338e+02
2.600000e-07	-6.944007e-06	-1.043485e-08	-4.988619e+01	-6.850819e+02
2.700000e-07	-6.870500e-06	-1.038276e-08	-4.935810e+01	-6.821893e+02
2.800000e-07	-6.794280e-06	-1.032569e-08	-4.881054e+01	-6.791605e+02
2.900000e-07	-6.715312e-06	-1.027639e-08	-4.824323e+01	-6.760006e+02
3.000000e-07	-6.633672e-06	-1.023979e-08	-4.765672e+01	-6.727151e+02
3.100000e-07	-6.549715e-06	-1.020158e-08	-4.705356e+01	-6.693085e+02
3.200000e-07	-6.463551e-06	-1.012722e-08	-4.643456e+01	-6.657845e+02
3.300000e-07	-6.375093e-06	-1.008891e-08	-4.579907e+01	-6.621446e+02
3.400000e-07	-6.284309e-06	-1.004245e-08	-4.514687e+01	-6.583878e+02
3.500000e-07	-6.191275e-06	-9.977856e-09	-4.447851e+01	-6.545105e+02
3.600000e-07	-6.096052e-06	-9.913759e-09	-4.379442e+01	-6.505063e+02
3.700000e-07	-5.998622e-06	-9.857037e-09	-4.309448e+01	-6.463665e+02
3.800000e-07	-5.898978e-06	-9.786199e-09	-4.237863e+01	-6.420808e+02
3.900000e-07	-5.797177e-06	-9.701018e-09	-4.164728e+01	-6.376384e+02
4.000000e-07	-5.693343e-06	-9.636992e-09	-4.090133e+01	-6.330292e+02
4.100000e-07	-5.587515e-06	-9.570947e-09	-4.014106e+01	-6.282447e+02
4.200000e-07	-5.479665e-06	-9.498541e-09	-3.936626e+01	-6.232788e+02
4.300000e-07	-5.369855e-06	-9.411966e-09	-3.857738e+01	-6.181284e+02
4.400000e-07	-5.258149e-06	-9.332797e-09	-3.777487e+01	-6.127933e+02
4.500000e-07	-5.144452e-06	-9.253942e-09	-3.695807e+01	-6.072759e+02
4.600000e-07	-5.028727e-06	-9.168099e-09	-3.612669e+01	-6.015795e+02
4.700000e-07	-4.911058e-06	-9.081012e-09	-3.528135e+01	-5.957077e+02
4.800000e-07	-4.791591e-06	-8.994743e-09	-3.442309e+01	-5.896626e+02
4.900000e-07	-4.670358e-06	-8.901633e-09	-3.355215e+01	-5.834433e+02
5.000000e-07	-4.547399e-06	-8.793224e-09	-3.266880e+01	-5.770452e+02
5.100000e-07	-4.422831e-06	-8.686104e-09	-3.177390e+01	-5.704591e+02
5.200000e-07	-4.296614e-06	-8.582515e-09	-3.086714e+01	-5.636717e+02
5.300000e-07	-4.168821e-06	-8.478352e-09	-2.994907e+01	-5.566661e+02
5.400000e-07	-4.039576e-06	-8.362816e-09	-2.902057e+01	-5.494234e+02
5.500000e-07	-3.908829e-06	-8.247464e-09	-2.808127e+01	-5.419244e+02
5.600000e-07	-3.776536e-06	-8.135538e-09	-2.713087e+01	-5.341516e+02
5.700000e-07	-3.642744e-06	-8.019289e-09	-2.616970e+01	-5.260905e+02
5.800000e-07	-3.507582e-06	-7.890837e-09	-2.519869e+01	-5.177315e+02
5.900000e-07	-3.371134e-06	-7.756991e-09	-2.421844e+01	-5.090696e+02
6.000000e-07	-3.233405e-06	-7.622255e-09	-2.322898e+01	-5.001044e+02
6.100000e-07	-3.094323e-06	-7.479212e-09	-2.222981e+01	-4.908391e+02
6.200000e-07	-2.953869e-06	-7.330886e-09	-2.122078e+01	-4.812780e+02
6.300000e-07	-2.812172e-06	-7.178636e-09	-2.020282e+01	-4.714248e+02
6.400000e-07	-2.669328e-06	-7.022971e-09	-1.917662e+01	-4.612794e+02
6.500000e-07	-2.525459e-06	-6.858600e-09	-1.814306e+01	-4.508365e+02
6.600000e-07	-2.380788e-06	-6.692822e-09	-1.710373e+01	-4.400838e+02
6.700000e-07	-2.235288e-06	-6.527879e-09	-1.605845e+01	-4.290016e+02
6.800000e-07	-2.088921e-06	-6.357833e-09	-1.500694e+01	-4.175635e+02
6.900000e-07	-1.941868e-06	-6.179020e-09	-1.395050e+01	-4.057382e+02
7.000000e-07	-1.794242e-06	-5.988619e-09	-1.288995e+01	-3.934923e+02
7.100000e-07	-1.646071e-06	-5.791236e-09	-1.182548e+01	-3.807931e+02
7.200000e-07	-1.497428e-06	-5.587548e-09	-1.075761e+01	-3.676121e+02
7.300000e-07	-1.348380e-06	-5.380298e-09	-9.686845e+00	-3.539272e+02
7.400000e-07	-1.198903e-06	-5.164377e-09	-8.612997e+00	-3.397245e+02
7.500000e-07	-1.048972e-06	-4.940467e-09	-7.535884e+00	-3.249981e+02
7.600000e-07	-8.986279e-07	-4.712396e-09	-6.455799e+00	-3.097487e+02
7.700000e-07	-7.479650e-07	-4.476062e-09	-5.373428e+00	-2.939805e+02
7.800000e-07	-5.970903e-07	-4.229396e-09	-4.289535e+00	-2.776967e+02
7.900000e-07	-4.459872e-07	-3.972588e-09	-3.204000e+00	-2.608947e+02
8.000000e-07	-2.946765e-07	-3.709092e-09	-2.116974e+00	-2.435610e+02
8.100000e-07	-1.432818e-07	-3.434838e-09	-1.029345e+00	-2.256673e+02
8.200000e-07	8.186599e-09	-3.148328e-09	5.881304e-02	-2.071682e+02
8.300000e-07	1.597247e-07	-2.851816e-09	1.147473e+00	-1.880012e+02
8.400000e-07	3.112287e-07	-2.546852e-09	2.235887e+00	-1.680895e+02
8.500000e-07	4.626717e-07	-2.230385e-09	3.323863e+00	-1.473476e+02
8.600000e-07	6.140092e-07	-1.899516e-09	4.411081e+00	-1.256894e+02
8.700000e-07	7.651078e-07	-1.554601e-09	5.496583e+00	-1.030387e+02
8.800000e-07	9.159534e-07	-1.196850e-09	6.580267e+00	-7.933961e+01
8.900000e-07	1.066504e-06	-8.228771e-10	7.661830e+00	-5.456774e+01
9.000000e-07	1.216636e-06	-4.288093e-10	8.740392e+00	-2.873935e+01
9.100000e-07	1.366309e-06	-1.961793e-11	9.815648e+00	-1.918097e+00
9.200000e-07	1.515490e-06	4.021434e-10	1.088738e+01	2.578184e+01
9.300000e-07	1.664190e-06	8.343091e-10	1.195564e+01	5.419676e+01
9.400000e-07	1.812349e-06	1.274433e-09	1.302003e+01	8.311881e+01
9.500000e-07	1.959862e-06	1.718536e-09	1.407977e+01	1.123053e+02
9.600000e-07	2.106678e-06	2.164642e-09	1.513450e+01	1.414914e+02
9.700000e-07	2.252696e-06	2.607190e-09	1.618351e+01	1.704050e+02
9.800000e-07	2.397863e-06	3.038226e-09	1.722640e+01	1.987818e+02
9.900000e-07	2.542203e-06	3.455967e-09	1.826334e+01	2.263813e+02
1.000000e-06	2.685590e-06	3.858124e-09	1.929345e+01	2.529985e+02
1.010000e-06	2.827836e-06	4.242495e-09	2.031535e+01	2.784746e+02
1.020000e-06	2.968937e-06	4.608680e-09	2.132903e+01	3.027021e+02
1.030000e-06	3.108832e-06	4.956664e-09	2.233404e+01	3.256263e+02
1.040000e-06	3.247456e-06	5.284989e-09	2.332993e+01	3.472423e+02
1.050000e-06	3.384813e-06	5.594585e-09	2.431671e+01	3.675882e+02
1.060000e-06	3.520903e-06	5.886954e-09	2.529439e+01	3.867358e+02
1.070000e-06	3.655655e-06	6.162641e-09	2.626246e+01	4.047792e+02
1.080000e-06	3.789095e-06	6.422862e-09	2.722110e+01	4.218230e+02
1.090000e-06	3.921162e-06	6.667642e-09	2.816987e+01	4.379720e+02
1.100000e-06	4.051738e-06	6.902657e-09	2.910794e+01	4.533219e+02
1.110000e-06	4.180953e-06	7.129504e-09	3.003623e+01	4.679528e+02
1.120000e-06	4.308742e-06	7.346117e-09	3.095428e+01	4.819264e+02
1.130000e-06	4.435025e-06	7.549804e-09	3.186150e+01	4.952848e+02
1.140000e-06	4.559863e-06	7.739047e-09	3.275834e+01	5.080529e+02
1.150000e-06	4.683048e-06	7.918474e-09	3.364331e+01	5.202425e+02
1.160000e-06	4.804525e-06	8.090036e-09	3.451601e+01	5.318574e+02
1.170000e-06	4.924367e-06	8.256146e-09	3.537696e+01	5.428988e+02
1.180000e-06	5.042372e-06	8.416711e-09	3.622472e+01	5.533702e+02
1.190000e-06	5.158417e-06	8.569722e-09	3.705839e+01	5.632812e+02
1.200000e-06	5.272485e-06	8.714621e-09	3.787787e+01	5.726495e+02
1.210000e-06	5.384521e-06	8.852922e-09	3.868274e+01	5.815016e+02
1.220000e-06	5.494624e-06	8.984937e-09	3.947373e+01	5.898715e+02
1.230000e-06	5.602858e-06	9.108251e-09	4.025129e+01	5.977983e+02
1.240000e-06	5.709052e-06	9.221204e-09	4.101419e+01	6.053233e+02
1.250000e-06	5.813109e-06	9.327205e-09	4.176174e+01	6.124867e+02
1.260000e-06	5.915034e-06	9.429604e-09	4.249398e+01	6.193242e+02
1.270000e-06	6.014792e-06	9.528889e-09	4.321065e+01	6.258656e+02
1.280000e-06	6.112265e-06	9.624033e-09	4.391090e+01	6.321328e+02
1.290000e-06	6.207489e-06	9.714186e-09	4.459499e+01	6.381402e+02
1.300000e-06	6.300506e-06	9.800120e-09	4.526323e+01	6.438958e+02
1.310000e-06	6.391261e-06	9.883588e-09	4.591522e+01	6.494025e+02
1.320000e-06	6.479660e-06	9.965407e-09	4.655028e+01	6.546606e+02
1.330000e-06	6.565771e-06	1.004230e-08	4.716891e+01	6.596699e+02
1.340000e-06	6.649632e-06	1.011317e-08	4.777137e+01	6.644315e+02
1.350000e-06	6.731066e-06	1.017851e-08	4.835640e+01	6.689490e+02
1.360000e-06	6.810036e-06	1.024084e-08	4.892373e+01	6.732293e+02
1.370000e-06	6.886498e-06	1.030387e-08	4.947304e+01	6.772820e+02
1.380000e-06	6.960299e-06	1.036679e-08	5.000323e+01	6.811185e+02
1.390000e-06	7.031564e-06	1.042642e-08	5.051520e+01	6.847510e+02
1.400000e-06	7.100449e-06	1.048049e-08	5.101008e+01	6.881906e+02
1.410000e-06	7.166755e-06	1.053089e-08	5.148642e+01	6.914463e+02
1.420000e-06	7.230397e-06	1.057880e-08	5.194363e+01	6.945240e+02
1.430000e-06	7.291592e-06	1.062187e-08	5.238326e+01	6.974260e+02
1.440000e-06	7.350376e-06	1.066062e-08	5.280557e+01	7.001518e+02
1.450000e-06	7.406568e-06	1.069608e-08	5.320925e+01	7.026984e+02
1.460000e-06	7.460019e-06	1.072887e-08	5.359325e+01	7.050622e+02
1.470000e-06	7.510502e-06	1.076072e-08	5.395592e+01	7.072402e+02
1.480000e-06	7.558014e-06	1.079174e-08	5.429725e+01	7.092313e+02
1.490000e-06	7.602851e-06	1.082118e-08	5.461936e+01	7.110380e+02
1.500000e-06	7.644980e-06	1.084862e-08	5.492202e+01	7.126664e+02
1.510000e-06	7.684240e-06	1.087216e-08	5.520407e+01	7.141266e+02
1.520000e-06	7.720818e-06	1.089169e-08	5.546684e+01	7.154314e+02
1.530000e-06	7.754702e-06	1.090925e-08	5.571027e+01	7.165960e+02
1.540000e-06	7.785793e-06	1.092571e-08	5.593363e+01	7.176356e+02
1.550000e-06	7.814211e-06	1.094085e-08	5.613779e+01	7.185640e+02
1.560000e-06	7.839775e-06	1.095407e-08	5.632144e+01	7.193924e+02
1.570000e-06	7.862425e-06	1.096511e-08	5.648416e+01	7.201278e+02
1.580000e-06	7.882363e-06	1.097508e-08	5.662740e+01	7.207727e+02
1.590000e-06	7.899452e-06	1.098443e-08	5.675016e+01	7.213251e+02
1.600000e-06	7.913556e-06	1.099364e-08	5.685148e+01	7.217795e+02
1.610000e-06	7.924554e-06	1.100175e-08	5.693049e+01	7.221279e+02
1.620000e-06	7.932479e-06	1.100668e-08	5.698743e+01	7.223615e+02
1.630000e-06	7.937637e-06	1.100905e-08	5.702449e+01	7.224724e+02
1.640000e-06	7.940006e-06	1.100911e-08	5.704150e+01	7.224552e+02
1.650000e-06	7.939525e-06	1.100573e-08	5.703805e+01	7.223081e+02
1.660000e-06	7.936453e-06	1.099593e-08	5.701598e+01	7.220336e+02
1.670000e-06	7.930796e-06	1.098945e-08	5.697534e+01	7.216386e+02
1.680000e-06	7.922452e-06	1.098518e-08	5.691540e+01	7.211336e+02
1.690000e-06	7.911413e-06	1.097946e-08	5.683609e+01	7.205318e+02
1.700000e-06	7.897527e-06	1.097341e-08	5.673633e+01	7.198476e+02
1.710000e-06	7.881005e-06	1.096656e-08	5.661764e+01	7.190950e+02
1.720000e-06	7.862229e-06	1.095299e-08	5.648275e+01	7.182863e+02
1.730000e-06	7.841089e-06	1.089152e-08	5.633088e+01	7.174306e+02
1.740000e-06	7.817000e-06	1.083663e-08	5.615782e+01	7.165329e+02
1.750000e-06	7.789423e-06	1.086366e-08	5.595970e+01	7.155940e+02
1.760000e-06	7.758347e-06	1.086841e-08	5.573645e+01	7.146108e+02
1.770000e-06	7.724448e-06	1.084475e-08	5.549292e+01	7.135761e+02
1.780000e-06	7.688263e-06	1.085824e-08	5.523297e+01	7.124800e+02
1.790000e-06	7.649744e-06	1.088703e-08	5.495624e+01	7.113110e+02
1.800000e-06	7.609152e-06	1.079651e-08	5.466463e+01	7.100565e+02
1.810000e-06	7.566385e-06	1.081561e-08	5.435739e+01	7.087041e+02
1.820000e-06	7.520944e-06	1.086663e-08	5.403094e+01	7.072423e+02
1.830000e-06	7.472885e-06	1.078234e-08	5.368568e+01	7.056607e+02
1.840000e-06	7.422018e-06	1.081048e-08	5.332025e+01	7.039507e+02
1.850000e-06	7.368190e-06	1.070448e-08	5.293354e+01	7.021054e+02
1.860000e-06	7.311574e-06	1.065608e-08	5.252681e+01	7.001193e+02
1.870000e-06	7.252259e-06	1.065253e-08	5.210068e+01	6.979888e+02
1.880000e-06	7.190333e-06	1.059999e-08	5.165580e+01	6.957115e+02
1.890000e-06	7.125652e-06	1.064995e-08	5.119113e+01	6.932868e+02
1.900000e-06	7.058242e-06	1.055238e-08	5.070686e+01	6.907151e+02
1.910000e-06	6.988048e-06	1.050189e-08	5.020258e+01	6.879984e+02
1.920000e-06	6.915082e-06	1.047429e-08	4.967838e+01	6.851400e+02
1.930000e-06	6.839559e-06	1.042758e-08	4.913582e+01	6.821441e+02
1.940000e-06	6.761258e-06	1.039748e-08	4.857330e+01	6.790158e+02
1.950000e-06	6.680308e-06	1.031180e-08	4.799175e+01	6.757606e+02
1.960000e-06	6.596977e-06	1.029434e-08	4.739310e+01	6.723832e+02
1.970000e-06	6.511179e-06	1.020819e-08	4.677672e+01	6.688877e+02
1.980000e-06	6.422919e-06	1.014146e-08	4.614265e+01	6.652761e+02
1.990000e-06	6.332428e-06	1.010830e-08	4.549256e+01	6.615482e+02
2.000000e-06	6.239791e-06	1.005116e-08	4.482705e+01	6.577009e+02
2.010000e-06	6.144817e-06	9.986408e-09	4.414475e+01	6.537285e+02
2.020000e-06	6.047641e-06	9.909763e-09	4.344663e+01	6.496228e+02
2.030000e-06	5.948385e-06	9.865496e-09	4.273357e+01	6.453739e+02
2.040000e-06	5.847040e-06	9.791502e-09	4.200550e+01	6.409711e+02
2.050000e-06	5.743527e-06	9.712129e-09	4.126186e+01	6.364039e+02
2.060000e-06	5.637949e-06	9.626453e-09	4.050338e+01	6.316632e+02
2.070000e-06	5.530486e-06	9.558435e-09	3.973136e+01	6.267424e+02
2.080000e-06	5.421048e-06	9.484713e-09	3.894515e+01	6.216376e+02
2.090000e-06	5.309681e-06	9.409489e-09	3.814508e+01	6.163480e+02
2.100000e-06	5.196398e-06	9.337721e-09	3.733125e+01	6.108751e+02
2.110000e-06	5.081158e-06	9.250115e-09	3.650336e+01	6.052225e+02
2.120000e-06	4.963909e-06	9.150837e-09	3.566104e+01	5.993936e+02
2.130000e-06	4.844704e-06	9.048080e-09	3.480466e+01	5.933912e+02
2.140000e-06	4.723709e-06	8.963015e-09	3.393542e+01	5.872151e+02
2.150000e-06	4.601012e-06	8.872121e-09	3.305396e+01	5.808617e+02
2.160000e-06	4.476631e-06	8.773430e-09	3.216040e+01	5.743231e+02
2.170000e-06	4.350633e-06	8.666370e-09	3.125522e+01	5.675868e+02
2.180000e-06	4.222998e-06	8.564474e-09	3.033829e+01	5.606368e+02
2.190000e-06	4.093795e-06	8.455439e-09	2.941008e+01	5.534546e+02
2.200000e-06	3.963073e-06	8.340042e-09	2.847096e+01	5.460208e+02
2.210000e-06	3.830860e-06	8.221566e-09	2.752114e+01	5.383173e+02
2.220000e-06	3.697286e-06	8.100099e-09	2.656153e+01	5.303288e+02
2.230000e-06	3.562368e-06	7.970470e-09	2.559227e+01	5.220442e+02
2.240000e-06	3.426116e-06	7.834922e-09	2.461343e+01	5.134576e+02
2.250000e-06	3.288536e-06	7.702367e-09	2.362505e+01	5.045674e+02
2.260000e-06	3.149679e-06	7.565938e-09	2.262749e+01	4.953760e+02
2.270000e-06	3.009639e-06	7.423945e-09	2.162144e+01	4.858879e+02
2.280000e-06	2.868419e-06	7.275285e-09	2.060690e+01	4.761069e+02
2.290000e-06	2.726007e-06	7.127932e-09	1.958381e+01	4.660341e+02
2.300000e-06	2.582587e-06	6.974578e-09	1.855347e+01	4.556659e+02
2.310000e-06	2.438266e-06	6.812535e-09	1.751665e+01	4.449916e+02
2.320000e-06	2.293124e-06	6.640888e-09	1.647395e+01	4.339933e+02
2.330000e-06	2.147260e-06	6.460265e-09	1.542605e+01	4.226463e+02
2.340000e-06	2.000631e-06	6.275229e-09	1.437266e+01	4.109203e+02
2.350000e-06	1.853243e-06	6.088780e-09	1.331381e+01	3.987820e+02
2.360000e-06	1.705253e-06	5.901128e-09	1.225064e+01	3.861984e+02
2.370000e-06	1.556826e-06	5.704292e-09	1.118433e+01	3.731396e+02
2.380000e-06	1.407918e-06	5.498243e-09	1.011457e+01	3.595817e+02
2.390000e-06	1.258455e-06	5.283447e-09	9.040817e+00	3.455086e+02
2.400000e-06	1.108550e-06	5.059459e-09	7.963895e+00	3.309127e+02
2.410000e-06	9.583165e-07	4.829285e-09	6.884606e+00	3.157931e+02
2.420000e-06	8.077701e-07	4.593634e-09	5.803071e+00	3.001535e+02
2.430000e-06	6.569944e-07	4.347713e-09	4.719889e+00	2.839979e+02
2.440000e-06	5.060347e-07	4.090667e-09	3.635385e+00	2.673255e+02
2.450000e-06	3.548758e-07	3.827886e-09	2.549450e+00	2.501261e+02
2.460000e-06	2.035675e-07	3.558615e-09	1.462442e+00	2.323754e+02
2.470000e-06	5.217727e-08	3.278962e-09	3.748448e-01	2.140322e+02
2.480000e-06	-9.926774e-08	2.986640e-09	-7.131457e-01	1.950383e+02
2.490000e-06	-2.507312e-07	2.682478e-09	-1.801269e+00	1.753199e+02
2.500000e-06	-4.021343e-07	2.366665e-09	-2.888958e+00	1.547931e+02
2.510000e-06	-5.534418e-07	2.038773e-09	-3.975961e+00	1.333710e+02
2.520000e-06	-7.045572e-07	1.697902e-09	-5.061583e+00	1.109741e+02
2.530000e-06	-8.554157e-07	1.342634e-09	-6.145361e+00	8.754011e+01
2.540000e-06	-1.006006e-06	9.711701e-10	-7.227209e+00	6.303600e+01
2.550000e-06	-1.156282e-06	5.848866e-10	-8.306802e+00	3.746707e+01
2.560000e-06	-1.306181e-06	1.863083e-10	-9.383687e+00	1.088468e+01
2.570000e-06	-1.455585e-06	-2.260200e-10	-1.045701e+01	-1.660969e+01
2.580000e-06	-1.604447e-06	-6.560964e-10	-1.152645e+01	-4.486440e+01
2.590000e-06	-1.752787e-06	-1.103181e-09	-1.259213e+01	-7.368190e+01
2.600000e-06	-1.900505e-06	-1.559106e-09	-1.365335e+01	-1.028271e+02
2.610000e-06	-2.047401e-06	-2.015562e-09	-1.470866e+01	-1.320395e+02
2.620000e-06	-2.193471e-06	-2.465342e-09	-1.575803e+01	-1.610471e+02
2.630000e-06	-2.338791e-06	-2.902942e-09	-1.680202e+01	-1.895825e+02
2.640000e-06	-2.483260e-06	-3.325510e-09	-1.783990e+01	-2.173978e+02
2.650000e-06	-2.626683e-06	-3.733462e-09	-1.887026e+01	-2.442780e+02
2.660000e-06	-2.769039e-06	-4.124224e-09	-1.989295e+01	-2.700522e+02
2.670000e-06	-2.910334e-06	-4.494162e-09	-2.090803e+01	-2.945997e+02
2.680000e-06	-3.050479e-06	-4.843238e-09	-2.191483e+01	-3.178527e+02
2.690000e-06	-3.189331e-06	-5.175159e-09	-2.291236e+01	-3.397943e+02
2.700000e-06	-3.326951e-06	-5.493474e-09	-2.390102e+01	-3.604528e+02
2.710000e-06	-3.463392e-06	-5.794698e-09	-2.488123e+01	-3.798924e+02
2.720000e-06	-3.598477e-06	-6.076719e-09	-2.585168e+01	-3.982029e+02
2.730000e-06	-3.732246e-06	-6.341443e-09	-2.681269e+01	-4.154872e+02
2.740000e-06	-3.864753e-06	-6.592657e-09	-2.776463e+01	-4.318511e+02
2.750000e-06	-3.995858e-06	-6.832883e-09	-2.870649e+01	-4.473932e+02
2.760000e-06	-4.125631e-06	-7.062503e-09	-2.963879e+01	-4.621980e+02
2.770000e-06	-4.254018e-06	-7.280365e-09	-3.056113e+01	-4.763319e+02
2.780000e-06	-4.380835e-06	-7.485941e-09	-3.147220e+01	-4.898418e+02
2.790000e-06	-4.506200e-06	-7.680862e-09	-3.237282e+01	-5.027565e+02
2.800000e-06	-4.629970e-06	-7.865972e-09	-3.326200e+01	-5.150908e+02
2.810000e-06	-4.752052e-06	-8.043842e-09	-3.413904e+01	-5.268499e+02
2.820000e-06	-4.872468e-06	-8.213827e-09	-3.500412e+01	-5.380351e+02
2.830000e-06	-4.991006e-06	-8.373391e-09	-3.585570e+01	-5.486491e+02
2.840000e-06	-5.107533e-06	-8.524812e-09	-3.669284e+01	-5.586995e+02
2.850000e-06	-5.221955e-06	-8.671525e-09	-3.751485e+01	-5.682020e+02
2.860000e-06	-5.334270e-06	-8.813956e-09	-3.832173e+01	-5.771809e+02
2.870000e-06	-5.444521e-06	-8.946824e-09	-3.911378e+01	-5.856684e+02
2.880000e-06	-5.552834e-06	-9.069417e-09	-3.989191e+01	-5.937028e+02
2.890000e-06	-5.659321e-06	-9.185306e-09	-4.065692e+01	-6.013250e+02
2.900000e-06	-5.763813e-06	-9.295318e-09	-4.140759e+01	-6.085759e+02
2.910000e-06	-5.866120e-06	-9.399660e-09	-4.214257e+01	-6.154925e+02
2.920000e-06	-5.966181e-06	-9.499721e-09	-4.286142e+01	-6.221062e+02
2.930000e-06	-6.064113e-06	-9.597070e-09	-4.356497e+01	-6.284409e+02
2.940000e-06	-6.159917e-06	-9.691209e-09	-4.425323e+01	-6.345129e+02
