# Temperatura_=_60.81
# Concentracion g/m^3_=_10000.0
# C_Vs_to_Am_M_A/Vsm_=_65563218390.804596
# pendiente_HvsI_1/m_=_3716.3
# ordenada_HvsI_A/m_=_1297.0
# frecuencia_Hz_=_302550.3670213151

Tiempo_(s)	Campo_(V.s)	Magnetizacion_(V.s)	Campo_(kA/m)	Magnetizacion_(A/m)
0.000000e+00	-7.916556e-06	-1.181371e-08	-5.685022e+01	-7.744757e+02
1.000000e-08	-7.912744e-06	-1.180879e-08	-5.682284e+01	-7.740999e+02
2.000000e-08	-7.906361e-06	-1.180392e-08	-5.677701e+01	-7.735972e+02
3.000000e-08	-7.897405e-06	-1.179871e-08	-5.671269e+01	-7.729803e+02
4.000000e-08	-7.885616e-06	-1.178906e-08	-5.662803e+01	-7.722626e+02
5.000000e-08	-7.870855e-06	-1.177611e-08	-5.652203e+01	-7.714567e+02
6.000000e-08	-7.853326e-06	-1.176286e-08	-5.639616e+01	-7.705728e+02
7.000000e-08	-7.833457e-06	-1.174882e-08	-5.625347e+01	-7.696181e+02
8.000000e-08	-7.811206e-06	-1.175219e-08	-5.609368e+01	-7.685962e+02
9.000000e-08	-7.786006e-06	-1.177134e-08	-5.591271e+01	-7.675072e+02
1.000000e-07	-7.757566e-06	-1.174085e-08	-5.570848e+01	-7.663479e+02
1.100000e-07	-7.726144e-06	-1.169158e-08	-5.548283e+01	-7.651127e+02
1.200000e-07	-7.691990e-06	-1.165872e-08	-5.523757e+01	-7.637946e+02
1.300000e-07	-7.655305e-06	-1.163067e-08	-5.497413e+01	-7.623853e+02
1.400000e-07	-7.616385e-06	-1.158753e-08	-5.469464e+01	-7.608768e+02
1.500000e-07	-7.575332e-06	-1.153647e-08	-5.439983e+01	-7.592608e+02
1.600000e-07	-7.531859e-06	-1.153890e-08	-5.408764e+01	-7.575296e+02
1.700000e-07	-7.485660e-06	-1.147492e-08	-5.375588e+01	-7.556753e+02
1.800000e-07	-7.436771e-06	-1.143658e-08	-5.340479e+01	-7.536903e+02
1.900000e-07	-7.384956e-06	-1.147198e-08	-5.303270e+01	-7.515666e+02
2.000000e-07	-7.330165e-06	-1.142326e-08	-5.263924e+01	-7.492962e+02
2.100000e-07	-7.272653e-06	-1.140029e-08	-5.222624e+01	-7.468711e+02
2.200000e-07	-7.212481e-06	-1.135888e-08	-5.179413e+01	-7.442840e+02
2.300000e-07	-7.149778e-06	-1.128345e-08	-5.134385e+01	-7.415284e+02
2.400000e-07	-7.084412e-06	-1.123049e-08	-5.087445e+01	-7.386003e+02
2.500000e-07	-7.016290e-06	-1.117783e-08	-5.038525e+01	-7.354981e+02
2.600000e-07	-6.945523e-06	-1.113897e-08	-4.987706e+01	-7.322233e+02
2.700000e-07	-6.872053e-06	-1.108332e-08	-4.934946e+01	-7.287810e+02
2.800000e-07	-6.795791e-06	-1.102279e-08	-4.880180e+01	-7.251790e+02
2.900000e-07	-6.716738e-06	-1.095869e-08	-4.823411e+01	-7.214275e+02
3.000000e-07	-6.635037e-06	-1.092002e-08	-4.764740e+01	-7.175373e+02
3.100000e-07	-6.551042e-06	-1.087495e-08	-4.704422e+01	-7.135188e+02
3.200000e-07	-6.464854e-06	-1.079398e-08	-4.642529e+01	-7.093799e+02
3.300000e-07	-6.376350e-06	-1.074487e-08	-4.578972e+01	-7.051251e+02
3.400000e-07	-6.285492e-06	-1.069356e-08	-4.513725e+01	-7.007540e+02
3.500000e-07	-6.192365e-06	-1.061797e-08	-4.446849e+01	-6.962612e+02
3.600000e-07	-6.097038e-06	-1.053977e-08	-4.378393e+01	-6.916364e+02
3.700000e-07	-5.999460e-06	-1.046648e-08	-4.308321e+01	-6.868657e+02
3.800000e-07	-5.899645e-06	-1.038593e-08	-4.236642e+01	-6.819333e+02
3.900000e-07	-5.797728e-06	-1.029660e-08	-4.163454e+01	-6.768229e+02
4.000000e-07	-5.693812e-06	-1.022282e-08	-4.088830e+01	-6.715205e+02
4.100000e-07	-5.587852e-06	-1.014911e-08	-4.012738e+01	-6.660155e+02
4.200000e-07	-5.479930e-06	-1.006521e-08	-3.935237e+01	-6.603027e+02
4.300000e-07	-5.370099e-06	-9.962297e-09	-3.856365e+01	-6.543818e+02
4.400000e-07	-5.258314e-06	-9.867636e-09	-3.776090e+01	-6.482579e+02
4.500000e-07	-5.144499e-06	-9.781736e-09	-3.694358e+01	-6.419396e+02
4.600000e-07	-5.028624e-06	-9.684256e-09	-3.611146e+01	-6.354369e+02
4.700000e-07	-4.910837e-06	-9.583645e-09	-3.526561e+01	-6.287594e+02
4.800000e-07	-4.791300e-06	-9.487693e-09	-3.440719e+01	-6.219130e+02
4.900000e-07	-4.670015e-06	-9.382726e-09	-3.353622e+01	-6.148990e+02
5.000000e-07	-4.546964e-06	-9.263502e-09	-3.265257e+01	-6.077115e+02
5.100000e-07	-4.422306e-06	-9.150037e-09	-3.175738e+01	-6.003380e+02
5.200000e-07	-4.296100e-06	-9.037250e-09	-3.085107e+01	-5.927600e+02
5.300000e-07	-4.168294e-06	-8.912907e-09	-2.993327e+01	-5.849543e+02
5.400000e-07	-4.038981e-06	-8.778349e-09	-2.900465e+01	-5.768957e+02
5.500000e-07	-3.908176e-06	-8.650933e-09	-2.806532e+01	-5.685601e+02
5.600000e-07	-3.775845e-06	-8.526628e-09	-2.711503e+01	-5.599270e+02
5.700000e-07	-3.642059e-06	-8.391668e-09	-2.615429e+01	-5.509817e+02
5.800000e-07	-3.506886e-06	-8.249083e-09	-2.518358e+01	-5.417166e+02
5.900000e-07	-3.370405e-06	-8.109317e-09	-2.420349e+01	-5.321315e+02
6.000000e-07	-3.232633e-06	-7.967078e-09	-2.321412e+01	-5.222320e+02
6.100000e-07	-3.093551e-06	-7.810366e-09	-2.221535e+01	-5.120275e+02
6.200000e-07	-2.953090e-06	-7.647781e-09	-2.120667e+01	-5.015278e+02
6.300000e-07	-2.811351e-06	-7.479604e-09	-2.018882e+01	-4.907399e+02
6.400000e-07	-2.668513e-06	-7.302478e-09	-1.916307e+01	-4.796645e+02
6.500000e-07	-2.524598e-06	-7.120956e-09	-1.812959e+01	-4.682938e+02
6.600000e-07	-2.379757e-06	-6.942687e-09	-1.708946e+01	-4.566102e+02
6.700000e-07	-2.234117e-06	-6.763429e-09	-1.604359e+01	-4.445868e+02
6.800000e-07	-2.087703e-06	-6.577193e-09	-1.499217e+01	-4.321890e+02
6.900000e-07	-1.940620e-06	-6.386043e-09	-1.393594e+01	-4.193780e+02
7.000000e-07	-1.792901e-06	-6.185543e-09	-1.287514e+01	-4.061149e+02
7.100000e-07	-1.644639e-06	-5.975287e-09	-1.181045e+01	-3.923644e+02
7.200000e-07	-1.495972e-06	-5.756419e-09	-1.074285e+01	-3.780990e+02
7.300000e-07	-1.346891e-06	-5.530454e-09	-9.672267e+00	-3.633006e+02
7.400000e-07	-1.197373e-06	-5.294978e-09	-8.598551e+00	-3.479620e+02
7.500000e-07	-1.047427e-06	-5.052547e-09	-7.521761e+00	-3.320844e+02
7.600000e-07	-8.970580e-07	-4.806333e-09	-6.441936e+00	-3.156739e+02
7.700000e-07	-7.463429e-07	-4.550690e-09	-5.359623e+00	-2.987361e+02
7.800000e-07	-5.953978e-07	-4.284500e-09	-4.275659e+00	-2.812698e+02
7.900000e-07	-4.442464e-07	-4.011695e-09	-3.190214e+00	-2.632596e+02
8.000000e-07	-2.929174e-07	-3.733601e-09	-2.103493e+00	-2.446713e+02
8.100000e-07	-1.414826e-07	-3.439973e-09	-1.016012e+00	-2.254477e+02
8.200000e-07	1.001819e-08	-3.127308e-09	7.194243e-02	-2.055084e+02
8.300000e-07	1.615279e-07	-2.801401e-09	1.159961e+00	-1.847531e+02
8.400000e-07	3.130348e-07	-2.464483e-09	2.247959e+00	-1.630679e+02
8.500000e-07	4.644855e-07	-2.113846e-09	3.335554e+00	-1.403359e+02
8.600000e-07	6.157939e-07	-1.749315e-09	4.422127e+00	-1.164502e+02
8.700000e-07	7.669253e-07	-1.370401e-09	5.507429e+00	-9.132751e+01
8.800000e-07	9.178413e-07	-9.745530e-10	6.591184e+00	-6.492271e+01
8.900000e-07	1.068527e-06	-5.615395e-10	7.673288e+00	-3.724084e+01
9.000000e-07	1.218817e-06	-1.295663e-10	8.752546e+00	-8.346143e+00
9.100000e-07	1.368558e-06	3.215065e-10	9.827859e+00	2.163351e+01
9.200000e-07	1.517760e-06	7.937714e-10	1.089931e+01	5.250755e+01
9.300000e-07	1.666482e-06	1.281680e-09	1.196731e+01	8.402921e+01
9.400000e-07	1.814692e-06	1.774702e-09	1.303163e+01	1.159072e+02
9.500000e-07	1.962235e-06	2.265754e-09	1.409116e+01	1.478216e+02
9.600000e-07	2.109107e-06	2.751180e-09	1.514588e+01	1.794426e+02
9.700000e-07	2.255248e-06	3.224483e-09	1.619534e+01	2.104506e+02
9.800000e-07	2.400495e-06	3.677664e-09	1.723839e+01	2.405545e+02
9.900000e-07	2.544776e-06	4.110710e-09	1.827450e+01	2.695085e+02
1.000000e-06	2.688080e-06	4.523483e-09	1.930359e+01	2.971244e+02
1.010000e-06	2.830372e-06	4.915251e-09	2.032542e+01	3.232778e+02
1.020000e-06	2.971525e-06	5.286532e-09	2.133906e+01	3.479105e+02
1.030000e-06	3.111425e-06	5.638597e-09	2.234370e+01	3.710259e+02
1.040000e-06	3.249990e-06	5.970102e-09	2.333876e+01	3.926803e+02
1.050000e-06	3.387278e-06	6.281081e-09	2.432465e+01	4.129706e+02
1.060000e-06	3.523307e-06	6.573675e-09	2.530150e+01	4.320202e+02
1.070000e-06	3.658052e-06	6.850523e-09	2.626913e+01	4.499642e+02
1.080000e-06	3.791513e-06	7.111074e-09	2.722754e+01	4.669360e+02
1.090000e-06	3.923586e-06	7.356806e-09	2.817598e+01	4.830559e+02
1.100000e-06	4.054214e-06	7.592016e-09	2.911405e+01	4.984241e+02
1.110000e-06	4.183423e-06	7.816464e-09	3.004192e+01	5.131161e+02
1.120000e-06	4.311170e-06	8.031258e-09	3.095929e+01	5.271827e+02
1.130000e-06	4.437434e-06	8.235556e-09	3.186601e+01	5.406531e+02
1.140000e-06	4.562251e-06	8.428051e-09	3.276235e+01	5.535399e+02
1.150000e-06	4.685506e-06	8.610533e-09	3.364746e+01	5.658458e+02
1.160000e-06	4.807083e-06	8.785258e-09	3.452053e+01	5.775703e+02
1.170000e-06	4.926941e-06	8.952761e-09	3.538125e+01	5.887155e+02
1.180000e-06	5.045014e-06	9.112723e-09	3.622916e+01	5.992907e+02
1.190000e-06	5.161182e-06	9.266055e-09	3.706338e+01	6.093143e+02
1.200000e-06	5.275297e-06	9.413177e-09	3.788286e+01	6.188145e+02
1.210000e-06	5.387360e-06	9.553796e-09	3.868760e+01	6.278274e+02
1.220000e-06	5.497513e-06	9.688639e-09	3.947863e+01	6.363939e+02
1.230000e-06	5.605802e-06	9.817942e-09	4.025627e+01	6.445563e+02
1.240000e-06	5.712087e-06	9.939830e-09	4.101953e+01	6.523539e+02
1.250000e-06	5.816296e-06	1.005369e-08	4.176787e+01	6.598203e+02
1.260000e-06	5.918405e-06	1.016174e-08	4.250114e+01	6.669812e+02
1.270000e-06	6.018251e-06	1.026449e-08	4.321815e+01	6.738534e+02
1.280000e-06	6.115712e-06	1.036232e-08	4.391803e+01	6.804459e+02
1.290000e-06	6.210943e-06	1.045598e-08	4.460191e+01	6.867614e+02
1.300000e-06	6.304038e-06	1.054485e-08	4.527043e+01	6.927991e+02
1.310000e-06	6.394799e-06	1.063189e-08	4.592220e+01	6.985573e+02
1.320000e-06	6.483212e-06	1.071680e-08	4.655712e+01	7.040368e+02
1.330000e-06	6.569368e-06	1.079681e-08	4.717582e+01	7.092418e+02
1.340000e-06	6.653250e-06	1.087196e-08	4.777819e+01	7.141818e+02
1.350000e-06	6.734755e-06	1.094290e-08	4.836349e+01	7.188712e+02
1.360000e-06	6.813752e-06	1.101203e-08	4.893079e+01	7.233281e+02
1.370000e-06	6.890224e-06	1.107958e-08	4.947995e+01	7.275723e+02
1.380000e-06	6.964075e-06	1.114352e-08	5.001028e+01	7.316230e+02
1.390000e-06	7.035342e-06	1.120306e-08	5.052206e+01	7.354967e+02
1.400000e-06	7.104224e-06	1.125852e-08	5.101672e+01	7.392045e+02
1.410000e-06	7.170552e-06	1.131224e-08	5.149303e+01	7.427519e+02
1.420000e-06	7.234255e-06	1.136391e-08	5.195049e+01	7.461378e+02
1.430000e-06	7.295540e-06	1.141136e-08	5.239059e+01	7.493555e+02
1.440000e-06	7.354302e-06	1.145642e-08	5.281257e+01	7.523946e+02
1.450000e-06	7.410442e-06	1.149926e-08	5.321572e+01	7.552428e+02
1.460000e-06	7.463804e-06	1.153812e-08	5.359892e+01	7.578887e+02
1.470000e-06	7.514101e-06	1.157257e-08	5.396012e+01	7.603242e+02
1.480000e-06	7.561501e-06	1.160524e-08	5.430050e+01	7.625459e+02
1.490000e-06	7.606326e-06	1.163651e-08	5.462241e+01	7.645564e+02
1.500000e-06	7.648424e-06	1.166524e-08	5.492471e+01	7.663645e+02
1.510000e-06	7.687703e-06	1.169202e-08	5.520679e+01	7.679841e+02
1.520000e-06	7.724372e-06	1.171580e-08	5.547011e+01	7.694326e+02
1.530000e-06	7.758271e-06	1.173722e-08	5.571355e+01	7.707289e+02
1.540000e-06	7.789353e-06	1.175660e-08	5.593675e+01	7.718908e+02
1.550000e-06	7.817777e-06	1.177468e-08	5.614087e+01	7.729334e+02
1.560000e-06	7.843330e-06	1.179091e-08	5.632437e+01	7.738670e+02
1.570000e-06	7.865935e-06	1.180452e-08	5.648670e+01	7.746966e+02
1.580000e-06	7.885865e-06	1.181590e-08	5.662982e+01	7.754216e+02
1.590000e-06	7.902983e-06	1.182358e-08	5.675275e+01	7.760369e+02
1.600000e-06	7.917010e-06	1.182814e-08	5.685348e+01	7.765340e+02
1.610000e-06	7.927934e-06	1.183312e-08	5.693193e+01	7.769031e+02
1.620000e-06	7.935821e-06	1.183860e-08	5.698857e+01	7.771352e+02
1.630000e-06	7.940893e-06	1.184236e-08	5.702499e+01	7.772234e+02
1.640000e-06	7.943192e-06	1.184444e-08	5.704150e+01	7.771649e+02
1.650000e-06	7.942721e-06	1.184332e-08	5.703811e+01	7.769611e+02
1.660000e-06	7.939648e-06	1.183642e-08	5.701604e+01	7.766179e+02
1.670000e-06	7.933894e-06	1.182865e-08	5.697472e+01	7.761449e+02
1.680000e-06	7.925445e-06	1.181936e-08	5.691405e+01	7.755545e+02
1.690000e-06	7.914328e-06	1.180902e-08	5.683422e+01	7.748600e+02
1.700000e-06	7.900377e-06	1.179889e-08	5.673404e+01	7.740742e+02
1.710000e-06	7.883825e-06	1.178881e-08	5.661517e+01	7.732081e+02
1.720000e-06	7.865007e-06	1.177402e-08	5.648004e+01	7.722698e+02
1.730000e-06	7.843793e-06	1.171817e-08	5.632769e+01	7.712638e+02
1.740000e-06	7.819641e-06	1.166994e-08	5.615425e+01	7.701909e+02
1.750000e-06	7.791996e-06	1.167890e-08	5.595573e+01	7.690488e+02
1.760000e-06	7.760881e-06	1.167513e-08	5.573229e+01	7.678324e+02
1.770000e-06	7.726960e-06	1.165382e-08	5.548870e+01	7.665349e+02
1.780000e-06	7.690715e-06	1.166288e-08	5.522842e+01	7.651483e+02
1.790000e-06	7.652125e-06	1.168142e-08	5.495129e+01	7.636646e+02
1.800000e-06	7.611528e-06	1.161945e-08	5.465976e+01	7.620754e+02
1.810000e-06	7.568814e-06	1.163641e-08	5.435302e+01	7.603728e+02
1.820000e-06	7.523411e-06	1.164066e-08	5.402697e+01	7.585492e+02
1.830000e-06	7.475351e-06	1.157163e-08	5.368184e+01	7.565968e+02
1.840000e-06	7.424459e-06	1.156272e-08	5.331638e+01	7.545076e+02
1.850000e-06	7.370543e-06	1.144632e-08	5.292920e+01	7.522739e+02
1.860000e-06	7.313841e-06	1.142081e-08	5.252201e+01	7.498874e+02
1.870000e-06	7.254486e-06	1.142625e-08	5.209578e+01	7.473405e+02
1.880000e-06	7.192456e-06	1.138418e-08	5.165033e+01	7.446268e+02
1.890000e-06	7.127669e-06	1.139237e-08	5.118508e+01	7.417412e+02
1.900000e-06	7.060174e-06	1.129148e-08	5.070039e+01	7.386816e+02
1.910000e-06	6.989870e-06	1.122068e-08	5.019552e+01	7.354488e+02
1.920000e-06	6.916761e-06	1.118034e-08	4.967051e+01	7.320469e+02
1.930000e-06	6.841085e-06	1.114905e-08	4.912707e+01	7.284832e+02
1.940000e-06	6.762682e-06	1.110893e-08	4.856404e+01	7.247672e+02
1.950000e-06	6.681695e-06	1.101822e-08	4.798246e+01	7.209098e+02
1.960000e-06	6.598352e-06	1.097499e-08	4.738396e+01	7.169217e+02
1.970000e-06	6.512531e-06	1.088386e-08	4.676766e+01	7.128115e+02
1.980000e-06	6.424278e-06	1.081031e-08	4.613390e+01	7.085847e+02
1.990000e-06	6.333724e-06	1.076668e-08	4.548362e+01	7.042421e+02
2.000000e-06	6.241005e-06	1.070282e-08	4.481779e+01	6.997797e+02
2.010000e-06	6.146038e-06	1.062320e-08	4.413581e+01	6.951882e+02
2.020000e-06	6.048811e-06	1.053610e-08	4.343761e+01	6.904547e+02
2.030000e-06	5.949466e-06	1.047501e-08	4.272419e+01	6.855634e+02
2.040000e-06	5.848073e-06	1.039693e-08	4.199607e+01	6.804981e+02
2.050000e-06	5.744582e-06	1.030634e-08	4.125288e+01	6.752440e+02
2.060000e-06	5.639018e-06	1.021027e-08	4.049481e+01	6.697896e+02
2.070000e-06	5.531546e-06	1.013577e-08	3.972303e+01	6.641280e+02
2.080000e-06	5.422114e-06	1.005523e-08	3.893718e+01	6.582581e+02
2.090000e-06	5.310702e-06	9.964751e-09	3.813711e+01	6.521834e+02
2.100000e-06	5.197340e-06	9.876548e-09	3.732304e+01	6.459119e+02
2.110000e-06	5.082076e-06	9.774332e-09	3.649531e+01	6.394536e+02
2.120000e-06	4.964812e-06	9.656041e-09	3.565321e+01	6.328182e+02
2.130000e-06	4.845510e-06	9.541269e-09	3.479648e+01	6.260129e+02
2.140000e-06	4.724425e-06	9.450391e-09	3.392695e+01	6.190402e+02
2.150000e-06	4.601697e-06	9.352107e-09	3.304562e+01	6.118961e+02
2.160000e-06	4.477336e-06	9.236903e-09	3.215256e+01	6.045698e+02
2.170000e-06	4.351271e-06	9.115815e-09	3.124727e+01	5.970442e+02
2.180000e-06	4.223539e-06	9.001410e-09	3.033000e+01	5.892969e+02
2.190000e-06	4.094278e-06	8.879298e-09	2.940175e+01	5.813030e+02
2.200000e-06	3.963503e-06	8.749460e-09	2.846263e+01	5.730380e+02
2.210000e-06	3.831308e-06	8.619347e-09	2.751332e+01	5.644801e+02
2.220000e-06	3.697734e-06	8.482226e-09	2.655410e+01	5.556129e+02
2.230000e-06	3.562709e-06	8.334022e-09	2.558446e+01	5.464273e+02
2.240000e-06	3.426338e-06	8.186081e-09	2.460515e+01	5.369210e+02
2.250000e-06	3.288711e-06	8.045261e-09	2.361683e+01	5.270984e+02
2.260000e-06	3.149816e-06	7.896590e-09	2.261939e+01	5.169684e+02
2.270000e-06	3.009713e-06	7.739511e-09	2.161329e+01	5.065409e+02
2.280000e-06	2.868433e-06	7.580562e-09	2.059873e+01	4.958238e+02
2.290000e-06	2.725920e-06	7.420770e-09	1.957532e+01	4.848199e+02
2.300000e-06	2.582337e-06	7.250827e-09	1.854423e+01	4.735234e+02
2.310000e-06	2.437958e-06	7.070021e-09	1.750742e+01	4.619194e+02
2.320000e-06	2.292819e-06	6.879927e-09	1.646515e+01	4.499831e+02
2.330000e-06	2.146846e-06	6.680460e-09	1.541689e+01	4.376816e+02
2.340000e-06	2.000071e-06	6.477850e-09	1.436287e+01	4.249768e+02
2.350000e-06	1.852603e-06	6.279146e-09	1.330388e+01	4.118294e+02
2.360000e-06	1.704573e-06	6.080679e-09	1.224084e+01	3.982029e+02
2.370000e-06	1.556075e-06	5.870636e-09	1.117446e+01	3.840674e+02
2.380000e-06	1.407151e-06	5.647833e-09	1.010501e+01	3.694025e+02
2.390000e-06	1.257769e-06	5.415488e-09	9.032266e+00	3.541984e+02
2.400000e-06	1.107878e-06	5.174963e-09	7.955871e+00	3.384542e+02
2.410000e-06	9.575744e-07	4.929044e-09	6.876514e+00	3.221754e+02
2.420000e-06	8.069621e-07	4.676401e-09	5.794941e+00	3.053684e+02
2.430000e-06	6.560544e-07	4.410053e-09	4.711245e+00	2.880341e+02
2.440000e-06	5.048358e-07	4.132029e-09	3.625317e+00	2.701614e+02
2.450000e-06	3.534105e-07	3.850169e-09	2.537905e+00	2.517212e+02
2.460000e-06	2.018658e-07	3.562565e-09	1.449635e+00	2.326623e+02
2.470000e-06	5.020484e-08	3.262225e-09	3.605300e-01	2.129098e+02
2.480000e-06	-1.014754e-07	2.945602e-09	-7.287129e-01	1.923680e+02
2.490000e-06	-2.530864e-07	2.614053e-09	-1.817459e+00	1.709254e+02
2.500000e-06	-4.046401e-07	2.268111e-09	-2.905793e+00	1.484650e+02
2.510000e-06	-5.560972e-07	1.906248e-09	-3.993435e+00	1.248759e+02
2.520000e-06	-7.073371e-07	1.529243e-09	-5.079515e+00	1.000675e+02
2.530000e-06	-8.582990e-07	1.136080e-09	-6.163600e+00	7.398410e+01
2.540000e-06	-1.008965e-06	7.224943e-10	-7.245562e+00	4.661707e+01
2.550000e-06	-1.159264e-06	2.903593e-10	-8.324888e+00	1.801528e+01
2.560000e-06	-1.309109e-06	-1.566633e-10	-9.400951e+00	-1.170945e+01
2.570000e-06	-1.458422e-06	-6.199464e-10	-1.047319e+01	-4.238183e+01
2.580000e-06	-1.607234e-06	-1.100381e-09	-1.154184e+01	-7.376823e+01
2.590000e-06	-1.755565e-06	-1.595061e-09	-1.260703e+01	-1.055871e+02
2.600000e-06	-1.903247e-06	-2.095867e-09	-1.366756e+01	-1.375241e+02
2.610000e-06	-2.050174e-06	-2.590993e-09	-1.472267e+01	-1.692500e+02
2.620000e-06	-2.196341e-06	-3.072507e-09	-1.577232e+01	-2.004408e+02
2.630000e-06	-2.341699e-06	-3.537632e-09	-1.681616e+01	-2.307966e+02
2.640000e-06	-2.486189e-06	-3.982952e-09	-1.785377e+01	-2.600590e+02
2.650000e-06	-2.629735e-06	-4.406215e-09	-1.888460e+01	-2.880244e+02
2.660000e-06	-2.772181e-06	-4.805237e-09	-1.990753e+01	-3.145523e+02
2.670000e-06	-2.913473e-06	-5.180107e-09	-2.092218e+01	-3.395681e+02
2.680000e-06	-3.053592e-06	-5.533095e-09	-2.192839e+01	-3.630602e+02
2.690000e-06	-3.192505e-06	-5.867915e-09	-2.292596e+01	-3.850729e+02
2.700000e-06	-3.330215e-06	-6.186822e-09	-2.391488e+01	-4.056943e+02
2.710000e-06	-3.466686e-06	-6.487678e-09	-2.489490e+01	-4.250425e+02
2.720000e-06	-3.601840e-06	-6.769840e-09	-2.586546e+01	-4.432509e+02
2.730000e-06	-3.735657e-06	-7.034422e-09	-2.682643e+01	-4.604546e+02
2.740000e-06	-3.868147e-06	-7.285496e-09	-2.777786e+01	-4.767781e+02
2.750000e-06	-3.999253e-06	-7.526216e-09	-2.871936e+01	-4.923270e+02
2.760000e-06	-4.128967e-06	-7.757013e-09	-2.965086e+01	-5.071831e+02
2.770000e-06	-4.257249e-06	-7.975427e-09	-3.057207e+01	-5.214034e+02
2.780000e-06	-4.384026e-06	-8.180354e-09	-3.148249e+01	-5.350219e+02
2.790000e-06	-4.509348e-06	-8.374589e-09	-3.238244e+01	-5.480549e+02
2.800000e-06	-4.633157e-06	-8.560801e-09	-3.327154e+01	-5.605069e+02
2.810000e-06	-4.755305e-06	-8.740673e-09	-3.414870e+01	-5.723776e+02
2.820000e-06	-4.875721e-06	-8.912177e-09	-3.501343e+01	-5.836680e+02
2.830000e-06	-4.994272e-06	-9.073393e-09	-3.586477e+01	-5.943851e+02
2.840000e-06	-5.110832e-06	-9.227339e-09	-3.670181e+01	-6.045452e+02
2.850000e-06	-5.225338e-06	-9.376640e-09	-3.752409e+01	-6.141739e+02
2.860000e-06	-5.337704e-06	-9.521000e-09	-3.833102e+01	-6.233058e+02
2.870000e-06	-5.447972e-06	-9.655655e-09	-3.912287e+01	-6.319808e+02
2.880000e-06	-5.556303e-06	-9.781275e-09	-3.990082e+01	-6.402412e+02
2.890000e-06	-5.662778e-06	-9.902170e-09	-4.066543e+01	-6.481274e+02
2.900000e-06	-5.767301e-06	-1.001791e-08	-4.141603e+01	-6.556747e+02
2.910000e-06	-5.869619e-06	-1.012771e-08	-4.215079e+01	-6.629109e+02
2.920000e-06	-5.969742e-06	-1.023209e-08	-4.286980e+01	-6.698549e+02
2.930000e-06	-6.067812e-06	-1.033259e-08	-4.357405e+01	-6.765177e+02
2.940000e-06	-6.163711e-06	-1.042914e-08	-4.426272e+01	-6.829033e+02
