# Temperatura_=_72.93
# Concentracion g/m^3_=_10000.0
# C_Vs_to_Am_M_A/Vsm_=_65563218390.804596
# pendiente_HvsI_1/m_=_3716.3
# ordenada_HvsI_A/m_=_1297.0
# frecuencia_Hz_=_302553.7557758195

Tiempo_(s)	Campo_(V.s)	Magnetizacion_(V.s)	Campo_(kA/m)	Magnetizacion_(A/m)
0.000000e+00	-7.941550e-06	-1.247102e-08	-5.685125e+01	-8.179156e+02
1.000000e-08	-7.938133e-06	-1.246918e-08	-5.682679e+01	-8.174775e+02
2.000000e-08	-7.932125e-06	-1.246217e-08	-5.678378e+01	-8.168978e+02
3.000000e-08	-7.923540e-06	-1.245412e-08	-5.672232e+01	-8.161909e+02
4.000000e-08	-7.912165e-06	-1.244532e-08	-5.664089e+01	-8.153715e+02
5.000000e-08	-7.897829e-06	-1.243413e-08	-5.653826e+01	-8.144528e+02
6.000000e-08	-7.880632e-06	-1.242230e-08	-5.641516e+01	-8.134458e+02
7.000000e-08	-7.861032e-06	-1.241067e-08	-5.627485e+01	-8.123578e+02
8.000000e-08	-7.839065e-06	-1.239647e-08	-5.611759e+01	-8.111925e+02
9.000000e-08	-7.814217e-06	-1.241465e-08	-5.593971e+01	-8.099504e+02
1.000000e-07	-7.786213e-06	-1.240466e-08	-5.573924e+01	-8.086290e+02
1.100000e-07	-7.755200e-06	-1.233741e-08	-5.551723e+01	-8.072240e+02
1.200000e-07	-7.721369e-06	-1.229399e-08	-5.527504e+01	-8.057299e+02
1.300000e-07	-7.684922e-06	-1.227436e-08	-5.501412e+01	-8.041405e+02
1.400000e-07	-7.646205e-06	-1.224593e-08	-5.473697e+01	-8.024494e+02
1.500000e-07	-7.605290e-06	-1.217205e-08	-5.444406e+01	-8.006498e+02
1.600000e-07	-7.562002e-06	-1.213380e-08	-5.413418e+01	-7.987345e+02
1.700000e-07	-7.516092e-06	-1.215593e-08	-5.380552e+01	-7.966950e+02
1.800000e-07	-7.467385e-06	-1.204401e-08	-5.345685e+01	-7.945219e+02
1.900000e-07	-7.415736e-06	-1.206409e-08	-5.308710e+01	-7.922041e+02
2.000000e-07	-7.361195e-06	-1.207821e-08	-5.269666e+01	-7.897292e+02
2.100000e-07	-7.303952e-06	-1.198451e-08	-5.228687e+01	-7.870844e+02
2.200000e-07	-7.244071e-06	-1.197322e-08	-5.185820e+01	-7.842570e+02
2.300000e-07	-7.181624e-06	-1.189111e-08	-5.141116e+01	-7.812364e+02
2.400000e-07	-7.116485e-06	-1.185041e-08	-5.094485e+01	-7.780145e+02
2.500000e-07	-7.048560e-06	-1.178147e-08	-5.045860e+01	-7.745878e+02
2.600000e-07	-6.977929e-06	-1.172239e-08	-4.995297e+01	-7.709578e+02
2.700000e-07	-6.904534e-06	-1.166854e-08	-4.942756e+01	-7.671309e+02
2.800000e-07	-6.828372e-06	-1.159357e-08	-4.888234e+01	-7.631184e+02
2.900000e-07	-6.749390e-06	-1.153101e-08	-4.831692e+01	-7.589349e+02
3.000000e-07	-6.667777e-06	-1.146895e-08	-4.773268e+01	-7.545967e+02
3.100000e-07	-6.583924e-06	-1.143892e-08	-4.713240e+01	-7.501192e+02
3.200000e-07	-6.497814e-06	-1.136444e-08	-4.651596e+01	-7.455150e+02
3.300000e-07	-6.409369e-06	-1.127967e-08	-4.588281e+01	-7.407915e+02
3.400000e-07	-6.318640e-06	-1.122782e-08	-4.523331e+01	-7.359500e+02
3.500000e-07	-6.225653e-06	-1.115331e-08	-4.456765e+01	-7.309848e+02
3.600000e-07	-6.130379e-06	-1.106420e-08	-4.388561e+01	-7.258840e+02
3.700000e-07	-6.032805e-06	-1.097746e-08	-4.318710e+01	-7.206307e+02
3.800000e-07	-5.933058e-06	-1.089916e-08	-4.247304e+01	-7.152052e+02
3.900000e-07	-5.831208e-06	-1.080521e-08	-4.174392e+01	-7.095878e+02
4.000000e-07	-5.727301e-06	-1.070477e-08	-4.100008e+01	-7.037614e+02
4.100000e-07	-5.621405e-06	-1.062003e-08	-4.024201e+01	-6.977138e+02
4.200000e-07	-5.513464e-06	-1.053223e-08	-3.946929e+01	-6.914394e+02
4.300000e-07	-5.403574e-06	-1.042869e-08	-3.868262e+01	-6.849393e+02
4.400000e-07	-5.291728e-06	-1.032022e-08	-3.788195e+01	-6.782209e+02
4.500000e-07	-5.177839e-06	-1.022814e-08	-3.706665e+01	-6.712963e+02
4.600000e-07	-5.061939e-06	-1.013003e-08	-3.623696e+01	-6.641792e+02
4.700000e-07	-4.944174e-06	-1.001543e-08	-3.539391e+01	-6.568824e+02
4.800000e-07	-4.824543e-06	-9.903241e-09	-3.453751e+01	-6.494143e+02
4.900000e-07	-4.703077e-06	-9.788318e-09	-3.366796e+01	-6.417768e+02
5.000000e-07	-4.579955e-06	-9.661645e-09	-3.278657e+01	-6.339637e+02
5.100000e-07	-4.455227e-06	-9.533768e-09	-3.189368e+01	-6.259604e+02
5.200000e-07	-4.328851e-06	-9.411254e-09	-3.098899e+01	-6.177451e+02
5.300000e-07	-4.200800e-06	-9.279854e-09	-3.007231e+01	-6.092913e+02
5.400000e-07	-4.071237e-06	-9.135756e-09	-2.914480e+01	-6.005704e+02
5.500000e-07	-3.940193e-06	-8.996151e-09	-2.820670e+01	-5.915558e+02
5.600000e-07	-3.807628e-06	-8.860164e-09	-2.725771e+01	-5.822261e+02
5.700000e-07	-3.673660e-06	-8.716810e-09	-2.629867e+01	-5.725676e+02
5.800000e-07	-3.538291e-06	-8.563435e-09	-2.532960e+01	-5.625756e+02
5.900000e-07	-3.401506e-06	-8.411005e-09	-2.435039e+01	-5.522542e+02
6.000000e-07	-3.263413e-06	-8.254331e-09	-2.336183e+01	-5.416145e+02
6.100000e-07	-3.123960e-06	-8.088956e-09	-2.236352e+01	-5.306716e+02
6.200000e-07	-2.983091e-06	-7.919314e-09	-2.135508e+01	-5.194402e+02
6.300000e-07	-2.840926e-06	-7.742564e-09	-2.033736e+01	-5.079308e+02
6.400000e-07	-2.697690e-06	-7.556408e-09	-1.931198e+01	-4.961455e+02
6.500000e-07	-2.553506e-06	-7.364212e-09	-1.827981e+01	-4.840750e+02
6.600000e-07	-2.408382e-06	-7.172783e-09	-1.724091e+01	-4.716983e+02
6.700000e-07	-2.262472e-06	-6.977224e-09	-1.619638e+01	-4.589825e+02
6.800000e-07	-2.115831e-06	-6.776277e-09	-1.514662e+01	-4.458861e+02
6.900000e-07	-1.968408e-06	-6.571670e-09	-1.409126e+01	-4.323632e+02
7.000000e-07	-1.820319e-06	-6.361369e-09	-1.303114e+01	-4.183680e+02
7.100000e-07	-1.671706e-06	-6.141969e-09	-1.196726e+01	-4.038609e+02
7.200000e-07	-1.522689e-06	-5.915157e-09	-1.090049e+01	-3.888120e+02
7.300000e-07	-1.373261e-06	-5.680365e-09	-9.830775e+00	-3.732043e+02
7.400000e-07	-1.223374e-06	-5.432560e-09	-8.757780e+00	-3.570338e+02
7.500000e-07	-1.073021e-06	-5.174683e-09	-7.681444e+00	-3.403071e+02
7.600000e-07	-9.222166e-07	-4.912277e-09	-6.601881e+00	-3.230371e+02
7.700000e-07	-7.710978e-07	-4.645147e-09	-5.520066e+00	-3.052354e+02
7.800000e-07	-6.196959e-07	-4.365430e-09	-4.436223e+00	-2.869048e+02
7.900000e-07	-4.680266e-07	-4.076353e-09	-3.350467e+00	-2.680315e+02
8.000000e-07	-3.162137e-07	-3.782843e-09	-2.263682e+00	-2.485781e+02
8.100000e-07	-1.643250e-07	-3.477293e-09	-1.176355e+00	-2.284798e+02
8.200000e-07	-1.235605e-08	-3.153429e-09	-8.845337e-02	-2.076445e+02
8.300000e-07	1.396746e-07	-2.814742e-09	9.998897e-01	-1.859564e+02
8.400000e-07	2.917300e-07	-2.464312e-09	2.088410e+00	-1.632847e+02
8.500000e-07	4.437776e-07	-2.098481e-09	3.176875e+00	-1.394955e+02
8.600000e-07	5.957206e-07	-1.716904e-09	4.264591e+00	-1.144670e+02
8.700000e-07	7.474284e-07	-1.317898e-09	5.350623e+00	-8.810591e+01
8.800000e-07	8.988047e-07	-9.030657e-10	6.434282e+00	-6.036329e+01
8.900000e-07	1.049881e-06	-4.691391e-10	7.515795e+00	-3.124806e+01
9.000000e-07	1.200617e-06	-1.303352e-11	8.594870e+00	-8.365046e-01
9.100000e-07	1.350878e-06	4.649055e-10	9.670541e+00	3.072371e+01
9.200000e-07	1.500625e-06	9.616247e-10	1.074254e+01	6.321569e+01
9.300000e-07	1.649836e-06	1.470616e-09	1.181069e+01	9.636178e+01
9.400000e-07	1.798455e-06	1.988113e-09	1.287462e+01	1.298378e+02
9.500000e-07	1.946474e-06	2.504082e-09	1.393424e+01	1.632917e+02
9.600000e-07	2.093863e-06	3.012951e-09	1.498936e+01	1.963653e+02
9.700000e-07	2.240487e-06	3.506324e-09	1.603900e+01	2.287160e+02
9.800000e-07	2.386260e-06	3.977717e-09	1.708254e+01	2.600378e+02
9.900000e-07	2.531192e-06	4.425167e-09	1.812007e+01	2.900784e+02
1.000000e-06	2.675174e-06	4.850377e-09	1.915079e+01	3.186512e+02
1.010000e-06	2.818092e-06	5.254855e-09	2.017390e+01	3.456419e+02
1.020000e-06	2.959953e-06	5.636764e-09	2.118944e+01	3.710080e+02
1.030000e-06	3.100613e-06	5.998263e-09	2.219639e+01	3.947726e+02
1.040000e-06	3.239927e-06	6.338925e-09	2.319369e+01	4.170137e+02
1.050000e-06	3.377897e-06	6.659147e-09	2.418138e+01	4.378492e+02
1.060000e-06	3.514618e-06	6.959832e-09	2.516013e+01	4.574211e+02
1.070000e-06	3.650006e-06	7.244051e-09	2.612933e+01	4.758788e+02
1.080000e-06	3.783998e-06	7.512192e-09	2.708855e+01	4.933654e+02
1.090000e-06	3.916685e-06	7.765322e-09	2.803841e+01	5.100064e+02
1.100000e-06	4.047998e-06	8.009067e-09	2.897844e+01	5.259020e+02
1.110000e-06	4.177879e-06	8.243177e-09	2.990822e+01	5.411252e+02
1.120000e-06	4.306289e-06	8.465660e-09	3.082747e+01	5.557220e+02
1.130000e-06	4.433170e-06	8.676108e-09	3.173578e+01	5.697161e+02
1.140000e-06	4.558528e-06	8.874284e-09	3.263318e+01	5.831156e+02
1.150000e-06	4.682326e-06	9.063362e-09	3.351942e+01	5.959201e+02
1.160000e-06	4.804510e-06	9.245929e-09	3.439409e+01	6.081283e+02
1.170000e-06	4.925023e-06	9.420965e-09	3.525681e+01	6.197438e+02
1.180000e-06	5.043720e-06	9.588831e-09	3.610652e+01	6.307791e+02
1.190000e-06	5.160527e-06	9.749422e-09	3.694272e+01	6.412572e+02
1.200000e-06	5.275393e-06	9.902441e-09	3.776501e+01	6.512109e+02
1.210000e-06	5.388184e-06	1.005085e-08	3.857245e+01	6.606803e+02
1.220000e-06	5.498886e-06	1.019384e-08	3.936493e+01	6.697088e+02
1.230000e-06	5.607663e-06	1.033105e-08	4.014363e+01	6.783388e+02
1.240000e-06	5.714550e-06	1.045981e-08	4.090880e+01	6.866079e+02
1.250000e-06	5.819324e-06	1.057891e-08	4.165885e+01	6.945458e+02
1.260000e-06	5.921904e-06	1.069307e-08	4.239319e+01	7.021728e+02
1.270000e-06	6.022387e-06	1.080427e-08	4.311252e+01	7.095000e+02
1.280000e-06	6.120649e-06	1.091148e-08	4.381595e+01	7.165304e+02
1.290000e-06	6.216580e-06	1.101208e-08	4.450269e+01	7.232623e+02
1.300000e-06	6.310256e-06	1.110630e-08	4.517329e+01	7.296921e+02
1.310000e-06	6.401679e-06	1.119679e-08	4.582776e+01	7.358178e+02
1.320000e-06	6.490733e-06	1.128538e-08	4.646528e+01	7.416417e+02
1.330000e-06	6.577465e-06	1.137020e-08	4.708616e+01	7.471722e+02
1.340000e-06	6.661976e-06	1.144934e-08	4.769115e+01	7.524239e+02
1.350000e-06	6.744129e-06	1.152396e-08	4.827927e+01	7.574173e+02
1.360000e-06	6.823810e-06	1.159695e-08	4.884968e+01	7.621760e+02
1.370000e-06	6.900983e-06	1.166989e-08	4.940213e+01	7.667244e+02
1.380000e-06	6.975485e-06	1.174214e-08	4.993547e+01	7.710846e+02
1.390000e-06	7.047301e-06	1.181064e-08	5.044959e+01	7.752737e+02
1.400000e-06	7.116648e-06	1.187284e-08	5.094602e+01	7.793012e+02
1.410000e-06	7.183516e-06	1.192983e-08	5.142471e+01	7.831691e+02
1.420000e-06	7.247771e-06	1.198295e-08	5.188469e+01	7.868712e+02
1.430000e-06	7.309515e-06	1.203326e-08	5.232670e+01	7.903953e+02
1.440000e-06	7.368835e-06	1.208145e-08	5.275135e+01	7.937251e+02
1.450000e-06	7.425541e-06	1.212677e-08	5.315729e+01	7.968438e+02
1.460000e-06	7.479551e-06	1.216911e-08	5.354393e+01	7.997367e+02
1.470000e-06	7.530587e-06	1.220921e-08	5.390929e+01	8.023939e+02
1.480000e-06	7.578543e-06	1.224787e-08	5.425259e+01	8.048126e+02
1.490000e-06	7.623784e-06	1.228508e-08	5.457646e+01	8.069973e+02
1.500000e-06	7.666402e-06	1.231827e-08	5.488155e+01	8.089602e+02
1.510000e-06	7.706236e-06	1.234655e-08	5.516671e+01	8.107188e+02
1.520000e-06	7.743335e-06	1.236984e-08	5.543229e+01	8.122947e+02
1.530000e-06	7.777740e-06	1.239019e-08	5.567859e+01	8.137099e+02
1.540000e-06	7.809320e-06	1.240902e-08	5.590465e+01	8.149846e+02
1.550000e-06	7.838155e-06	1.242798e-08	5.611107e+01	8.161347e+02
1.560000e-06	7.864207e-06	1.244607e-08	5.629757e+01	8.171701e+02
1.570000e-06	7.887324e-06	1.246036e-08	5.646307e+01	8.180941e+02
1.580000e-06	7.907677e-06	1.247296e-08	5.660876e+01	8.189034e+02
1.590000e-06	7.925275e-06	1.248268e-08	5.673475e+01	8.195901e+02
1.600000e-06	7.939892e-06	1.248942e-08	5.683938e+01	8.201427e+02
1.610000e-06	7.951427e-06	1.249529e-08	5.692196e+01	8.205492e+02
1.620000e-06	7.959868e-06	1.250017e-08	5.698238e+01	8.207988e+02
1.630000e-06	7.965406e-06	1.250392e-08	5.702203e+01	8.208844e+02
1.640000e-06	7.968126e-06	1.250519e-08	5.704150e+01	8.208032e+02
1.650000e-06	7.968038e-06	1.250507e-08	5.704087e+01	8.205581e+02
1.660000e-06	7.965302e-06	1.249630e-08	5.702129e+01	8.201564e+02
1.670000e-06	7.959903e-06	1.248495e-08	5.698264e+01	8.196099e+02
1.680000e-06	7.951828e-06	1.247716e-08	5.692483e+01	8.189324e+02
1.690000e-06	7.941082e-06	1.246638e-08	5.684790e+01	8.181388e+02
1.700000e-06	7.927556e-06	1.245321e-08	5.675107e+01	8.172428e+02
1.710000e-06	7.911394e-06	1.244022e-08	5.663537e+01	8.162561e+02
1.720000e-06	7.892860e-06	1.242219e-08	5.650270e+01	8.151869e+02
1.730000e-06	7.871970e-06	1.238767e-08	5.635315e+01	8.140397e+02
1.740000e-06	7.848252e-06	1.230656e-08	5.618336e+01	8.128159e+02
1.750000e-06	7.821076e-06	1.230739e-08	5.598881e+01	8.115137e+02
1.760000e-06	7.790343e-06	1.232598e-08	5.576880e+01	8.101291e+02
1.770000e-06	7.756716e-06	1.229127e-08	5.552808e+01	8.086569e+02
1.780000e-06	7.720759e-06	1.226370e-08	5.527068e+01	8.070909e+02
1.790000e-06	7.682386e-06	1.230561e-08	5.499598e+01	8.054249e+02
1.800000e-06	7.641875e-06	1.228538e-08	5.470596e+01	8.036521e+02
1.810000e-06	7.599286e-06	1.218450e-08	5.440108e+01	8.017655e+02
1.820000e-06	7.554102e-06	1.227948e-08	5.407762e+01	7.997569e+02
1.830000e-06	7.506267e-06	1.220361e-08	5.373519e+01	7.976172e+02
1.840000e-06	7.455559e-06	1.215293e-08	5.337218e+01	7.953357e+02
1.850000e-06	7.401805e-06	1.212265e-08	5.298738e+01	7.929003e+02
1.860000e-06	7.345317e-06	1.201374e-08	5.258300e+01	7.902981e+02
1.870000e-06	7.286209e-06	1.206314e-08	5.215986e+01	7.875166e+02
1.880000e-06	7.224434e-06	1.196239e-08	5.171762e+01	7.845441e+02
1.890000e-06	7.159891e-06	1.194920e-08	5.125559e+01	7.813721e+02
1.900000e-06	7.092609e-06	1.191270e-08	5.077393e+01	7.779957e+02
1.910000e-06	7.022482e-06	1.179474e-08	5.027191e+01	7.744151e+02
1.920000e-06	6.949520e-06	1.178283e-08	4.974960e+01	7.706355e+02
1.930000e-06	6.873966e-06	1.172226e-08	4.920873e+01	7.666672e+02
1.940000e-06	6.795680e-06	1.169611e-08	4.864830e+01	7.625240e+02
1.950000e-06	6.714782e-06	1.157940e-08	4.806918e+01	7.582220e+02
1.960000e-06	6.631479e-06	1.150694e-08	4.747283e+01	7.537770e+02
1.970000e-06	6.545679e-06	1.146222e-08	4.685862e+01	7.492025e+02
1.980000e-06	6.457432e-06	1.134559e-08	4.622688e+01	7.445075e+02
1.990000e-06	6.366932e-06	1.130039e-08	4.557902e+01	7.396948e+02
2.000000e-06	6.274277e-06	1.122711e-08	4.491573e+01	7.347604e+02
2.010000e-06	6.179285e-06	1.115749e-08	4.423571e+01	7.296940e+02
2.020000e-06	6.082025e-06	1.105047e-08	4.353945e+01	7.244796e+02
2.030000e-06	5.982635e-06	1.097379e-08	4.282795e+01	7.190980e+02
2.040000e-06	5.881129e-06	1.090633e-08	4.210130e+01	7.135294e+02
2.050000e-06	5.777515e-06	1.080566e-08	4.135955e+01	7.077556e+02
2.060000e-06	5.671879e-06	1.070338e-08	4.060333e+01	7.017631e+02
2.070000e-06	5.564388e-06	1.060907e-08	3.983384e+01	6.955446e+02
2.080000e-06	5.454940e-06	1.052690e-08	3.905033e+01	6.890994e+02
2.090000e-06	5.343472e-06	1.041590e-08	3.825237e+01	6.824337e+02
2.100000e-06	5.229996e-06	1.032207e-08	3.744002e+01	6.755584e+02
2.110000e-06	5.114555e-06	1.021985e-08	3.661362e+01	6.684872e+02
2.120000e-06	4.997129e-06	1.010198e-08	3.577300e+01	6.612333e+02
2.130000e-06	4.877734e-06	9.972357e-09	3.491828e+01	6.538065e+02
2.140000e-06	4.756562e-06	9.863700e-09	3.405085e+01	6.462106e+02
2.150000e-06	4.633682e-06	9.754680e-09	3.317119e+01	6.384415e+02
2.160000e-06	4.509046e-06	9.628458e-09	3.227895e+01	6.304865e+02
2.170000e-06	4.382807e-06	9.501769e-09	3.137524e+01	6.223257e+02
2.180000e-06	4.255031e-06	9.378313e-09	3.046053e+01	6.139331e+02
2.190000e-06	4.125660e-06	9.251926e-09	2.953440e+01	6.052806e+02
2.200000e-06	3.994786e-06	9.111574e-09	2.859751e+01	5.963407e+02
2.210000e-06	3.862390e-06	8.972314e-09	2.764973e+01	5.870905e+02
2.220000e-06	3.728551e-06	8.821200e-09	2.669162e+01	5.775140e+02
2.230000e-06	3.593301e-06	8.660384e-09	2.572340e+01	5.676043e+02
2.240000e-06	3.456726e-06	8.498812e-09	2.474570e+01	5.573634e+02
2.250000e-06	3.318859e-06	8.345283e-09	2.375875e+01	5.468010e+02
2.260000e-06	3.179628e-06	8.187348e-09	2.276204e+01	5.359314e+02
2.270000e-06	3.039109e-06	8.021226e-09	2.175610e+01	5.247700e+02
2.280000e-06	2.897384e-06	7.850086e-09	2.074153e+01	5.133286e+02
2.290000e-06	2.754552e-06	7.676419e-09	1.971904e+01	5.016116e+02
2.300000e-06	2.610672e-06	7.496863e-09	1.868904e+01	4.896130e+02
2.310000e-06	2.465906e-06	7.309562e-09	1.765270e+01	4.773145e+02
2.320000e-06	2.320338e-06	7.113216e-09	1.661063e+01	4.646861e+02
2.330000e-06	2.174002e-06	6.903463e-09	1.556305e+01	4.516881e+02
2.340000e-06	2.026941e-06	6.689592e-09	1.451028e+01	4.382752e+02
2.350000e-06	1.879209e-06	6.476119e-09	1.345271e+01	4.244011e+02
2.360000e-06	1.730851e-06	6.259758e-09	1.239066e+01	4.100243e+02
2.370000e-06	1.581906e-06	6.034630e-09	1.132441e+01	3.951120e+02
2.380000e-06	1.432464e-06	5.802157e-09	1.025460e+01	3.796438e+02
2.390000e-06	1.282558e-06	5.562249e-09	9.181459e+00	3.636127e+02
2.400000e-06	1.132264e-06	5.311739e-09	8.105548e+00	3.470231e+02
2.410000e-06	9.816067e-07	5.052254e-09	7.027037e+00	3.298866e+02
2.420000e-06	8.305911e-07	4.786567e-09	5.945961e+00	3.122161e+02
2.430000e-06	6.793114e-07	4.508330e-09	4.862993e+00	2.940173e+02
2.440000e-06	5.278336e-07	4.217639e-09	3.778608e+00	2.752812e+02
2.450000e-06	3.761716e-07	3.921101e-09	2.692903e+00	2.559768e+02
2.460000e-06	2.243445e-07	3.617678e-09	1.606017e+00	2.360463e+02
2.470000e-06	7.240960e-08	3.302850e-09	5.183593e-01	2.154043e+02
2.480000e-06	-7.954559e-08	2.970796e-09	-5.694438e-01	1.939403e+02
2.490000e-06	-2.314896e-07	2.622666e-09	-1.657167e+00	1.715262e+02
2.500000e-06	-3.834202e-07	2.258908e-09	-2.744794e+00	1.480276e+02
2.510000e-06	-5.352621e-07	1.879374e-09	-3.831786e+00	1.233180e+02
2.520000e-06	-6.869160e-07	1.486616e-09	-4.917433e+00	9.729568e+01
2.530000e-06	-8.383444e-07	1.075552e-09	-6.001464e+00	6.989908e+01
2.540000e-06	-9.895265e-07	6.434789e-10	-7.083733e+00	4.112162e+01
2.550000e-06	-1.140349e-06	1.909983e-10	-8.163424e+00	1.102212e+01
2.560000e-06	-1.290724e-06	-2.791534e-10	-9.239921e+00	-2.026965e+01
2.570000e-06	-1.440623e-06	-7.663425e-10	-1.031300e+01	-5.255353e+01
2.580000e-06	-1.590054e-06	-1.273321e-09	-1.138274e+01	-8.556594e+01
2.590000e-06	-1.738982e-06	-1.794816e-09	-1.244887e+01	-1.189927e+02
2.600000e-06	-1.887295e-06	-2.321730e-09	-1.351060e+01	-1.524869e+02
2.610000e-06	-2.034775e-06	-2.843745e-09	-1.456637e+01	-1.856897e+02
2.620000e-06	-2.181356e-06	-3.349469e-09	-1.561569e+01	-2.182525e+02
2.630000e-06	-2.327183e-06	-3.831915e-09	-1.665963e+01	-2.498585e+02
2.640000e-06	-2.472198e-06	-4.290850e-09	-1.769775e+01	-2.802406e+02
2.650000e-06	-2.616304e-06	-4.727183e-09	-1.872936e+01	-3.091949e+02
2.660000e-06	-2.759391e-06	-5.138250e-09	-1.975368e+01	-3.365889e+02
2.670000e-06	-2.901374e-06	-5.524649e-09	-2.077010e+01	-3.623623e+02
2.680000e-06	-3.042247e-06	-5.888408e-09	-2.177856e+01	-3.865229e+02
2.690000e-06	-3.181838e-06	-6.231361e-09	-2.277785e+01	-4.091361e+02
2.700000e-06	-3.320082e-06	-6.558710e-09	-2.376751e+01	-4.303113e+02
2.710000e-06	-3.457081e-06	-6.869522e-09	-2.474824e+01	-4.501861e+02
2.720000e-06	-3.592839e-06	-7.160711e-09	-2.572009e+01	-4.689095e+02
2.730000e-06	-3.727305e-06	-7.432965e-09	-2.668270e+01	-4.866273e+02
2.740000e-06	-3.860433e-06	-7.689842e-09	-2.763572e+01	-5.034701e+02
2.750000e-06	-3.992121e-06	-7.937129e-09	-2.857844e+01	-5.195452e+02
2.760000e-06	-4.122372e-06	-8.176314e-09	-2.951087e+01	-5.349321e+02
2.770000e-06	-4.251317e-06	-8.404283e-09	-3.043395e+01	-5.496835e+02
2.780000e-06	-4.378775e-06	-8.618908e-09	-3.134638e+01	-5.638280e+02
2.790000e-06	-4.504712e-06	-8.820693e-09	-3.224793e+01	-5.773770e+02
2.800000e-06	-4.629163e-06	-9.014108e-09	-3.313884e+01	-5.903314e+02
2.810000e-06	-4.751920e-06	-9.200416e-09	-3.401762e+01	-6.026896e+02
2.820000e-06	-4.872964e-06	-9.379265e-09	-3.488414e+01	-6.144535e+02
2.830000e-06	-4.992201e-06	-9.547882e-09	-3.573772e+01	-6.256331e+02
2.840000e-06	-5.109493e-06	-9.707114e-09	-3.657738e+01	-6.362488e+02
2.850000e-06	-5.224680e-06	-9.862623e-09	-3.740197e+01	-6.463310e+02
2.860000e-06	-5.337704e-06	-1.001494e-08	-3.821108e+01	-6.559185e+02
2.870000e-06	-5.448652e-06	-1.015845e-08	-3.900532e+01	-6.650541e+02
2.880000e-06	-5.557608e-06	-1.029067e-08	-3.978530e+01	-6.737809e+02
2.890000e-06	-5.664674e-06	-1.041703e-08	-4.055176e+01	-6.821380e+02
2.900000e-06	-5.769763e-06	-1.054038e-08	-4.130406e+01	-6.901575e+02
2.910000e-06	-5.872738e-06	-1.065814e-08	-4.204123e+01	-6.978618e+02
2.920000e-06	-5.973490e-06	-1.076893e-08	-4.276248e+01	-7.052644e+02
2.930000e-06	-6.072059e-06	-1.087550e-08	-4.346811e+01	-7.123700e+02
2.940000e-06	-6.168512e-06	-1.097850e-08	-4.415858e+01	-7.191779e+02
