# Temperatura_=_43.03
# Concentracion g/m^3_=_10000.0
# C_Vs_to_Am_M_A/Vsm_=_65563218390.804596
# pendiente_HvsI_1/m_=_3716.3
# ordenada_HvsI_A/m_=_1297.0
# frecuencia_Hz_=_302552.1027565924

Tiempo_(s)	Campo_(V.s)	Magnetizacion_(V.s)	Campo_(kA/m)	Magnetizacion_(A/m)
0.000000e+00	-7.956702e-06	-1.118419e-08	-5.685009e+01	-7.335879e+02
1.000000e-08	-7.953232e-06	-1.118356e-08	-5.682530e+01	-7.332370e+02
2.000000e-08	-7.947139e-06	-1.118037e-08	-5.678176e+01	-7.327809e+02
3.000000e-08	-7.938455e-06	-1.117649e-08	-5.671972e+01	-7.322328e+02
4.000000e-08	-7.926928e-06	-1.117162e-08	-5.663735e+01	-7.316052e+02
5.000000e-08	-7.912359e-06	-1.116235e-08	-5.653326e+01	-7.309083e+02
6.000000e-08	-7.894981e-06	-1.115059e-08	-5.640910e+01	-7.301483e+02
7.000000e-08	-7.875297e-06	-1.113977e-08	-5.626846e+01	-7.293270e+02
8.000000e-08	-7.853305e-06	-1.113479e-08	-5.611132e+01	-7.284420e+02
9.000000e-08	-7.828386e-06	-1.114304e-08	-5.593328e+01	-7.274870e+02
1.000000e-07	-7.800207e-06	-1.112712e-08	-5.573194e+01	-7.264532e+02
1.100000e-07	-7.769031e-06	-1.108031e-08	-5.550920e+01	-7.253309e+02
1.200000e-07	-7.735084e-06	-1.105148e-08	-5.526665e+01	-7.241107e+02
1.300000e-07	-7.698552e-06	-1.103141e-08	-5.500563e+01	-7.227850e+02
1.400000e-07	-7.659670e-06	-1.099574e-08	-5.472782e+01	-7.213487e+02
1.500000e-07	-7.618562e-06	-1.094287e-08	-5.443410e+01	-7.197995e+02
1.600000e-07	-7.575103e-06	-1.092743e-08	-5.412359e+01	-7.181381e+02
1.700000e-07	-7.528959e-06	-1.092252e-08	-5.379390e+01	-7.163665e+02
1.800000e-07	-7.480019e-06	-1.083698e-08	-5.344422e+01	-7.144876e+02
1.900000e-07	-7.428178e-06	-1.084688e-08	-5.307382e+01	-7.125041e+02
2.000000e-07	-7.373457e-06	-1.086583e-08	-5.268285e+01	-7.104168e+02
2.100000e-07	-7.316035e-06	-1.082392e-08	-5.227257e+01	-7.082243e+02
2.200000e-07	-7.255954e-06	-1.081204e-08	-5.184330e+01	-7.059229e+02
2.300000e-07	-7.193239e-06	-1.073921e-08	-5.139520e+01	-7.035066e+02
2.400000e-07	-7.127810e-06	-1.066851e-08	-5.092772e+01	-7.009679e+02
2.500000e-07	-7.059647e-06	-1.062289e-08	-5.044069e+01	-6.982993e+02
2.600000e-07	-6.988822e-06	-1.060708e-08	-4.993466e+01	-6.954940e+02
2.700000e-07	-6.915239e-06	-1.056917e-08	-4.940891e+01	-6.925475e+02
2.800000e-07	-6.838860e-06	-1.049286e-08	-4.886319e+01	-6.894581e+02
2.900000e-07	-6.759678e-06	-1.042568e-08	-4.829744e+01	-6.862271e+02
3.000000e-07	-6.677861e-06	-1.037520e-08	-4.771286e+01	-6.828586e+02
3.100000e-07	-6.593837e-06	-1.034845e-08	-4.711251e+01	-6.793587e+02
3.200000e-07	-6.507594e-06	-1.030958e-08	-4.649632e+01	-6.757340e+02
3.300000e-07	-6.418920e-06	-1.025743e-08	-4.586274e+01	-6.719898e+02
3.400000e-07	-6.327850e-06	-1.020381e-08	-4.521206e+01	-6.681294e+02
3.500000e-07	-6.234517e-06	-1.013827e-08	-4.454520e+01	-6.641522e+02
3.600000e-07	-6.138949e-06	-1.007485e-08	-4.386237e+01	-6.600533e+02
3.700000e-07	-6.041090e-06	-1.000612e-08	-4.316317e+01	-6.558240e+02
3.800000e-07	-5.941033e-06	-9.935759e-09	-4.244828e+01	-6.514519e+02
3.900000e-07	-5.838912e-06	-9.863211e-09	-4.171863e+01	-6.469228e+02
4.000000e-07	-5.734720e-06	-9.783642e-09	-4.097418e+01	-6.422224e+02
4.100000e-07	-5.628490e-06	-9.709601e-09	-4.021517e+01	-6.373380e+02
4.200000e-07	-5.520236e-06	-9.642613e-09	-3.944171e+01	-6.322602e+02
4.300000e-07	-5.410011e-06	-9.568259e-09	-3.865416e+01	-6.269841e+02
4.400000e-07	-5.297875e-06	-9.468769e-09	-3.785296e+01	-6.215097e+02
4.500000e-07	-5.183676e-06	-9.373390e-09	-3.703701e+01	-6.158411e+02
4.600000e-07	-5.067376e-06	-9.300158e-09	-3.620606e+01	-6.099856e+02
4.700000e-07	-4.949200e-06	-9.222076e-09	-3.536169e+01	-6.039517e+02
4.800000e-07	-4.829276e-06	-9.127064e-09	-3.450485e+01	-5.977468e+02
4.900000e-07	-4.707613e-06	-9.026063e-09	-3.363557e+01	-5.913749e+02
5.000000e-07	-4.584216e-06	-8.916383e-09	-3.275391e+01	-5.848348e+02
5.100000e-07	-4.459168e-06	-8.800317e-09	-3.186045e+01	-5.781194e+02
5.200000e-07	-4.332550e-06	-8.698798e-09	-3.095578e+01	-5.712151e+02
5.300000e-07	-4.204346e-06	-8.605249e-09	-3.003976e+01	-5.641028e+02
5.400000e-07	-4.074568e-06	-8.490269e-09	-2.911251e+01	-5.567597e+02
5.500000e-07	-3.943219e-06	-8.358384e-09	-2.817403e+01	-5.491618e+02
5.600000e-07	-3.810373e-06	-8.239803e-09	-2.722486e+01	-5.412864e+02
5.700000e-07	-3.676159e-06	-8.127609e-09	-2.626590e+01	-5.331148e+02
5.800000e-07	-3.540463e-06	-7.996454e-09	-2.529637e+01	-5.246336e+02
5.900000e-07	-3.403356e-06	-7.858870e-09	-2.431674e+01	-5.158365e+02
6.000000e-07	-3.264945e-06	-7.725905e-09	-2.332781e+01	-5.067232e+02
6.100000e-07	-3.125142e-06	-7.583395e-09	-2.232893e+01	-4.972983e+02
6.200000e-07	-2.983914e-06	-7.428950e-09	-2.131986e+01	-4.875689e+02
6.300000e-07	-2.841418e-06	-7.273999e-09	-2.030174e+01	-4.775415e+02
6.400000e-07	-2.697887e-06	-7.116472e-09	-1.927622e+01	-4.672186e+02
6.500000e-07	-2.553302e-06	-6.946479e-09	-1.824317e+01	-4.565964e+02
6.600000e-07	-2.407814e-06	-6.773328e-09	-1.720367e+01	-4.456625e+02
6.700000e-07	-2.261639e-06	-6.605313e-09	-1.615926e+01	-4.343954e+02
6.800000e-07	-2.114721e-06	-6.433373e-09	-1.510954e+01	-4.227655e+02
6.900000e-07	-1.967046e-06	-6.249040e-09	-1.405441e+01	-4.107376e+02
7.000000e-07	-1.818680e-06	-6.055990e-09	-1.299434e+01	-3.982738e+02
7.100000e-07	-1.669775e-06	-5.857439e-09	-1.193043e+01	-3.853377e+02
7.200000e-07	-1.520454e-06	-5.653038e-09	-1.086354e+01	-3.718982e+02
7.300000e-07	-1.370727e-06	-5.444302e-09	-9.793747e+00	-3.579326e+02
7.400000e-07	-1.220633e-06	-5.226582e-09	-8.721342e+00	-3.434281e+02
7.500000e-07	-1.070122e-06	-4.996532e-09	-7.645952e+00	-3.283814e+02
7.600000e-07	-9.190813e-07	-4.757355e-09	-6.566773e+00	-3.127965e+02
7.700000e-07	-7.676036e-07	-4.512269e-09	-5.484476e+00	-2.966804e+02
7.800000e-07	-6.158114e-07	-4.259839e-09	-4.399930e+00	-2.800375e+02
7.900000e-07	-4.637863e-07	-3.998955e-09	-3.313721e+00	-2.628630e+02
8.000000e-07	-3.116095e-07	-3.732239e-09	-2.226429e+00	-2.451373e+02
8.100000e-07	-1.593163e-07	-3.454510e-09	-1.138304e+00	-2.268211e+02
8.200000e-07	-6.909336e-09	-3.159803e-09	-4.936673e-02	-2.078536e+02
8.300000e-07	1.455612e-07	-2.852240e-09	1.040025e+00	-1.881534e+02
8.400000e-07	2.979739e-07	-2.534979e-09	2.129003e+00	-1.676226e+02
8.500000e-07	4.502902e-07	-2.205641e-09	3.217293e+00	-1.461551e+02
8.600000e-07	6.025043e-07	-1.861274e-09	4.304852e+00	-1.236473e+02
8.700000e-07	7.545877e-07	-1.501857e-09	5.391478e+00	-1.000110e+02
8.800000e-07	9.064137e-07	-1.128184e-09	6.476264e+00	-7.518657e+01
8.900000e-07	1.057827e-06	-7.358046e-10	7.558105e+00	-4.915603e+01
9.000000e-07	1.208816e-06	-3.229469e-10	8.636907e+00	-2.195291e+01
9.100000e-07	1.359333e-06	1.053391e-10	9.712338e+00	6.331073e+00
9.200000e-07	1.509299e-06	5.481151e-10	1.078384e+01	3.554426e+01
9.300000e-07	1.658764e-06	1.006463e-09	1.185175e+01	6.547849e+01
9.400000e-07	1.807712e-06	1.474830e-09	1.291598e+01	9.587773e+01
9.500000e-07	1.956031e-06	1.945596e-09	1.397570e+01	1.264513e+02
9.600000e-07	2.103630e-06	2.414510e-09	1.503029e+01	1.568904e+02
9.700000e-07	2.250440e-06	2.874262e-09	1.607924e+01	1.868864e+02
9.800000e-07	2.396422e-06	3.318257e-09	1.712227e+01	2.161499e+02
9.900000e-07	2.541549e-06	3.744281e-09	1.815919e+01	2.444266e+02
1.000000e-06	2.685739e-06	4.152609e-09	1.918942e+01	2.715117e+02
1.010000e-06	2.828901e-06	4.540349e-09	2.021231e+01	2.972585e+02
1.020000e-06	2.970998e-06	4.907490e-09	2.122758e+01	3.215822e+02
1.030000e-06	3.111879e-06	5.254503e-09	2.223417e+01	3.444585e+02
1.040000e-06	3.251360e-06	5.579659e-09	2.323074e+01	3.659172e+02
1.050000e-06	3.389511e-06	5.884616e-09	2.421782e+01	3.860321e+02
1.060000e-06	3.526374e-06	6.171000e-09	2.519570e+01	4.049077e+02
1.070000e-06	3.661890e-06	6.441797e-09	2.616395e+01	4.226657e+02
1.080000e-06	3.796104e-06	6.699260e-09	2.712290e+01	4.394313e+02
1.090000e-06	3.929076e-06	6.944912e-09	2.807298e+01	4.553217e+02
1.100000e-06	4.060658e-06	7.179964e-09	2.901313e+01	4.704376e+02
1.110000e-06	4.190747e-06	7.403515e-09	2.994260e+01	4.848575e+02
1.120000e-06	4.319385e-06	7.614043e-09	3.086171e+01	4.986368e+02
1.130000e-06	4.446488e-06	7.810158e-09	3.176985e+01	5.118088e+02
1.140000e-06	4.572044e-06	7.995263e-09	3.266694e+01	5.243896e+02
1.150000e-06	4.696070e-06	8.171708e-09	3.355310e+01	5.363841e+02
1.160000e-06	4.818458e-06	8.340618e-09	3.442755e+01	5.477919e+02
1.170000e-06	4.939103e-06	8.503873e-09	3.528955e+01	5.586142e+02
1.180000e-06	5.057925e-06	8.660754e-09	3.613853e+01	5.688583e+02
1.190000e-06	5.174892e-06	8.813439e-09	3.697425e+01	5.785406e+02
1.200000e-06	5.289859e-06	8.958747e-09	3.779568e+01	5.876876e+02
1.210000e-06	5.402685e-06	9.094182e-09	3.860181e+01	5.963351e+02
1.220000e-06	5.513488e-06	9.219508e-09	3.939350e+01	6.045250e+02
1.230000e-06	5.622389e-06	9.336547e-09	4.017159e+01	6.123023e+02
1.240000e-06	5.729321e-06	9.448403e-09	4.093560e+01	6.197106e+02
1.250000e-06	5.834152e-06	9.555241e-09	4.168461e+01	6.267889e+02
1.260000e-06	5.936830e-06	9.657400e-09	4.241825e+01	6.335687e+02
1.270000e-06	6.037399e-06	9.756037e-09	4.313680e+01	6.400725e+02
1.280000e-06	6.135728e-06	9.851443e-09	4.383935e+01	6.463138e+02
1.290000e-06	6.231672e-06	9.943472e-09	4.452487e+01	6.522986e+02
1.300000e-06	6.325343e-06	1.003036e-08	4.519415e+01	6.580271e+02
1.310000e-06	6.416838e-06	1.011278e-08	4.584787e+01	6.634969e+02
1.320000e-06	6.506015e-06	1.019223e-08	4.648503e+01	6.687058e+02
1.330000e-06	6.592792e-06	1.026586e-08	4.710505e+01	6.736537e+02
1.340000e-06	6.677338e-06	1.033444e-08	4.770912e+01	6.783448e+02
1.350000e-06	6.759645e-06	1.040034e-08	4.829720e+01	6.827875e+02
1.360000e-06	6.839425e-06	1.046546e-08	4.886723e+01	6.869947e+02
1.370000e-06	6.916616e-06	1.053098e-08	4.941875e+01	6.909817e+02
1.380000e-06	6.991205e-06	1.059301e-08	4.995168e+01	6.947649e+02
1.390000e-06	7.063149e-06	1.065012e-08	5.046572e+01	6.983594e+02
1.400000e-06	7.132607e-06	1.070263e-08	5.096199e+01	7.017772e+02
1.410000e-06	7.199544e-06	1.074981e-08	5.144025e+01	7.050261e+02
1.420000e-06	7.263902e-06	1.079388e-08	5.190008e+01	7.081089e+02
1.430000e-06	7.325781e-06	1.083487e-08	5.234220e+01	7.110239e+02
1.440000e-06	7.385156e-06	1.087371e-08	5.276644e+01	7.137661e+02
1.450000e-06	7.441874e-06	1.091165e-08	5.317168e+01	7.163285e+02
1.460000e-06	7.495885e-06	1.094855e-08	5.355758e+01	7.187048e+02
1.470000e-06	7.546908e-06	1.098352e-08	5.392214e+01	7.208908e+02
1.480000e-06	7.594867e-06	1.101490e-08	5.426481e+01	7.228861e+02
1.490000e-06	7.640106e-06	1.104239e-08	5.458803e+01	7.246951e+02
1.500000e-06	7.682614e-06	1.106639e-08	5.489175e+01	7.263268e+02
1.510000e-06	7.722317e-06	1.108952e-08	5.517543e+01	7.277943e+02
1.520000e-06	7.759352e-06	1.111112e-08	5.544004e+01	7.291131e+02
1.530000e-06	7.793703e-06	1.113003e-08	5.568547e+01	7.302994e+02
1.540000e-06	7.825240e-06	1.114742e-08	5.591080e+01	7.313680e+02
1.550000e-06	7.854038e-06	1.116407e-08	5.611656e+01	7.323306e+02
1.560000e-06	7.880027e-06	1.117896e-08	5.630225e+01	7.331943e+02
1.570000e-06	7.903080e-06	1.119101e-08	5.646697e+01	7.339613e+02
1.580000e-06	7.923415e-06	1.120065e-08	5.661226e+01	7.346291e+02
1.590000e-06	7.941034e-06	1.120787e-08	5.673814e+01	7.351914e+02
1.600000e-06	7.955642e-06	1.121425e-08	5.684251e+01	7.356395e+02
1.610000e-06	7.967044e-06	1.122105e-08	5.692399e+01	7.359646e+02
1.620000e-06	7.975347e-06	1.122681e-08	5.698331e+01	7.361596e+02
1.630000e-06	7.980810e-06	1.123001e-08	5.702234e+01	7.362202e+02
1.640000e-06	7.983491e-06	1.123059e-08	5.704150e+01	7.361468e+02
1.650000e-06	7.983308e-06	1.122824e-08	5.704019e+01	7.359440e+02
1.660000e-06	7.980438e-06	1.122022e-08	5.701968e+01	7.356207e+02
1.670000e-06	7.974983e-06	1.121055e-08	5.698071e+01	7.351888e+02
1.680000e-06	7.966807e-06	1.120355e-08	5.692229e+01	7.346617e+02
1.690000e-06	7.955961e-06	1.119480e-08	5.684480e+01	7.340521e+02
1.700000e-06	7.942292e-06	1.118439e-08	5.674713e+01	7.333710e+02
1.710000e-06	7.925911e-06	1.117372e-08	5.663009e+01	7.326256e+02
1.720000e-06	7.907264e-06	1.115605e-08	5.649686e+01	7.318189e+02
1.730000e-06	7.886301e-06	1.111828e-08	5.634708e+01	7.309494e+02
1.740000e-06	7.862409e-06	1.106888e-08	5.617637e+01	7.300119e+02
1.750000e-06	7.834998e-06	1.107355e-08	5.598052e+01	7.289979e+02
1.760000e-06	7.804073e-06	1.108168e-08	5.575957e+01	7.278979e+02
1.770000e-06	7.770245e-06	1.105370e-08	5.551787e+01	7.267022e+02
1.780000e-06	7.734074e-06	1.104287e-08	5.525943e+01	7.254026e+02
1.790000e-06	7.695610e-06	1.107645e-08	5.498460e+01	7.239934e+02
1.800000e-06	7.655019e-06	1.106136e-08	5.469459e+01	7.224717e+02
1.810000e-06	7.612257e-06	1.099780e-08	5.438905e+01	7.208374e+02
1.820000e-06	7.566912e-06	1.102010e-08	5.406507e+01	7.190922e+02
1.830000e-06	7.518919e-06	1.096223e-08	5.372216e+01	7.172392e+02
1.840000e-06	7.468071e-06	1.090383e-08	5.335886e+01	7.152808e+02
1.850000e-06	7.414150e-06	1.085231e-08	5.297359e+01	7.132187e+02
1.860000e-06	7.357466e-06	1.077549e-08	5.256859e+01	7.110520e+02
1.870000e-06	7.298166e-06	1.079438e-08	5.214489e+01	7.087775e+02
1.880000e-06	7.236144e-06	1.077009e-08	5.170176e+01	7.063897e+02
1.890000e-06	7.171347e-06	1.077219e-08	5.123879e+01	7.038816e+02
1.900000e-06	7.103773e-06	1.073430e-08	5.075597e+01	7.012453e+02
1.910000e-06	7.033421e-06	1.063506e-08	5.025331e+01	6.984739e+02
1.920000e-06	6.960287e-06	1.059351e-08	4.973077e+01	6.955622e+02
1.930000e-06	6.884436e-06	1.055185e-08	4.918882e+01	6.925077e+02
1.940000e-06	6.805833e-06	1.054634e-08	4.862721e+01	6.893110e+02
1.950000e-06	6.724672e-06	1.049887e-08	4.804732e+01	6.859756e+02
1.960000e-06	6.641106e-06	1.042199e-08	4.745025e+01	6.825072e+02
1.970000e-06	6.555069e-06	1.035030e-08	4.683552e+01	6.789122e+02
1.980000e-06	6.466596e-06	1.026405e-08	4.620338e+01	6.751967e+02
1.990000e-06	6.375816e-06	1.022131e-08	4.555477e+01	6.713645e+02
2.000000e-06	6.282868e-06	1.018255e-08	4.489066e+01	6.674159e+02
2.010000e-06	6.187642e-06	1.014259e-08	4.421028e+01	6.633474e+02
2.020000e-06	6.090136e-06	1.006007e-08	4.351361e+01	6.591509e+02
2.030000e-06	5.990447e-06	9.969738e-09	4.280133e+01	6.548149e+02
2.040000e-06	5.888609e-06	9.896947e-09	4.207371e+01	6.503257e+02
2.050000e-06	5.784683e-06	9.831907e-09	4.133117e+01	6.456686e+02
2.060000e-06	5.678787e-06	9.765998e-09	4.057455e+01	6.408304e+02
2.070000e-06	5.571027e-06	9.682033e-09	3.980461e+01	6.358008e+02
2.080000e-06	5.461349e-06	9.614002e-09	3.902097e+01	6.305737e+02
2.090000e-06	5.349673e-06	9.534968e-09	3.822305e+01	6.251478e+02
2.100000e-06	5.235971e-06	9.448186e-09	3.741066e+01	6.195263e+02
2.110000e-06	5.120263e-06	9.367358e-09	3.658393e+01	6.137160e+02
2.120000e-06	5.002519e-06	9.276316e-09	3.574265e+01	6.077251e+02
2.130000e-06	4.882817e-06	9.160952e-09	3.488739e+01	6.015616e+02
2.140000e-06	4.761334e-06	9.056374e-09	3.401941e+01	5.952305e+02
2.150000e-06	4.638184e-06	8.977496e-09	3.313951e+01	5.887321e+02
2.160000e-06	4.513321e-06	8.892851e-09	3.224737e+01	5.820608e+02
2.170000e-06	4.386757e-06	8.781193e-09	3.134308e+01	5.752045e+02
2.180000e-06	4.258584e-06	8.658424e-09	3.042729e+01	5.681454e+02
2.190000e-06	4.128875e-06	8.548449e-09	2.950053e+01	5.608614e+02
2.200000e-06	3.997654e-06	8.435245e-09	2.856296e+01	5.533287e+02
2.210000e-06	3.864895e-06	8.323489e-09	2.761441e+01	5.455238e+02
2.220000e-06	3.730698e-06	8.211255e-09	2.665559e+01	5.374269e+02
2.230000e-06	3.595126e-06	8.077666e-09	2.568693e+01	5.290232e+02
2.240000e-06	3.458258e-06	7.921979e-09	2.470902e+01	5.203046e+02
2.250000e-06	3.320119e-06	7.775576e-09	2.372203e+01	5.112692e+02
2.260000e-06	3.180654e-06	7.648308e-09	2.272555e+01	5.019208e+02
2.270000e-06	3.039866e-06	7.518936e-09	2.171963e+01	4.922660e+02
2.280000e-06	2.897851e-06	7.372158e-09	2.070494e+01	4.823118e+02
2.290000e-06	2.754696e-06	7.217239e-09	1.968211e+01	4.720621e+02
2.300000e-06	2.610544e-06	7.058839e-09	1.865216e+01	4.615148e+02
2.310000e-06	2.465517e-06	6.892802e-09	1.761595e+01	4.506596e+02
2.320000e-06	2.319664e-06	6.723401e-09	1.657384e+01	4.394775e+02
2.330000e-06	2.173136e-06	6.543826e-09	1.552691e+01	4.279407e+02
2.340000e-06	2.025869e-06	6.349686e-09	1.447469e+01	4.160150e+02
2.350000e-06	1.877762e-06	6.150647e-09	1.341648e+01	4.036629e+02
2.360000e-06	1.728944e-06	5.958452e-09	1.235319e+01	3.908472e+02
2.370000e-06	1.579610e-06	5.764867e-09	1.128620e+01	3.775353e+02
2.380000e-06	1.429864e-06	5.559023e-09	1.021628e+01	3.637020e+02
2.390000e-06	1.279740e-06	5.339952e-09	9.143652e+00	3.493320e+02
2.400000e-06	1.129156e-06	5.110826e-09	8.067742e+00	3.344199e+02
2.410000e-06	9.780998e-07	4.877742e-09	6.988456e+00	3.189681e+02
2.420000e-06	8.267495e-07	4.640083e-09	5.907068e+00	3.029835e+02
2.430000e-06	6.751468e-07	4.390663e-09	4.823878e+00	2.864715e+02
2.440000e-06	5.233392e-07	4.123771e-09	3.739223e+00	2.694302e+02
2.450000e-06	3.713799e-07	3.845418e-09	2.653484e+00	2.518443e+02
2.460000e-06	2.193010e-07	3.565872e-09	1.566891e+00	2.336798e+02
2.470000e-06	6.711889e-08	3.284632e-09	4.795599e-01	2.148812e+02
2.480000e-06	-8.521283e-08	2.992419e-09	-6.088399e-01	1.953721e+02
2.490000e-06	-2.375861e-07	2.682086e-09	-1.697536e+00	1.750579e+02
2.500000e-06	-3.898913e-07	2.353314e-09	-2.785747e+00	1.538338e+02
2.510000e-06	-5.420635e-07	2.009143e-09	-3.873007e+00	1.315944e+02
2.520000e-06	-6.940098e-07	1.652383e-09	-4.958652e+00	1.082463e+02
2.530000e-06	-8.456950e-07	1.282843e-09	-6.042433e+00	8.372159e+01
2.540000e-06	-9.971034e-07	8.949815e-10	-7.124235e+00	5.799080e+01
2.550000e-06	-1.148131e-06	4.873172e-10	-8.203315e+00	3.107377e+01
2.560000e-06	-1.298766e-06	6.421706e-11	-9.279594e+00	3.047303e+00
2.570000e-06	-1.448979e-06	-3.718778e-10	-1.035286e+01	-2.595180e+01
2.580000e-06	-1.598663e-06	-8.222475e-10	-1.142234e+01	-5.572890e+01
2.590000e-06	-1.747801e-06	-1.287748e-09	-1.248792e+01	-8.603885e+01
2.600000e-06	-1.896349e-06	-1.763019e-09	-1.354928e+01	-1.165982e+02
2.610000e-06	-2.044103e-06	-2.239911e-09	-1.460498e+01	-1.471009e+02
2.620000e-06	-2.190939e-06	-2.709833e-09	-1.565411e+01	-1.772368e+02
2.630000e-06	-2.337012e-06	-3.163830e-09	-1.669779e+01	-2.067096e+02
2.640000e-06	-2.482338e-06	-3.597500e-09	-1.773613e+01	-2.352551e+02
2.650000e-06	-2.626661e-06	-4.012619e-09	-1.876731e+01	-2.626551e+02
2.660000e-06	-2.769906e-06	-4.407705e-09	-1.979079e+01	-2.887477e+02
2.670000e-06	-2.912098e-06	-4.778217e-09	-2.080674e+01	-3.134325e+02
2.680000e-06	-3.053100e-06	-5.123853e-09	-2.181419e+01	-3.366706e+02
2.690000e-06	-3.192822e-06	-5.451731e-09	-2.281249e+01	-3.584791e+02
2.700000e-06	-3.331293e-06	-5.767070e-09	-2.380186e+01	-3.789219e+02
2.710000e-06	-3.468589e-06	-6.067427e-09	-2.478283e+01	-3.980972e+02
2.720000e-06	-3.604589e-06	-6.350335e-09	-2.575454e+01	-4.161236e+02
2.730000e-06	-3.739212e-06	-6.614292e-09	-2.671641e+01	-4.331266e+02
2.740000e-06	-3.872465e-06	-6.860486e-09	-2.766849e+01	-4.492264e+02
2.750000e-06	-4.004288e-06	-7.093607e-09	-2.861036e+01	-4.645285e+02
2.760000e-06	-4.134691e-06	-7.319187e-09	-2.954208e+01	-4.791171e+02
2.770000e-06	-4.263777e-06	-7.535886e-09	-3.046439e+01	-4.930534e+02
2.780000e-06	-4.391436e-06	-7.738129e-09	-3.137651e+01	-5.063759e+02
2.790000e-06	-4.517580e-06	-7.927822e-09	-3.227780e+01	-5.191046e+02
2.800000e-06	-4.642189e-06	-8.108374e-09	-3.316813e+01	-5.312464e+02
2.810000e-06	-4.765104e-06	-8.282172e-09	-3.404634e+01	-5.428017e+02
2.820000e-06	-4.886342e-06	-8.449104e-09	-3.491258e+01	-5.537708e+02
2.830000e-06	-5.005776e-06	-8.606406e-09	-3.576592e+01	-5.641591e+02
2.840000e-06	-5.123168e-06	-8.755881e-09	-3.660469e+01	-5.739805e+02
2.850000e-06	-5.238481e-06	-8.899824e-09	-3.742859e+01	-5.832592e+02
2.860000e-06	-5.351638e-06	-9.038691e-09	-3.823708e+01	-5.920286e+02
2.870000e-06	-5.462680e-06	-9.168835e-09	-3.903047e+01	-6.003295e+02
2.880000e-06	-5.571755e-06	-9.288709e-09	-3.980981e+01	-6.082065e+02
2.890000e-06	-5.678943e-06	-9.402212e-09	-4.057566e+01	-6.157040e+02
2.900000e-06	-5.784236e-06	-9.511110e-09	-4.132797e+01	-6.228624e+02
2.910000e-06	-5.887357e-06	-9.614700e-09	-4.206476e+01	-6.297151e+02
2.920000e-06	-5.988193e-06	-9.714822e-09	-4.278523e+01	-6.362871e+02
2.930000e-06	-6.086872e-06	-9.813116e-09	-4.349028e+01	-6.425940e+02
2.940000e-06	-6.183443e-06	-9.906428e-09	-4.418028e+01	-6.486435e+02
