# Temperatura_=_33.01
# Concentracion g/m^3_=_10000.0
# C_Vs_to_Am_M_A/Vsm_=_65563218390.804596
# pendiente_HvsI_1/m_=_3716.3
# ordenada_HvsI_A/m_=_1297.0
# frecuencia_Hz_=_302547.49262959516

Tiempo_(s)	Campo_(V.s)	Magnetizacion_(V.s)	Campo_(kA/m)	Magnetizacion_(A/m)
0.000000e+00	-7.887792e-06	-1.098151e-08	-5.685363e+01	-7.201095e+02
1.000000e-08	-7.884589e-06	-1.098510e-08	-5.683054e+01	-7.198221e+02
2.000000e-08	-7.878767e-06	-1.098046e-08	-5.678858e+01	-7.194129e+02
3.000000e-08	-7.870364e-06	-1.097577e-08	-5.672801e+01	-7.188927e+02
4.000000e-08	-7.859140e-06	-1.097248e-08	-5.664711e+01	-7.182755e+02
5.000000e-08	-7.844961e-06	-1.096430e-08	-5.654492e+01	-7.175772e+02
6.000000e-08	-7.827936e-06	-1.095051e-08	-5.642220e+01	-7.168143e+02
7.000000e-08	-7.808547e-06	-1.093478e-08	-5.628245e+01	-7.160016e+02
8.000000e-08	-7.786962e-06	-1.091058e-08	-5.612687e+01	-7.151514e+02
9.000000e-08	-7.762566e-06	-1.097026e-08	-5.595102e+01	-7.142717e+02
1.000000e-07	-7.734910e-06	-1.098866e-08	-5.575169e+01	-7.133659e+02
1.100000e-07	-7.704229e-06	-1.089643e-08	-5.553054e+01	-7.124321e+02
1.200000e-07	-7.670856e-06	-1.085362e-08	-5.529000e+01	-7.114639e+02
1.300000e-07	-7.634879e-06	-1.084385e-08	-5.503068e+01	-7.104505e+02
1.400000e-07	-7.596502e-06	-1.081429e-08	-5.475407e+01	-7.093780e+02
1.500000e-07	-7.556004e-06	-1.073241e-08	-5.446217e+01	-7.082305e+02
1.600000e-07	-7.513226e-06	-1.075584e-08	-5.415384e+01	-7.069909e+02
1.700000e-07	-7.467817e-06	-1.079522e-08	-5.382653e+01	-7.056423e+02
1.800000e-07	-7.419688e-06	-1.061480e-08	-5.347963e+01	-7.041688e+02
1.900000e-07	-7.368679e-06	-1.071151e-08	-5.311197e+01	-7.025565e+02
2.000000e-07	-7.314699e-06	-1.072444e-08	-5.272289e+01	-7.007938e+02
2.100000e-07	-7.257997e-06	-1.060189e-08	-5.231420e+01	-6.988717e+02
2.200000e-07	-7.198652e-06	-1.064406e-08	-5.188645e+01	-6.967844e+02
2.300000e-07	-7.136693e-06	-1.054568e-08	-5.143986e+01	-6.945291e+02
2.400000e-07	-7.072124e-06	-1.052880e-08	-5.097446e+01	-6.921059e+02
2.500000e-07	-7.004836e-06	-1.046137e-08	-5.048946e+01	-6.895179e+02
2.600000e-07	-6.934891e-06	-1.043102e-08	-4.998531e+01	-6.867704e+02
2.700000e-07	-6.862240e-06	-1.040473e-08	-4.946166e+01	-6.838707e+02
2.800000e-07	-6.786789e-06	-1.033707e-08	-4.891782e+01	-6.808276e+02
2.900000e-07	-6.708579e-06	-1.028209e-08	-4.835410e+01	-6.776502e+02
3.000000e-07	-6.627719e-06	-1.022588e-08	-4.777128e+01	-6.743476e+02
3.100000e-07	-6.544501e-06	-1.023430e-08	-4.717146e+01	-6.709272e+02
3.200000e-07	-6.459090e-06	-1.014831e-08	-4.655583e+01	-6.673945e+02
3.300000e-07	-6.371429e-06	-1.007248e-08	-4.592399e+01	-6.637521e+02
3.400000e-07	-6.281398e-06	-1.005990e-08	-4.527506e+01	-6.599992e+02
3.500000e-07	-6.189071e-06	-9.998406e-09	-4.460959e+01	-6.561313e+02
3.600000e-07	-6.094552e-06	-9.919926e-09	-4.392832e+01	-6.521408e+02
3.700000e-07	-5.997815e-06	-9.853919e-09	-4.323105e+01	-6.480172e+02
3.800000e-07	-5.898898e-06	-9.807472e-09	-4.251808e+01	-6.437486e+02
3.900000e-07	-5.797877e-06	-9.726084e-09	-4.178994e+01	-6.393225e+02
4.000000e-07	-5.694806e-06	-9.641907e-09	-4.104703e+01	-6.347271e+02
4.100000e-07	-5.589712e-06	-9.583188e-09	-4.028953e+01	-6.299531e+02
4.200000e-07	-5.482598e-06	-9.523203e-09	-3.951747e+01	-6.249936e+02
4.300000e-07	-5.373523e-06	-9.434318e-09	-3.873128e+01	-6.198458e+02
4.400000e-07	-5.262537e-06	-9.333721e-09	-3.793132e+01	-6.145101e+02
4.500000e-07	-5.149561e-06	-9.266489e-09	-3.711701e+01	-6.089896e+02
4.600000e-07	-5.034498e-06	-9.195410e-09	-3.628766e+01	-6.032894e+02
4.700000e-07	-4.917495e-06	-9.097456e-09	-3.544433e+01	-5.974149e+02
4.800000e-07	-4.798737e-06	-9.003539e-09	-3.458834e+01	-5.913701e+02
4.900000e-07	-4.678260e-06	-8.917722e-09	-3.371996e+01	-5.851562e+02
5.000000e-07	-4.556090e-06	-8.812815e-09	-3.283939e+01	-5.787702e+02
5.100000e-07	-4.432232e-06	-8.700343e-09	-3.194664e+01	-5.722045e+02
5.200000e-07	-4.306792e-06	-8.600837e-09	-3.104250e+01	-5.654469e+02
5.300000e-07	-4.179753e-06	-8.501136e-09	-3.012683e+01	-5.584810e+02
5.400000e-07	-4.051201e-06	-8.384727e-09	-2.920025e+01	-5.512878e+02
5.500000e-07	-3.921230e-06	-8.268616e-09	-2.826344e+01	-5.438472e+02
5.600000e-07	-3.789679e-06	-8.159142e-09	-2.731525e+01	-5.361403e+02
5.700000e-07	-3.656625e-06	-8.043289e-09	-2.635622e+01	-5.281509e+02
5.800000e-07	-3.522262e-06	-7.910375e-09	-2.538776e+01	-5.198668e+02
5.900000e-07	-3.386597e-06	-7.777930e-09	-2.440992e+01	-5.112810e+02
6.000000e-07	-3.249636e-06	-7.646318e-09	-2.342273e+01	-5.023910e+02
6.100000e-07	-3.111378e-06	-7.506415e-09	-2.242619e+01	-4.931979e+02
6.200000e-07	-2.971735e-06	-7.360178e-09	-2.141967e+01	-4.837052e+02
6.300000e-07	-2.830765e-06	-7.209292e-09	-2.040359e+01	-4.739157e+02
6.400000e-07	-2.688635e-06	-7.053058e-09	-1.937915e+01	-4.638298e+02
6.500000e-07	-2.545503e-06	-6.889111e-09	-1.834748e+01	-4.534433e+02
6.600000e-07	-2.401417e-06	-6.727179e-09	-1.730894e+01	-4.427455e+02
6.700000e-07	-2.256387e-06	-6.560879e-09	-1.626358e+01	-4.317186e+02
6.800000e-07	-2.110580e-06	-6.388449e-09	-1.521264e+01	-4.203387e+02
6.900000e-07	-1.964100e-06	-6.210643e-09	-1.415684e+01	-4.085767e+02
7.000000e-07	-1.816954e-06	-6.026150e-09	-1.309624e+01	-3.964007e+02
7.100000e-07	-1.669236e-06	-5.829811e-09	-1.203152e+01	-3.837794e+02
7.200000e-07	-1.521065e-06	-5.625735e-09	-1.096354e+01	-3.706850e+02
7.300000e-07	-1.372469e-06	-5.421978e-09	-9.892483e+00	-3.570953e+02
7.400000e-07	-1.223468e-06	-5.208602e-09	-8.818514e+00	-3.429962e+02
7.500000e-07	-1.074140e-06	-4.985025e-09	-7.742190e+00	-3.283812e+02
7.600000e-07	-9.245317e-07	-4.755945e-09	-6.663840e+00	-3.132506e+02
7.700000e-07	-7.745852e-07	-4.522510e-09	-5.583055e+00	-2.976089e+02
7.800000e-07	-6.242787e-07	-4.277288e-09	-4.499676e+00	-2.814602e+02
7.900000e-07	-4.737449e-07	-4.023529e-09	-3.414659e+00	-2.648040e+02
8.000000e-07	-3.230436e-07	-3.766057e-09	-2.328434e+00	-2.476296e+02
8.100000e-07	-1.721790e-07	-3.498113e-09	-1.241032e+00	-2.299128e+02
8.200000e-07	-2.122932e-08	-3.213715e-09	-1.530167e-01	-2.116125e+02
8.300000e-07	1.297344e-07	-2.918532e-09	9.350994e-01	-1.926706e+02
8.400000e-07	2.806903e-07	-2.617268e-09	2.023159e+00	-1.730140e+02
8.500000e-07	4.315781e-07	-2.302563e-09	3.110729e+00	-1.525594e+02
8.600000e-07	5.823319e-07	-1.973811e-09	4.197332e+00	-1.312210e+02
8.700000e-07	7.329133e-07	-1.633982e-09	5.282693e+00	-1.089201e+02
8.800000e-07	8.832509e-07	-1.283874e-09	6.366296e+00	-8.559507e+01
8.900000e-07	1.033301e-06	-9.154058e-10	7.447828e+00	-6.121295e+01
9.000000e-07	1.182986e-06	-5.291751e-10	8.526729e+00	-3.577836e+01
9.100000e-07	1.332240e-06	-1.296935e-10	9.602518e+00	-9.341049e+00
9.200000e-07	1.481047e-06	2.844412e-10	1.067509e+01	1.800017e+01
9.300000e-07	1.629445e-06	7.123848e-10	1.174471e+01	4.609734e+01
9.400000e-07	1.777377e-06	1.150222e-09	1.281098e+01	7.475747e+01
9.500000e-07	1.924620e-06	1.592125e-09	1.387228e+01	1.037507e+02
9.600000e-07	2.071100e-06	2.038143e-09	1.492808e+01	1.328218e+02
9.700000e-07	2.216844e-06	2.480802e-09	1.597857e+01	1.617041e+02
9.800000e-07	2.361730e-06	2.913713e-09	1.702288e+01	1.901348e+02
9.900000e-07	2.505671e-06	3.333355e-09	1.806038e+01	2.178695e+02
1.000000e-06	2.648628e-06	3.737600e-09	1.909078e+01	2.446955e+02
1.010000e-06	2.790621e-06	4.124970e-09	2.011424e+01	2.704424e+02
1.020000e-06	2.931588e-06	4.494146e-09	2.113030e+01	2.949885e+02
1.030000e-06	3.071281e-06	4.847706e-09	2.213718e+01	3.182634e+02
1.040000e-06	3.209616e-06	5.181355e-09	2.313427e+01	3.402464e+02
1.050000e-06	3.346687e-06	5.495236e-09	2.412226e+01	3.609610e+02
1.060000e-06	3.482512e-06	5.791782e-09	2.510126e+01	3.804663e+02
1.070000e-06	3.616992e-06	6.074644e-09	2.607056e+01	3.988467e+02
1.080000e-06	3.750191e-06	6.341775e-09	2.703063e+01	4.162007e+02
1.090000e-06	3.882114e-06	6.590901e-09	2.798150e+01	4.326305e+02
1.100000e-06	4.012574e-06	6.827910e-09	2.892183e+01	4.482320e+02
1.110000e-06	4.141597e-06	7.055260e-09	2.985180e+01	4.630890e+02
1.120000e-06	4.269202e-06	7.272267e-09	3.077156e+01	4.772678e+02
1.130000e-06	4.395299e-06	7.478134e-09	3.168044e+01	4.908170e+02
1.140000e-06	4.520015e-06	7.672609e-09	3.257936e+01	5.037677e+02
1.150000e-06	4.643213e-06	7.856554e-09	3.346735e+01	5.161375e+02
1.160000e-06	4.764654e-06	8.032367e-09	3.434268e+01	5.279344e+02
1.170000e-06	4.884394e-06	8.201455e-09	3.520574e+01	5.391626e+02
1.180000e-06	5.002375e-06	8.364431e-09	3.605612e+01	5.498265e+02
1.190000e-06	5.118432e-06	8.519985e-09	3.689264e+01	5.599349e+02
1.200000e-06	5.232465e-06	8.666281e-09	3.771456e+01	5.695036e+02
1.210000e-06	5.344538e-06	8.805884e-09	3.852236e+01	5.785557e+02
1.220000e-06	5.454716e-06	8.939250e-09	3.931650e+01	5.871218e+02
1.230000e-06	5.563030e-06	9.065969e-09	4.009721e+01	5.952374e+02
1.240000e-06	5.669346e-06	9.185987e-09	4.086352e+01	6.029405e+02
1.250000e-06	5.773537e-06	9.298186e-09	4.161450e+01	6.102687e+02
1.260000e-06	5.875622e-06	9.404001e-09	4.235031e+01	6.172563e+02
1.270000e-06	5.975552e-06	9.504984e-09	4.307058e+01	6.239323e+02
1.280000e-06	6.073225e-06	9.601670e-09	4.377459e+01	6.303189e+02
1.290000e-06	6.168596e-06	9.693259e-09	4.446201e+01	6.364316e+02
1.300000e-06	6.261772e-06	9.779700e-09	4.513361e+01	6.422798e+02
1.310000e-06	6.352668e-06	9.862611e-09	4.578876e+01	6.478684e+02
1.320000e-06	6.441206e-06	9.943605e-09	4.642693e+01	6.531998e+02
1.330000e-06	6.527490e-06	1.002111e-08	4.704885e+01	6.582759e+02
1.340000e-06	6.611540e-06	1.009378e-08	4.765466e+01	6.630997e+02
1.350000e-06	6.693262e-06	1.016126e-08	4.824369e+01	6.676768e+02
1.360000e-06	6.772508e-06	1.022679e-08	4.881489e+01	6.720156e+02
1.370000e-06	6.849272e-06	1.029180e-08	4.936819e+01	6.761275e+02
1.380000e-06	6.923398e-06	1.035356e-08	4.990247e+01	6.800254e+02
1.390000e-06	6.994900e-06	1.041004e-08	5.041784e+01	6.837224e+02
1.400000e-06	7.064029e-06	1.046294e-08	5.091612e+01	6.872308e+02
1.410000e-06	7.130681e-06	1.051477e-08	5.139653e+01	6.905602e+02
1.420000e-06	7.194695e-06	1.056448e-08	5.185793e+01	6.937167e+02
1.430000e-06	7.256258e-06	1.061055e-08	5.230166e+01	6.967022e+02
1.440000e-06	7.315396e-06	1.065203e-08	5.272791e+01	6.995153e+02
1.450000e-06	7.371859e-06	1.068935e-08	5.313489e+01	7.021515e+02
1.460000e-06	7.425642e-06	1.072298e-08	5.352254e+01	7.046051e+02
1.470000e-06	7.476458e-06	1.075455e-08	5.388882e+01	7.068706e+02
1.480000e-06	7.524218e-06	1.078602e-08	5.423306e+01	7.089442e+02
1.490000e-06	7.569346e-06	1.081599e-08	5.455834e+01	7.108259e+02
1.500000e-06	7.611827e-06	1.084207e-08	5.486453e+01	7.125194e+02
1.510000e-06	7.651491e-06	1.086485e-08	5.515042e+01	7.140331e+02
1.520000e-06	7.688456e-06	1.088628e-08	5.541686e+01	7.153792e+02
1.530000e-06	7.722744e-06	1.090663e-08	5.566400e+01	7.165727e+02
1.540000e-06	7.754274e-06	1.092339e-08	5.589126e+01	7.176301e+02
1.550000e-06	7.783104e-06	1.093685e-08	5.609906e+01	7.185672e+02
1.560000e-06	7.809107e-06	1.094928e-08	5.628648e+01	7.193976e+02
1.570000e-06	7.832212e-06	1.096043e-08	5.645302e+01	7.201313e+02
1.580000e-06	7.852631e-06	1.097217e-08	5.660020e+01	7.207738e+02
1.590000e-06	7.870295e-06	1.098211e-08	5.672752e+01	7.213257e+02
1.600000e-06	7.884969e-06	1.098962e-08	5.683328e+01	7.217834e+02
1.610000e-06	7.896577e-06	1.099497e-08	5.691696e+01	7.221399e+02
1.620000e-06	7.905108e-06	1.099725e-08	5.697844e+01	7.223863e+02
1.630000e-06	7.910798e-06	1.099930e-08	5.701945e+01	7.225141e+02
1.640000e-06	7.913762e-06	1.100130e-08	5.704082e+01	7.225161e+02
1.650000e-06	7.913857e-06	1.100496e-08	5.704150e+01	7.223887e+02
1.660000e-06	7.911271e-06	1.099589e-08	5.702286e+01	7.221323e+02
1.670000e-06	7.906118e-06	1.098538e-08	5.698572e+01	7.217522e+02
1.680000e-06	7.898284e-06	1.097982e-08	5.692926e+01	7.212579e+02
1.690000e-06	7.887781e-06	1.097106e-08	5.685355e+01	7.206629e+02
1.700000e-06	7.874464e-06	1.096308e-08	5.675756e+01	7.199828e+02
1.710000e-06	7.858472e-06	1.095984e-08	5.664230e+01	7.192339e+02
1.720000e-06	7.840162e-06	1.095873e-08	5.651032e+01	7.184318e+02
1.730000e-06	7.819577e-06	1.093550e-08	5.636195e+01	7.175895e+02
1.740000e-06	7.796205e-06	1.080412e-08	5.619349e+01	7.167161e+02
1.750000e-06	7.769445e-06	1.081983e-08	5.600061e+01	7.158162e+02
1.760000e-06	7.739153e-06	1.087584e-08	5.578227e+01	7.148892e+02
1.770000e-06	7.705822e-06	1.083857e-08	5.554203e+01	7.139299e+02
1.780000e-06	7.670194e-06	1.082571e-08	5.528523e+01	7.129284e+02
1.790000e-06	7.632295e-06	1.092534e-08	5.501206e+01	7.118716e+02
1.800000e-06	7.592229e-06	1.086789e-08	5.472327e+01	7.107438e+02
1.810000e-06	7.550039e-06	1.071328e-08	5.441918e+01	7.095283e+02
1.820000e-06	7.505281e-06	1.091253e-08	5.409657e+01	7.082079e+02
1.830000e-06	7.457923e-06	1.077314e-08	5.375522e+01	7.067664e+02
1.840000e-06	7.407794e-06	1.077231e-08	5.339390e+01	7.051894e+02
1.850000e-06	7.354645e-06	1.078975e-08	5.301081e+01	7.034647e+02
1.860000e-06	7.298700e-06	1.061829e-08	5.260757e+01	7.015825e+02
1.870000e-06	7.240085e-06	1.074740e-08	5.218509e+01	6.995363e+02
1.880000e-06	7.178903e-06	1.060501e-08	5.174410e+01	6.973225e+02
1.890000e-06	7.114977e-06	1.064721e-08	5.128334e+01	6.949406e+02
1.900000e-06	7.048242e-06	1.063735e-08	5.080232e+01	6.923928e+02
1.910000e-06	6.978838e-06	1.047558e-08	5.030207e+01	6.896839e+02
1.920000e-06	6.906633e-06	1.050864e-08	4.978164e+01	6.868209e+02
1.930000e-06	6.831764e-06	1.043363e-08	4.924199e+01	6.838122e+02
1.940000e-06	6.754205e-06	1.047253e-08	4.868296e+01	6.806670e+02
1.950000e-06	6.673972e-06	1.034620e-08	4.810466e+01	6.773943e+02
1.960000e-06	6.591326e-06	1.029801e-08	4.750896e+01	6.740021e+02
1.970000e-06	6.506334e-06	1.028887e-08	4.689636e+01	6.704966e+02
1.980000e-06	6.418862e-06	1.014155e-08	4.626588e+01	6.668810e+02
1.990000e-06	6.329034e-06	1.014333e-08	4.561841e+01	6.631554e+02
2.000000e-06	6.237166e-06	1.007831e-08	4.495625e+01	6.593162e+02
2.010000e-06	6.143048e-06	1.004298e-08	4.427786e+01	6.553567e+02
2.020000e-06	6.046581e-06	9.927008e-09	4.358255e+01	6.512669e+02
2.030000e-06	5.947981e-06	9.868314e-09	4.287186e+01	6.470352e+02
2.040000e-06	5.847327e-06	9.830484e-09	4.214637e+01	6.426490e+02
2.050000e-06	5.744570e-06	9.748426e-09	4.140572e+01	6.380963e+02
2.060000e-06	5.639742e-06	9.668149e-09	4.065013e+01	6.333671e+02
2.070000e-06	5.533009e-06	9.580379e-09	3.988083e+01	6.284539e+02
2.080000e-06	5.424426e-06	9.534418e-09	3.909818e+01	6.233527e+02
2.090000e-06	5.313936e-06	9.433803e-09	3.830179e+01	6.180631e+02
2.100000e-06	5.201431e-06	9.363055e-09	3.749088e+01	6.125878e+02
2.110000e-06	5.086944e-06	9.277905e-09	3.666567e+01	6.069315e+02
2.120000e-06	4.970547e-06	9.184514e-09	3.582671e+01	6.010995e+02
2.130000e-06	4.852144e-06	9.067241e-09	3.497329e+01	5.950965e+02
2.140000e-06	4.731800e-06	8.984136e-09	3.410587e+01	5.889243e+02
2.150000e-06	4.609762e-06	8.911774e-09	3.322624e+01	5.825812e+02
2.160000e-06	4.486103e-06	8.811117e-09	3.233494e+01	5.760609e+02
2.170000e-06	4.360882e-06	8.697999e-09	3.143237e+01	5.693521e+02
2.180000e-06	4.234040e-06	8.586193e-09	3.051812e+01	5.624394e+02
2.190000e-06	4.105488e-06	8.485419e-09	2.959154e+01	5.553043e+02
2.200000e-06	3.975486e-06	8.366072e-09	2.865451e+01	5.479268e+02
2.210000e-06	3.844032e-06	8.253603e-09	2.770701e+01	5.402876e+02
2.220000e-06	3.711134e-06	8.131040e-09	2.674911e+01	5.323695e+02
2.230000e-06	3.576903e-06	8.002340e-09	2.578160e+01	5.241594e+02
2.240000e-06	3.441257e-06	7.863481e-09	2.480390e+01	5.156489e+02
2.250000e-06	3.304282e-06	7.736800e-09	2.381661e+01	5.068343e+02
2.260000e-06	3.166151e-06	7.606716e-09	2.282099e+01	4.977162e+02
2.270000e-06	3.026801e-06	7.465034e-09	2.181658e+01	4.882974e+02
2.280000e-06	2.886205e-06	7.314262e-09	2.080319e+01	4.785813e+02
2.290000e-06	2.744535e-06	7.163553e-09	1.978206e+01	4.685692e+02
2.300000e-06	2.601838e-06	7.010793e-09	1.875353e+01	4.582580e+02
2.310000e-06	2.458095e-06	6.850745e-09	1.771746e+01	4.476388e+02
2.320000e-06	2.313438e-06	6.683776e-09	1.667480e+01	4.366956e+02
2.330000e-06	2.168055e-06	6.502000e-09	1.562691e+01	4.254060e+02
2.340000e-06	2.022001e-06	6.315280e-09	1.457418e+01	4.137418e+02
2.350000e-06	1.875238e-06	6.130490e-09	1.351634e+01	4.016717e+02
2.360000e-06	1.727808e-06	5.946668e-09	1.245370e+01	3.891640e+02
2.370000e-06	1.579816e-06	5.751706e-09	1.138700e+01	3.761896e+02
2.380000e-06	1.431302e-06	5.544509e-09	1.031654e+01	3.627249e+02
2.390000e-06	1.282355e-06	5.330205e-09	9.242959e+00	3.487534e+02
2.400000e-06	1.133071e-06	5.108314e-09	8.166951e+00	3.342670e+02
2.410000e-06	9.835256e-07	4.878832e-09	7.089056e+00	3.192644e+02
2.420000e-06	8.337558e-07	4.646083e-09	6.009546e+00	3.037494e+02
2.430000e-06	6.836859e-07	4.403176e-09	4.927872e+00	2.877267e+02
2.440000e-06	5.333406e-07	4.146990e-09	3.844213e+00	2.711972e+02
2.450000e-06	3.828153e-07	3.883771e-09	2.759256e+00	2.541535e+02
2.460000e-06	2.321087e-07	3.617658e-09	1.672993e+00	2.365749e+02
2.470000e-06	8.126564e-08	3.342552e-09	5.857465e-01	2.184247e+02
2.480000e-06	-6.964932e-08	3.052844e-09	-5.020184e-01	1.996490e+02
2.490000e-06	-2.205849e-07	2.751133e-09	-1.589932e+00	1.801779e+02
2.500000e-06	-3.713941e-07	2.438642e-09	-2.676935e+00	1.599303e+02
2.510000e-06	-5.220402e-07	2.115507e-09	-3.762762e+00	1.388202e+02
2.520000e-06	-6.725417e-07	1.782060e-09	-4.847547e+00	1.167659e+02
2.530000e-06	-8.228250e-07	1.435418e-09	-5.930759e+00	9.370075e+01
2.540000e-06	-9.728318e-07	1.068989e-09	-7.011978e+00	6.958351e+01
2.550000e-06	-1.122543e-06	6.836558e-10	-8.091065e+00	4.440865e+01
2.560000e-06	-1.271923e-06	2.866226e-10	-9.167770e+00	1.821413e+01
2.570000e-06	-1.420939e-06	-1.207809e-10	-1.024185e+01	-8.913687e+00
2.580000e-06	-1.569538e-06	-5.437982e-10	-1.131292e+01	-3.683890e+01
2.590000e-06	-1.717513e-06	-9.841000e-10	-1.237949e+01	-6.537915e+01
2.600000e-06	-1.864764e-06	-1.434121e-09	-1.344085e+01	-9.431283e+01
2.610000e-06	-2.011315e-06	-1.886469e-09	-1.449716e+01	-1.233898e+02
2.620000e-06	-2.157124e-06	-2.335825e-09	-1.554812e+01	-1.523450e+02
2.630000e-06	-2.302272e-06	-2.775366e-09	-1.659431e+01	-1.809131e+02
2.640000e-06	-2.446588e-06	-3.201546e-09	-1.763452e+01	-2.088437e+02
2.650000e-06	-2.589730e-06	-3.615187e-09	-1.866626e+01	-2.359153e+02
2.660000e-06	-2.731722e-06	-4.010757e-09	-1.968970e+01	-2.619459e+02
2.670000e-06	-2.872675e-06	-4.385843e-09	-2.070567e+01	-2.868014e+02
2.680000e-06	-3.012544e-06	-4.742191e-09	-2.171382e+01	-3.103985e+02
2.690000e-06	-3.151203e-06	-5.080015e-09	-2.271324e+01	-3.327045e+02
2.700000e-06	-3.288718e-06	-5.401575e-09	-2.370442e+01	-3.537324e+02
2.710000e-06	-3.425052e-06	-5.705402e-09	-2.468709e+01	-3.735335e+02
2.720000e-06	-3.559990e-06	-5.991773e-09	-2.565970e+01	-3.921868e+02
2.730000e-06	-3.693621e-06	-6.259873e-09	-2.662288e+01	-4.097884e+02
2.740000e-06	-3.825983e-06	-6.513461e-09	-2.757692e+01	-4.264404e+02
2.750000e-06	-3.956912e-06	-6.758736e-09	-2.852063e+01	-4.422412e+02
2.760000e-06	-4.086515e-06	-6.995776e-09	-2.945478e+01	-4.572779e+02
2.770000e-06	-4.214794e-06	-7.220995e-09	-3.037940e+01	-4.716217e+02
2.780000e-06	-4.341511e-06	-7.431658e-09	-3.129275e+01	-4.853253e+02
2.790000e-06	-4.466720e-06	-7.630517e-09	-3.219523e+01	-4.984241e+02
2.800000e-06	-4.590391e-06	-7.817906e-09	-3.308662e+01	-5.109386e+02
2.810000e-06	-4.712427e-06	-7.993778e-09	-3.396624e+01	-5.228789e+02
2.820000e-06	-4.832787e-06	-8.161885e-09	-3.483376e+01	-5.342495e+02
2.830000e-06	-4.951258e-06	-8.323903e-09	-3.568768e+01	-5.450544e+02
2.840000e-06	-5.067738e-06	-8.480115e-09	-3.652724e+01	-5.553011e+02
2.850000e-06	-5.182134e-06	-8.631278e-09	-3.735179e+01	-5.650034e+02
2.860000e-06	-5.294423e-06	-8.776944e-09	-3.816115e+01	-5.741827e+02
2.870000e-06	-5.404677e-06	-8.912794e-09	-3.895583e+01	-5.828677e+02
2.880000e-06	-5.513053e-06	-9.037194e-09	-3.973698e+01	-5.910930e+02
2.890000e-06	-5.619675e-06	-9.153811e-09	-4.050550e+01	-5.988962e+02
2.900000e-06	-5.724344e-06	-9.265698e-09	-4.125993e+01	-6.063153e+02
2.910000e-06	-5.826793e-06	-9.373171e-09	-4.199837e+01	-6.133857e+02
2.920000e-06	-5.927000e-06	-9.474980e-09	-4.272063e+01	-6.201378e+02
2.930000e-06	-6.025139e-06	-9.573409e-09	-4.342800e+01	-6.265956e+02
2.940000e-06	-6.121171e-06	-9.669026e-09	-4.412018e+01	-6.327762e+02
