# Temperatura_=_32.4
# Concentracion g/m^3_=_10000.0
# C_Vs_to_Am_M_A/Vsm_=_65563218390.804596
# pendiente_HvsI_1/m_=_3716.3
# ordenada_HvsI_A/m_=_1297.0
# frecuencia_Hz_=_302553.0853619048

Tiempo_(s)	Campo_(V.s)	Magnetizacion_(V.s)	Campo_(kA/m)	Magnetizacion_(A/m)
0.000000e+00	-7.944070e-06	-1.118674e-08	-5.684439e+01	-7.335046e+02
1.000000e-08	-7.940193e-06	-1.118469e-08	-5.681665e+01	-7.331987e+02
2.000000e-08	-7.933773e-06	-1.118238e-08	-5.677071e+01	-7.327711e+02
3.000000e-08	-7.924712e-06	-1.117923e-08	-5.670588e+01	-7.322324e+02
4.000000e-08	-7.912808e-06	-1.117128e-08	-5.662070e+01	-7.315957e+02
5.000000e-08	-7.897922e-06	-1.115938e-08	-5.651418e+01	-7.308757e+02
6.000000e-08	-7.880282e-06	-1.114856e-08	-5.638796e+01	-7.300867e+02
7.000000e-08	-7.860359e-06	-1.113516e-08	-5.624540e+01	-7.292411e+02
8.000000e-08	-7.838033e-06	-1.115159e-08	-5.608564e+01	-7.283483e+02
9.000000e-08	-7.812720e-06	-1.117434e-08	-5.590451e+01	-7.274132e+02
1.000000e-07	-7.784198e-06	-1.112978e-08	-5.570042e+01	-7.264363e+02
1.100000e-07	-7.752749e-06	-1.108212e-08	-5.547538e+01	-7.254138e+02
1.200000e-07	-7.718539e-06	-1.105634e-08	-5.523059e+01	-7.243376e+02
1.300000e-07	-7.681755e-06	-1.102916e-08	-5.496738e+01	-7.231965e+02
1.400000e-07	-7.642733e-06	-1.098682e-08	-5.468816e+01	-7.219776e+02
1.500000e-07	-7.601494e-06	-1.094290e-08	-5.439307e+01	-7.206668e+02
1.600000e-07	-7.557765e-06	-1.096587e-08	-5.408016e+01	-7.192503e+02
1.700000e-07	-7.511300e-06	-1.090490e-08	-5.374767e+01	-7.177155e+02
1.800000e-07	-7.462039e-06	-1.087660e-08	-5.339519e+01	-7.160514e+02
1.900000e-07	-7.409903e-06	-1.092109e-08	-5.302212e+01	-7.142495e+02
2.000000e-07	-7.354890e-06	-1.084648e-08	-5.262847e+01	-7.123035e+02
2.100000e-07	-7.297152e-06	-1.082537e-08	-5.221533e+01	-7.102093e+02
2.200000e-07	-7.236792e-06	-1.079468e-08	-5.178342e+01	-7.079651e+02
2.300000e-07	-7.173871e-06	-1.072727e-08	-5.133318e+01	-7.055712e+02
2.400000e-07	-7.108266e-06	-1.067944e-08	-5.086374e+01	-7.030291e+02
2.500000e-07	-7.039920e-06	-1.064640e-08	-5.037468e+01	-7.003421e+02
2.600000e-07	-6.968864e-06	-1.062834e-08	-4.986623e+01	-6.975142e+02
2.700000e-07	-6.895048e-06	-1.057954e-08	-4.933804e+01	-6.945504e+02
2.800000e-07	-6.818458e-06	-1.053366e-08	-4.879000e+01	-6.914558e+02
2.900000e-07	-6.739093e-06	-1.046288e-08	-4.822209e+01	-6.882356e+02
3.000000e-07	-6.657181e-06	-1.042190e-08	-4.763596e+01	-6.848943e+02
3.100000e-07	-6.572944e-06	-1.037594e-08	-4.703320e+01	-6.814354e+02
3.200000e-07	-6.486394e-06	-1.029767e-08	-4.641389e+01	-6.778605e+02
3.300000e-07	-6.397505e-06	-1.026548e-08	-4.577784e+01	-6.741692e+02
3.400000e-07	-6.306348e-06	-1.023332e-08	-4.512555e+01	-6.703586e+02
3.500000e-07	-6.212966e-06	-1.016951e-08	-4.445735e+01	-6.664234e+02
3.600000e-07	-6.117259e-06	-1.009257e-08	-4.377251e+01	-6.623557e+02
3.700000e-07	-6.019276e-06	-1.003154e-08	-4.307139e+01	-6.581459e+02
3.800000e-07	-5.919114e-06	-9.961326e-09	-4.235467e+01	-6.537832e+02
3.900000e-07	-5.816813e-06	-9.881997e-09	-4.162265e+01	-6.492567e+02
4.000000e-07	-5.712471e-06	-9.818175e-09	-4.087602e+01	-6.445564e+02
4.100000e-07	-5.606156e-06	-9.754975e-09	-4.011527e+01	-6.396741e+02
4.200000e-07	-5.497839e-06	-9.680938e-09	-3.934020e+01	-6.346042e+02
4.300000e-07	-5.387586e-06	-9.583737e-09	-3.855128e+01	-6.293438e+02
4.400000e-07	-5.275362e-06	-9.498742e-09	-3.774826e+01	-6.238931e+02
4.500000e-07	-5.161027e-06	-9.424433e-09	-3.693012e+01	-6.182544e+02
4.600000e-07	-5.044698e-06	-9.337030e-09	-3.609772e+01	-6.124315e+02
4.700000e-07	-4.926519e-06	-9.242283e-09	-3.525208e+01	-6.064279e+02
4.800000e-07	-4.806535e-06	-9.158318e-09	-3.439353e+01	-6.002461e+02
4.900000e-07	-4.684773e-06	-9.065736e-09	-3.352225e+01	-5.938858e+02
5.000000e-07	-4.561335e-06	-8.951774e-09	-3.263898e+01	-5.873432e+02
5.100000e-07	-4.436283e-06	-8.842368e-09	-3.174416e+01	-5.806100e+02
5.200000e-07	-4.309590e-06	-8.741293e-09	-3.083760e+01	-5.736741e+02
5.300000e-07	-4.181337e-06	-8.634124e-09	-2.991988e+01	-5.665198e+02
5.400000e-07	-4.051548e-06	-8.516375e-09	-2.899116e+01	-5.591291e+02
5.500000e-07	-3.920242e-06	-8.405164e-09	-2.805159e+01	-5.514836e+02
5.600000e-07	-3.787455e-06	-8.294289e-09	-2.710142e+01	-5.435657e+02
5.700000e-07	-3.653217e-06	-8.165194e-09	-2.614087e+01	-5.353605e+02
5.800000e-07	-3.517573e-06	-8.021708e-09	-2.517026e+01	-5.268569e+02
5.900000e-07	-3.380563e-06	-7.883825e-09	-2.418987e+01	-5.180481e+02
6.000000e-07	-3.242176e-06	-7.749435e-09	-2.319963e+01	-5.089314e+02
6.100000e-07	-3.102451e-06	-7.607403e-09	-2.219983e+01	-4.995071e+02
6.200000e-07	-2.961388e-06	-7.462844e-09	-2.119044e+01	-4.897771e+02
6.300000e-07	-2.819045e-06	-7.314679e-09	-2.017189e+01	-4.797425e+02
6.400000e-07	-2.675568e-06	-7.155819e-09	-1.914523e+01	-4.694019e+02
6.500000e-07	-2.531091e-06	-6.985874e-09	-1.811141e+01	-4.587489e+02
6.600000e-07	-2.385888e-06	-6.816689e-09	-1.707240e+01	-4.477715e+02
6.700000e-07	-2.239857e-06	-6.645597e-09	-1.602747e+01	-4.364511e+02
6.800000e-07	-2.092942e-06	-6.466008e-09	-1.497621e+01	-4.247634e+02
6.900000e-07	-1.945393e-06	-6.280845e-09	-1.392041e+01	-4.126800e+02
7.000000e-07	-1.797250e-06	-6.087150e-09	-1.286036e+01	-4.001701e+02
7.100000e-07	-1.648573e-06	-5.887259e-09	-1.179649e+01	-3.872042e+02
7.200000e-07	-1.499467e-06	-5.681165e-09	-1.072955e+01	-3.737562e+02
7.300000e-07	-1.349913e-06	-5.471843e-09	-9.659404e+00	-3.598057e+02
7.400000e-07	-1.199853e-06	-5.254988e-09	-8.585636e+00	-3.453398e+02
7.500000e-07	-1.049272e-06	-5.027983e-09	-7.508148e+00	-3.303526e+02
7.600000e-07	-8.982288e-07	-4.795762e-09	-6.427344e+00	-3.148439e+02
7.700000e-07	-7.468585e-07	-4.553836e-09	-5.344203e+00	-2.988164e+02
7.800000e-07	-5.952585e-07	-4.299813e-09	-4.259418e+00	-2.822718e+02
7.900000e-07	-4.434796e-07	-4.036647e-09	-3.173352e+00	-2.652058e+02
8.000000e-07	-2.915396e-07	-3.770554e-09	-2.086134e+00	-2.476039e+02
8.100000e-07	-1.394706e-07	-3.494361e-09	-9.979925e-01	-2.294376e+02
8.200000e-07	1.268341e-08	-3.204877e-09	9.075709e-02	-2.106622e+02
8.300000e-07	1.648717e-07	-2.905013e-09	1.179752e+00	-1.912168e+02
8.400000e-07	3.170039e-07	-2.594539e-09	2.268346e+00	-1.710273e+02
8.500000e-07	4.690244e-07	-2.271683e-09	3.356140e+00	-1.500110e+02
8.600000e-07	6.209062e-07	-1.935324e-09	4.442941e+00	-1.280852e+02
8.700000e-07	7.726437e-07	-1.587263e-09	5.528710e+00	-1.051762e+02
8.800000e-07	9.241674e-07	-1.224999e-09	6.612950e+00	-8.122975e+01
8.900000e-07	1.075382e-06	-8.447036e-10	7.694978e+00	-5.622184e+01
9.000000e-07	1.226133e-06	-4.477712e-10	8.773690e+00	-3.016737e+01
9.100000e-07	1.376316e-06	-3.828066e-11	9.848332e+00	-3.126875e+00
9.200000e-07	1.525978e-06	3.838732e-10	1.091925e+01	2.479022e+01
9.300000e-07	1.675189e-06	8.171210e-10	1.198694e+01	5.342629e+01
9.400000e-07	1.823854e-06	1.260746e-09	1.305073e+01	8.258028e+01
9.500000e-07	1.971832e-06	1.710871e-09	1.410960e+01	1.120165e+02
9.600000e-07	2.119125e-06	2.164892e-09	1.516356e+01	1.414764e+02
9.700000e-07	2.265690e-06	2.616187e-09	1.621232e+01	1.706930e+02
9.800000e-07	2.411359e-06	3.054638e-09	1.725466e+01	1.994054e+02
9.900000e-07	2.556118e-06	3.478127e-09	1.829049e+01	2.273740e+02
1.000000e-06	2.699959e-06	3.884442e-09	1.931976e+01	2.543928e+02
1.010000e-06	2.842721e-06	4.274207e-09	2.034131e+01	2.802991e+02
1.020000e-06	2.984419e-06	4.647206e-09	2.135524e+01	3.049800e+02
1.030000e-06	3.124900e-06	5.002541e-09	2.236046e+01	3.283738e+02
1.040000e-06	3.264045e-06	5.338552e-09	2.335612e+01	3.504678e+02
1.050000e-06	3.401934e-06	5.654028e-09	2.434280e+01	3.712924e+02
1.060000e-06	3.538511e-06	5.953504e-09	2.532009e+01	3.909120e+02
1.070000e-06	3.673684e-06	6.238821e-09	2.628732e+01	4.094145e+02
1.080000e-06	3.807471e-06	6.508415e-09	2.724465e+01	4.269002e+02
1.090000e-06	3.939957e-06	6.761576e-09	2.819266e+01	4.434710e+02
1.100000e-06	4.071031e-06	7.003155e-09	2.913057e+01	4.592219e+02
1.110000e-06	4.200675e-06	7.234020e-09	3.005825e+01	4.742338e+02
1.120000e-06	4.328908e-06	7.452212e-09	3.097583e+01	4.885702e+02
1.130000e-06	4.455574e-06	7.657699e-09	3.188220e+01	5.022761e+02
1.140000e-06	4.580728e-06	7.852407e-09	3.277774e+01	5.153798e+02
1.150000e-06	4.704361e-06	8.039765e-09	3.366241e+01	5.278959e+02
1.160000e-06	4.826327e-06	8.219366e-09	3.453515e+01	5.398309e+02
1.170000e-06	4.946568e-06	8.390895e-09	3.539554e+01	5.511876e+02
1.180000e-06	5.065030e-06	8.554510e-09	3.624321e+01	5.619701e+02
1.190000e-06	5.181619e-06	8.711186e-09	3.707747e+01	5.721878e+02
1.200000e-06	5.296165e-06	8.860932e-09	3.789711e+01	5.818573e+02
1.210000e-06	5.408568e-06	9.002823e-09	3.870142e+01	5.910034e+02
1.220000e-06	5.518971e-06	9.136381e-09	3.949141e+01	5.996579e+02
1.230000e-06	5.627542e-06	9.263314e-09	4.026831e+01	6.078581e+02
1.240000e-06	5.734131e-06	9.383766e-09	4.103101e+01	6.156432e+02
1.250000e-06	5.838581e-06	9.497718e-09	4.177841e+01	6.230518e+02
1.260000e-06	5.940916e-06	9.606471e-09	4.251067e+01	6.301188e+02
1.270000e-06	6.041124e-06	9.709642e-09	4.322772e+01	6.368733e+02
1.280000e-06	6.139064e-06	9.807389e-09	4.392854e+01	6.433374e+02
1.290000e-06	6.234642e-06	9.899568e-09	4.461245e+01	6.495262e+02
1.300000e-06	6.327974e-06	9.987300e-09	4.528030e+01	6.554482e+02
1.310000e-06	6.419046e-06	1.007353e-08	4.593197e+01	6.611075e+02
1.320000e-06	6.507740e-06	1.015694e-08	4.656662e+01	6.665056e+02
1.330000e-06	6.594140e-06	1.023399e-08	4.718487e+01	6.716434e+02
1.340000e-06	6.678307e-06	1.030528e-08	4.778713e+01	6.765233e+02
1.350000e-06	6.760095e-06	1.037327e-08	4.837237e+01	6.811500e+02
1.360000e-06	6.839350e-06	1.044031e-08	4.893949e+01	6.855317e+02
1.370000e-06	6.916074e-06	1.050648e-08	4.948850e+01	6.896791e+02
1.380000e-06	6.990155e-06	1.056835e-08	5.001858e+01	6.936049e+02
1.390000e-06	7.061622e-06	1.062630e-08	5.052997e+01	6.973226e+02
1.400000e-06	7.130626e-06	1.068170e-08	5.102373e+01	7.008444e+02
1.410000e-06	7.197085e-06	1.073455e-08	5.149929e+01	7.041804e+02
1.420000e-06	7.260932e-06	1.078357e-08	5.195615e+01	7.073373e+02
1.430000e-06	7.322301e-06	1.082636e-08	5.239528e+01	7.103179e+02
1.440000e-06	7.381196e-06	1.086647e-08	5.281671e+01	7.131217e+02
1.450000e-06	7.437475e-06	1.090499e-08	5.321942e+01	7.157455e+02
1.460000e-06	7.491077e-06	1.094058e-08	5.360297e+01	7.181846e+02
1.470000e-06	7.541643e-06	1.097282e-08	5.396480e+01	7.204350e+02
1.480000e-06	7.589145e-06	1.100193e-08	5.430470e+01	7.224942e+02
1.490000e-06	7.633973e-06	1.102955e-08	5.462547e+01	7.243629e+02
1.500000e-06	7.676163e-06	1.105663e-08	5.492736e+01	7.260460e+02
1.510000e-06	7.715578e-06	1.108365e-08	5.520941e+01	7.275522e+02
1.520000e-06	7.752321e-06	1.110786e-08	5.547232e+01	7.288940e+02
1.530000e-06	7.786332e-06	1.112779e-08	5.571569e+01	7.300861e+02
1.540000e-06	7.817463e-06	1.114420e-08	5.593845e+01	7.311444e+02
1.550000e-06	7.845868e-06	1.115877e-08	5.614170e+01	7.320839e+02
1.560000e-06	7.871451e-06	1.117239e-08	5.632477e+01	7.329172e+02
1.570000e-06	7.894107e-06	1.118416e-08	5.648688e+01	7.336532e+02
1.580000e-06	7.914061e-06	1.119413e-08	5.662967e+01	7.342961e+02
1.590000e-06	7.931193e-06	1.120227e-08	5.675225e+01	7.348459e+02
1.600000e-06	7.945271e-06	1.121014e-08	5.685299e+01	7.352983e+02
1.610000e-06	7.956283e-06	1.121746e-08	5.693179e+01	7.356460e+02
1.620000e-06	7.964251e-06	1.122246e-08	5.698880e+01	7.358805e+02
1.630000e-06	7.969350e-06	1.122505e-08	5.702529e+01	7.359935e+02
1.640000e-06	7.971615e-06	1.122539e-08	5.704150e+01	7.359788e+02
1.650000e-06	7.971045e-06	1.122180e-08	5.703741e+01	7.358334e+02
1.660000e-06	7.967845e-06	1.121341e-08	5.701452e+01	7.355586e+02
1.670000e-06	7.961999e-06	1.120752e-08	5.697269e+01	7.351600e+02
1.680000e-06	7.953473e-06	1.120001e-08	5.691168e+01	7.346472e+02
1.690000e-06	7.942299e-06	1.119026e-08	5.683172e+01	7.340330e+02
1.700000e-06	7.928326e-06	1.118357e-08	5.673174e+01	7.333318e+02
1.710000e-06	7.911711e-06	1.117745e-08	5.661285e+01	7.325582e+02
1.720000e-06	7.892811e-06	1.116512e-08	5.647761e+01	7.317251e+02
1.730000e-06	7.871518e-06	1.109478e-08	5.632524e+01	7.308428e+02
1.740000e-06	7.847254e-06	1.106067e-08	5.615162e+01	7.299174e+02
1.750000e-06	7.819520e-06	1.108309e-08	5.595317e+01	7.289506e+02
1.760000e-06	7.788288e-06	1.107302e-08	5.572968e+01	7.279394e+02
1.770000e-06	7.754204e-06	1.105355e-08	5.548579e+01	7.268769e+02
1.780000e-06	7.717768e-06	1.107303e-08	5.522507e+01	7.257526e+02
1.790000e-06	7.679012e-06	1.109476e-08	5.494775e+01	7.245538e+02
1.800000e-06	7.638155e-06	1.100605e-08	5.465540e+01	7.232667e+02
1.810000e-06	7.595085e-06	1.103662e-08	5.434721e+01	7.218772e+02
1.820000e-06	7.549400e-06	1.103970e-08	5.402030e+01	7.203724e+02
1.830000e-06	7.501054e-06	1.096970e-08	5.367436e+01	7.187409e+02
1.840000e-06	7.449800e-06	1.099126e-08	5.330761e+01	7.169736e+02
1.850000e-06	7.395573e-06	1.087774e-08	5.291958e+01	7.150634e+02
1.860000e-06	7.338640e-06	1.086895e-08	5.251220e+01	7.130058e+02
1.870000e-06	7.279025e-06	1.086673e-08	5.208562e+01	7.107986e+02
1.880000e-06	7.216730e-06	1.083167e-08	5.163986e+01	7.084413e+02
1.890000e-06	7.151724e-06	1.084099e-08	5.117470e+01	7.059354e+02
1.900000e-06	7.084001e-06	1.073159e-08	5.069011e+01	7.032836e+02
1.910000e-06	7.013468e-06	1.067510e-08	5.018540e+01	7.004899e+02
1.920000e-06	6.940144e-06	1.062020e-08	4.966072e+01	6.975589e+02
1.930000e-06	6.864170e-06	1.062164e-08	4.911709e+01	6.944959e+02
1.940000e-06	6.785458e-06	1.058690e-08	4.855386e+01	6.913060e+02
1.950000e-06	6.704144e-06	1.051204e-08	4.797201e+01	6.879940e+02
1.960000e-06	6.620321e-06	1.049038e-08	4.737221e+01	6.845636e+02
1.970000e-06	6.534009e-06	1.039337e-08	4.675459e+01	6.810170e+02
1.980000e-06	6.445305e-06	1.032572e-08	4.611987e+01	6.773543e+02
1.990000e-06	6.354380e-06	1.027534e-08	4.546925e+01	6.735734e+02
2.000000e-06	6.261276e-06	1.023804e-08	4.480304e+01	6.696693e+02
2.010000e-06	6.165852e-06	1.016188e-08	4.412022e+01	6.656349e+02
2.020000e-06	6.068207e-06	1.008956e-08	4.342152e+01	6.614610e+02
2.030000e-06	5.968445e-06	1.003733e-08	4.270766e+01	6.571369e+02
2.040000e-06	5.866573e-06	9.965916e-09	4.197871e+01	6.526517e+02
2.050000e-06	5.762614e-06	9.880889e-09	4.123482e+01	6.479951e+02
2.060000e-06	5.656718e-06	9.784934e-09	4.047708e+01	6.431583e+02
2.070000e-06	5.548887e-06	9.731329e-09	3.970548e+01	6.381351e+02
2.080000e-06	5.439025e-06	9.660122e-09	3.891936e+01	6.329218e+02
2.090000e-06	5.327166e-06	9.582693e-09	3.811894e+01	6.275179e+02
2.100000e-06	5.213335e-06	9.498245e-09	3.730441e+01	6.219252e+02
2.110000e-06	5.097457e-06	9.411180e-09	3.647524e+01	6.161473e+02
2.120000e-06	4.979590e-06	9.299449e-09	3.563184e+01	6.101880e+02
2.130000e-06	4.859913e-06	9.195514e-09	3.477548e+01	6.040500e+02
2.140000e-06	4.738466e-06	9.118768e-09	3.390645e+01	5.977339e+02
2.150000e-06	4.615255e-06	9.035067e-09	3.302481e+01	5.912368e+02
2.160000e-06	4.490324e-06	8.927820e-09	3.213085e+01	5.845516e+02
2.170000e-06	4.363744e-06	8.810551e-09	3.122510e+01	5.776671e+02
2.180000e-06	4.235609e-06	8.703401e-09	3.030822e+01	5.705684e+02
2.190000e-06	4.105930e-06	8.587665e-09	2.938030e+01	5.632379e+02
2.200000e-06	3.974729e-06	8.468975e-09	2.844148e+01	5.556572e+02
2.210000e-06	3.842086e-06	8.352260e-09	2.749234e+01	5.478083e+02
2.220000e-06	3.707960e-06	8.238375e-09	2.653259e+01	5.396754e+02
2.230000e-06	3.572410e-06	8.107823e-09	2.556265e+01	5.312466e+02
2.240000e-06	3.435579e-06	7.972661e-09	2.458355e+01	5.225139e+02
2.250000e-06	3.297378e-06	7.837959e-09	2.359464e+01	5.134736e+02
2.260000e-06	3.157825e-06	7.695432e-09	2.259606e+01	5.041254e+02
2.270000e-06	3.017043e-06	7.541886e-09	2.158868e+01	4.944710e+02
2.280000e-06	2.875083e-06	7.390282e-09	2.057287e+01	4.845120e+02
2.290000e-06	2.732036e-06	7.245887e-09	1.954929e+01	4.742476e+02
2.300000e-06	2.588068e-06	7.092470e-09	1.851912e+01	4.636729e+02
2.310000e-06	2.443308e-06	6.926050e-09	1.748328e+01	4.527774e+02
2.320000e-06	2.297702e-06	6.748362e-09	1.644138e+01	4.415442e+02
2.330000e-06	2.151236e-06	6.562312e-09	1.539334e+01	4.299503e+02
2.340000e-06	2.003970e-06	6.375200e-09	1.433956e+01	4.179680e+02
2.350000e-06	1.855959e-06	6.190203e-09	1.328046e+01	4.055670e+02
2.360000e-06	1.707345e-06	6.001363e-09	1.221703e+01	3.927171e+02
2.370000e-06	1.558278e-06	5.798185e-09	1.115037e+01	3.793911e+02
2.380000e-06	1.408789e-06	5.584221e-09	1.008070e+01	3.655671e+02
2.390000e-06	1.258760e-06	5.364563e-09	9.007154e+00	3.512303e+02
2.400000e-06	1.108219e-06	5.138013e-09	7.929944e+00	3.363729e+02
2.410000e-06	9.572870e-07	4.905151e-09	6.849940e+00	3.209938e+02
2.420000e-06	8.060814e-07	4.665805e-09	5.767977e+00	3.050951e+02
2.430000e-06	6.546502e-07	4.415386e-09	4.684399e+00	2.886792e+02
2.440000e-06	5.029856e-07	4.153714e-09	3.599152e+00	2.717438e+02
2.450000e-06	3.512252e-07	3.887379e-09	2.513218e+00	2.542773e+02
2.460000e-06	1.993809e-07	3.614248e-09	1.426685e+00	2.362550e+02
2.470000e-06	4.745151e-08	3.328342e-09	3.395429e-01	2.176363e+02
2.480000e-06	-1.045417e-07	3.029773e-09	-7.480560e-01	1.983643e+02
2.490000e-06	-2.565476e-07	2.722759e-09	-1.835746e+00	1.783677e+02
2.500000e-06	-4.085055e-07	2.406111e-09	-2.923092e+00	1.575654e+02
2.510000e-06	-5.603968e-07	2.075405e-09	-4.009962e+00	1.358738e+02
2.520000e-06	-7.121060e-07	1.729760e-09	-5.095529e+00	1.132160e+02
2.530000e-06	-8.635879e-07	1.368151e-09	-6.179469e+00	8.953183e+01
2.540000e-06	-1.014807e-06	9.908628e-10	-7.261528e+00	6.478892e+01
2.550000e-06	-1.165705e-06	6.003479e-10	-8.341294e+00	3.899164e+01
2.560000e-06	-1.316166e-06	1.980507e-10	-9.417923e+00	1.218869e+01
2.570000e-06	-1.466044e-06	-2.183429e-10	-1.049039e+01	-1.552284e+01
2.580000e-06	-1.615369e-06	-6.529455e-10	-1.155889e+01	-4.399707e+01
2.590000e-06	-1.764154e-06	-1.102204e-09	-1.262354e+01	-7.304315e+01
2.600000e-06	-1.912332e-06	-1.557557e-09	-1.368384e+01	-1.024330e+02
2.610000e-06	-2.059736e-06	-2.013564e-09	-1.473860e+01	-1.319126e+02
2.620000e-06	-2.206274e-06	-2.467608e-09	-1.578716e+01	-1.612156e+02
2.630000e-06	-2.352032e-06	-2.913645e-09	-1.683014e+01	-1.900782e+02
2.640000e-06	-2.496936e-06	-3.345893e-09	-1.786702e+01	-2.182543e+02
2.650000e-06	-2.640875e-06	-3.761840e-09	-1.889698e+01	-2.455282e+02
2.660000e-06	-2.783796e-06	-4.157771e-09	-1.991966e+01	-2.717258e+02
2.670000e-06	-2.925609e-06	-4.533276e-09	-2.093442e+01	-2.967215e+02
2.680000e-06	-3.066270e-06	-4.890768e-09	-2.194093e+01	-3.204407e+02
2.690000e-06	-3.205656e-06	-5.231103e-09	-2.293831e+01	-3.428590e+02
2.700000e-06	-3.343775e-06	-5.553887e-09	-2.392664e+01	-3.639967e+02
2.710000e-06	-3.480710e-06	-5.858250e-09	-2.490648e+01	-3.839107e+02
2.720000e-06	-3.616336e-06	-6.146247e-09	-2.587697e+01	-4.026840e+02
2.730000e-06	-3.750608e-06	-6.418301e-09	-2.683776e+01	-4.204149e+02
2.740000e-06	-3.883528e-06	-6.675298e-09	-2.778888e+01	-4.372058e+02
2.750000e-06	-4.015046e-06	-6.921054e-09	-2.872997e+01	-4.531541e+02
2.760000e-06	-4.145238e-06	-7.157724e-09	-2.966156e+01	-4.683447e+02
2.770000e-06	-4.274070e-06	-7.383920e-09	-3.058343e+01	-4.828456e+02
2.780000e-06	-4.401341e-06	-7.597511e-09	-3.149413e+01	-4.967066e+02
2.790000e-06	-4.527064e-06	-7.800483e-09	-3.239375e+01	-5.099596e+02
2.800000e-06	-4.651236e-06	-7.992303e-09	-3.328227e+01	-5.226224e+02
2.810000e-06	-4.773788e-06	-8.172750e-09	-3.415920e+01	-5.347030e+02
2.820000e-06	-4.894673e-06	-8.343959e-09	-3.502421e+01	-5.462046e+02
2.830000e-06	-5.013694e-06	-8.506325e-09	-3.587587e+01	-5.571307e+02
2.840000e-06	-5.130697e-06	-8.663557e-09	-3.671309e+01	-5.674890e+02
2.850000e-06	-5.245589e-06	-8.815368e-09	-3.753521e+01	-5.772942e+02
2.860000e-06	-5.358297e-06	-8.959453e-09	-3.834170e+01	-5.865690e+02
2.870000e-06	-5.468918e-06	-9.094187e-09	-3.913326e+01	-5.953437e+02
2.880000e-06	-5.577621e-06	-9.220480e-09	-3.991109e+01	-6.036545e+02
2.890000e-06	-5.684448e-06	-9.342173e-09	-4.067550e+01	-6.115403e+02
2.900000e-06	-5.789280e-06	-9.457657e-09	-4.142563e+01	-6.190402e+02
2.910000e-06	-5.891920e-06	-9.565298e-09	-4.216008e+01	-6.261902e+02
2.920000e-06	-5.992283e-06	-9.667258e-09	-4.287824e+01	-6.330211e+02
2.930000e-06	-6.090529e-06	-9.766124e-09	-4.358124e+01	-6.395569e+02
2.940000e-06	-6.186696e-06	-9.861865e-09	-4.426937e+01	-6.458140e+02
