# Temperatura_=_28.22
# Concentracion g/m^3_=_10000.0
# C_Vs_to_Am_M_A/Vsm_=_65563218390.804596
# pendiente_HvsI_1/m_=_3716.3
# ordenada_HvsI_A/m_=_1297.0
# frecuencia_Hz_=_302551.11382382445

Tiempo_(s)	Campo_(V.s)	Magnetizacion_(V.s)	Campo_(kA/m)	Magnetizacion_(A/m)
0.000000e+00	-7.859132e-06	-1.153203e-08	-5.685269e+01	-7.553427e+02
1.000000e-08	-7.855923e-06	-1.153193e-08	-5.682947e+01	-7.550473e+02
2.000000e-08	-7.850176e-06	-1.152472e-08	-5.678790e+01	-7.546245e+02
3.000000e-08	-7.841855e-06	-1.151617e-08	-5.672771e+01	-7.540872e+02
4.000000e-08	-7.830705e-06	-1.150914e-08	-5.664705e+01	-7.534500e+02
5.000000e-08	-7.816618e-06	-1.149979e-08	-5.654515e+01	-7.527283e+02
6.000000e-08	-7.799640e-06	-1.148757e-08	-5.642233e+01	-7.519353e+02
7.000000e-08	-7.780328e-06	-1.147348e-08	-5.628263e+01	-7.510815e+02
8.000000e-08	-7.758823e-06	-1.145527e-08	-5.612706e+01	-7.501725e+02
9.000000e-08	-7.734508e-06	-1.148765e-08	-5.595117e+01	-7.492091e+02
1.000000e-07	-7.706994e-06	-1.149715e-08	-5.575213e+01	-7.481871e+02
1.100000e-07	-7.676472e-06	-1.142564e-08	-5.553134e+01	-7.470979e+02
1.200000e-07	-7.643229e-06	-1.137961e-08	-5.529086e+01	-7.459301e+02
1.300000e-07	-7.607325e-06	-1.135854e-08	-5.503113e+01	-7.446704e+02
1.400000e-07	-7.569093e-06	-1.132760e-08	-5.475456e+01	-7.433058e+02
1.500000e-07	-7.528749e-06	-1.127204e-08	-5.446271e+01	-7.418245e+02
1.600000e-07	-7.486102e-06	-1.128019e-08	-5.415420e+01	-7.402171e+02
1.700000e-07	-7.440844e-06	-1.130209e-08	-5.382681e+01	-7.384772e+02
1.800000e-07	-7.392869e-06	-1.117578e-08	-5.347976e+01	-7.366015e+02
1.900000e-07	-7.342035e-06	-1.120595e-08	-5.311203e+01	-7.345890e+02
2.000000e-07	-7.288230e-06	-1.119618e-08	-5.272280e+01	-7.324410e+02
2.100000e-07	-7.231704e-06	-1.110580e-08	-5.231390e+01	-7.301594e+02
2.200000e-07	-7.172558e-06	-1.111201e-08	-5.188603e+01	-7.277464e+02
2.300000e-07	-7.110797e-06	-1.102959e-08	-5.143926e+01	-7.252032e+02
2.400000e-07	-7.046412e-06	-1.100758e-08	-5.097350e+01	-7.225301e+02
2.500000e-07	-6.979345e-06	-1.095265e-08	-5.048834e+01	-7.197260e+02
2.600000e-07	-6.909645e-06	-1.090920e-08	-4.998413e+01	-7.167886e+02
2.700000e-07	-6.837238e-06	-1.088744e-08	-4.946034e+01	-7.137153e+02
2.800000e-07	-6.762128e-06	-1.083123e-08	-4.891700e+01	-7.105032e+02
2.900000e-07	-6.684297e-06	-1.076412e-08	-4.835398e+01	-7.071503e+02
3.000000e-07	-6.603707e-06	-1.070244e-08	-4.777099e+01	-7.036555e+02
3.100000e-07	-6.520695e-06	-1.068608e-08	-4.717048e+01	-7.000187e+02
3.200000e-07	-6.435544e-06	-1.060547e-08	-4.655450e+01	-6.962413e+02
3.300000e-07	-6.348155e-06	-1.052630e-08	-4.592233e+01	-6.923251e+02
3.400000e-07	-6.258399e-06	-1.049523e-08	-4.527304e+01	-6.882720e+02
3.500000e-07	-6.166317e-06	-1.042982e-08	-4.460692e+01	-6.840830e+02
3.600000e-07	-6.072064e-06	-1.035441e-08	-4.392510e+01	-6.797577e+02
3.700000e-07	-5.975683e-06	-1.028614e-08	-4.322789e+01	-6.752938e+02
3.800000e-07	-5.877066e-06	-1.022693e-08	-4.251450e+01	-6.706867e+02
3.900000e-07	-5.776302e-06	-1.014281e-08	-4.178557e+01	-6.659297e+02
4.000000e-07	-5.673562e-06	-1.005512e-08	-4.104235e+01	-6.610145e+02
4.100000e-07	-5.568818e-06	-9.989841e-09	-4.028464e+01	-6.559320e+02
4.200000e-07	-5.462018e-06	-9.920801e-09	-3.951205e+01	-6.506732e+02
4.300000e-07	-5.353271e-06	-9.832081e-09	-3.872537e+01	-6.452302e+02
4.400000e-07	-5.242685e-06	-9.733157e-09	-3.792540e+01	-6.395965e+02
4.500000e-07	-5.130172e-06	-9.655447e-09	-3.711149e+01	-6.337682e+02
4.600000e-07	-5.015618e-06	-9.568852e-09	-3.628280e+01	-6.277432e+02
4.700000e-07	-4.899122e-06	-9.465272e-09	-3.544008e+01	-6.215212e+02
4.800000e-07	-4.780825e-06	-9.368309e-09	-3.458433e+01	-6.151024e+02
4.900000e-07	-4.660771e-06	-9.271731e-09	-3.371586e+01	-6.084871e+02
5.000000e-07	-4.538995e-06	-9.162669e-09	-3.283493e+01	-6.016739e+02
5.100000e-07	-4.415554e-06	-9.050498e-09	-3.194197e+01	-5.946592e+02
5.200000e-07	-4.290554e-06	-8.945368e-09	-3.103772e+01	-5.874359e+02
5.300000e-07	-4.164058e-06	-8.831813e-09	-3.012265e+01	-5.799941e+02
5.400000e-07	-4.036042e-06	-8.707130e-09	-2.919659e+01	-5.723207e+02
5.500000e-07	-3.906498e-06	-8.585361e-09	-2.825947e+01	-5.644006e+02
5.600000e-07	-3.775419e-06	-8.466794e-09	-2.731125e+01	-5.562179e+02
5.700000e-07	-3.642824e-06	-8.340397e-09	-2.635207e+01	-5.477573e+02
5.800000e-07	-3.508854e-06	-8.199411e-09	-2.538293e+01	-5.390054e+02
5.900000e-07	-3.373676e-06	-8.056628e-09	-2.440506e+01	-5.299519e+02
6.000000e-07	-3.237275e-06	-7.912668e-09	-2.341834e+01	-5.205900e+02
6.100000e-07	-3.099553e-06	-7.764867e-09	-2.242206e+01	-5.109163e+02
6.200000e-07	-2.960510e-06	-7.614157e-09	-2.141623e+01	-5.009298e+02
6.300000e-07	-2.820162e-06	-7.457666e-09	-2.040096e+01	-4.906310e+02
6.400000e-07	-2.678604e-06	-7.294493e-09	-1.937693e+01	-4.800194e+02
6.500000e-07	-2.535956e-06	-7.125645e-09	-1.834502e+01	-4.690923e+02
6.600000e-07	-2.392404e-06	-6.956210e-09	-1.730657e+01	-4.578426e+02
6.700000e-07	-2.248052e-06	-6.779916e-09	-1.626233e+01	-4.462582e+02
6.800000e-07	-2.102849e-06	-6.594903e-09	-1.521194e+01	-4.343211e+02
6.900000e-07	-1.956820e-06	-6.404022e-09	-1.415557e+01	-4.220085e+02
7.000000e-07	-1.810157e-06	-6.208844e-09	-1.309462e+01	-4.092940e+02
7.100000e-07	-1.662990e-06	-6.005716e-09	-1.203001e+01	-3.961496e+02
7.200000e-07	-1.515385e-06	-5.797007e-09	-1.096224e+01	-3.825484e+02
7.300000e-07	-1.367321e-06	-5.584476e-09	-9.891156e+00	-3.684668e+02
7.400000e-07	-1.218755e-06	-5.364372e-09	-8.816432e+00	-3.538869e+02
7.500000e-07	-1.069763e-06	-5.137866e-09	-7.738632e+00	-3.387966e+02
7.600000e-07	-9.204680e-07	-4.905446e-09	-6.658634e+00	-3.231905e+02
7.700000e-07	-7.709220e-07	-4.663237e-09	-5.576823e+00	-3.070675e+02
7.800000e-07	-6.211296e-07	-4.404753e-09	-4.493230e+00	-2.904283e+02
7.900000e-07	-4.711776e-07	-4.138848e-09	-3.408483e+00	-2.732719e+02
8.000000e-07	-3.210998e-07	-3.870858e-09	-2.322825e+00	-2.555910e+02
8.100000e-07	-1.708895e-07	-3.595862e-09	-1.236209e+00	-2.373685e+02
8.200000e-07	-2.059440e-08	-3.307754e-09	-1.489792e-01	-2.185740e+02
8.300000e-07	1.296936e-07	-3.009356e-09	9.381987e-01	-1.991627e+02
8.400000e-07	2.799764e-07	-2.702957e-09	2.025340e+00	-1.790762e+02
8.500000e-07	4.302262e-07	-2.383587e-09	3.112241e+00	-1.582452e+02
8.600000e-07	5.803458e-07	-2.050835e-09	4.198202e+00	-1.365954e+02
8.700000e-07	7.302847e-07	-1.705180e-09	5.282855e+00	-1.140549e+02
8.800000e-07	8.800234e-07	-1.348278e-09	6.366059e+00	-9.056355e+01
8.900000e-07	1.029514e-06	-9.760247e-10	7.447469e+00	-6.608224e+01
9.000000e-07	1.178681e-06	-5.879218e-10	8.526537e+00	-4.060243e+01
9.100000e-07	1.327505e-06	-1.876889e-10	9.603128e+00	-1.415373e+01
9.200000e-07	1.475924e-06	2.237314e-10	1.067678e+01	1.319093e+01
9.300000e-07	1.623825e-06	6.483635e-10	1.174669e+01	4.131338e+01
9.400000e-07	1.771173e-06	1.084970e-09	1.281260e+01	7.005208e+01
9.500000e-07	1.917878e-06	1.527996e-09	1.387386e+01	9.920770e+01
9.600000e-07	2.063848e-06	1.976875e-09	1.492980e+01	1.285521e+02
9.700000e-07	2.209052e-06	2.426389e-09	1.598021e+01	1.578402e+02
9.800000e-07	2.353419e-06	2.870304e-09	1.702455e+01	1.868231e+02
9.900000e-07	2.496859e-06	3.301451e-09	1.806220e+01	2.152618e+02
1.000000e-06	2.639317e-06	3.718377e-09	1.909273e+01	2.429407e+02
1.010000e-06	2.780784e-06	4.120263e-09	2.011609e+01	2.696775e+02
1.020000e-06	2.921159e-06	4.506213e-09	2.113156e+01	2.953321e+02
1.030000e-06	3.060275e-06	4.876409e-09	2.213793e+01	3.198101e+02
1.040000e-06	3.198084e-06	5.227940e-09	2.313483e+01	3.430637e+02
1.050000e-06	3.334671e-06	5.561147e-09	2.412290e+01	3.650884e+02
1.060000e-06	3.470039e-06	5.877199e-09	2.510214e+01	3.859165e+02
1.070000e-06	3.604108e-06	6.179454e-09	2.607199e+01	4.056089e+02
1.080000e-06	3.736913e-06	6.465638e-09	2.703270e+01	4.242452e+02
1.090000e-06	3.868419e-06	6.734905e-09	2.798401e+01	4.419140e+02
1.100000e-06	3.998495e-06	6.991030e-09	2.892498e+01	4.587036e+02
1.110000e-06	4.127080e-06	7.235485e-09	2.985516e+01	4.746951e+02
1.120000e-06	4.254181e-06	7.468671e-09	3.077460e+01	4.899572e+02
1.130000e-06	4.379812e-06	7.691580e-09	3.168341e+01	5.045440e+02
1.140000e-06	4.504060e-06	7.901769e-09	3.258221e+01	5.184941e+02
1.150000e-06	4.626787e-06	8.099690e-09	3.347002e+01	5.318334e+02
1.160000e-06	4.747798e-06	8.290039e-09	3.434541e+01	5.445777e+02
1.170000e-06	4.867080e-06	8.472931e-09	3.520829e+01	5.567370e+02
1.180000e-06	4.984598e-06	8.647852e-09	3.605841e+01	5.683193e+02
1.190000e-06	5.100238e-06	8.814589e-09	3.689495e+01	5.793347e+02
1.200000e-06	5.213851e-06	8.973645e-09	3.771682e+01	5.897970e+02
1.210000e-06	5.325460e-06	9.127282e-09	3.852420e+01	5.997257e+02
1.220000e-06	5.435195e-06	9.273652e-09	3.931801e+01	6.091458e+02
1.230000e-06	5.543086e-06	9.414051e-09	4.009850e+01	6.180863e+02
1.240000e-06	5.648952e-06	9.547255e-09	4.086432e+01	6.265788e+02
1.250000e-06	5.752674e-06	9.671486e-09	4.161465e+01	6.346552e+02
1.260000e-06	5.854324e-06	9.789472e-09	4.234998e+01	6.423452e+02
1.270000e-06	5.953848e-06	9.901218e-09	4.306993e+01	6.496753e+02
1.280000e-06	6.051143e-06	1.000631e-08	4.377376e+01	6.566671e+02
1.290000e-06	6.146154e-06	1.010455e-08	4.446107e+01	6.633379e+02
1.300000e-06	6.238980e-06	1.019822e-08	4.513257e+01	6.697005e+02
1.310000e-06	6.329595e-06	1.028981e-08	4.578807e+01	6.757648e+02
1.320000e-06	6.417834e-06	1.037907e-08	4.642639e+01	6.815394e+02
1.330000e-06	6.503863e-06	1.046336e-08	4.704872e+01	6.870325e+02
1.340000e-06	6.587739e-06	1.054156e-08	4.765547e+01	6.922539e+02
1.350000e-06	6.669224e-06	1.061562e-08	4.824493e+01	6.972146e+02
1.360000e-06	6.748190e-06	1.068701e-08	4.881618e+01	7.019280e+02
1.370000e-06	6.824624e-06	1.075567e-08	4.936909e+01	7.064083e+02
1.380000e-06	6.898446e-06	1.082087e-08	4.990312e+01	7.106701e+02
1.390000e-06	6.969724e-06	1.088178e-08	5.041874e+01	7.147267e+02
1.400000e-06	7.038588e-06	1.094057e-08	5.091690e+01	7.185888e+02
1.410000e-06	7.104948e-06	1.099741e-08	5.139695e+01	7.222636e+02
1.420000e-06	7.168743e-06	1.105086e-08	5.185844e+01	7.257539e+02
1.430000e-06	7.230095e-06	1.109979e-08	5.230226e+01	7.290584e+02
1.440000e-06	7.289087e-06	1.114543e-08	5.272900e+01	7.321723e+02
1.450000e-06	7.345444e-06	1.118864e-08	5.313669e+01	7.350886e+02
1.460000e-06	7.398991e-06	1.122751e-08	5.352405e+01	7.377998e+02
1.470000e-06	7.449554e-06	1.126237e-08	5.388982e+01	7.403001e+02
1.480000e-06	7.497110e-06	1.129438e-08	5.423383e+01	7.425863e+02
1.490000e-06	7.541995e-06	1.132558e-08	5.455854e+01	7.446601e+02
1.500000e-06	7.584254e-06	1.135498e-08	5.486423e+01	7.465277e+02
1.510000e-06	7.623783e-06	1.138145e-08	5.515018e+01	7.482004e+02
1.520000e-06	7.660643e-06	1.140539e-08	5.541683e+01	7.496934e+02
1.530000e-06	7.694849e-06	1.142735e-08	5.566427e+01	7.510243e+02
1.540000e-06	7.726284e-06	1.144665e-08	5.589167e+01	7.522115e+02
1.550000e-06	7.755037e-06	1.146319e-08	5.609967e+01	7.532716e+02
1.560000e-06	7.780961e-06	1.147784e-08	5.628721e+01	7.542184e+02
1.570000e-06	7.803939e-06	1.148927e-08	5.645342e+01	7.550609e+02
1.580000e-06	7.824274e-06	1.149872e-08	5.660053e+01	7.558028e+02
1.590000e-06	7.841880e-06	1.150721e-08	5.672789e+01	7.564427e+02
1.600000e-06	7.856478e-06	1.151542e-08	5.683349e+01	7.569750e+02
1.610000e-06	7.868021e-06	1.152403e-08	5.691699e+01	7.573911e+02
1.620000e-06	7.876560e-06	1.153084e-08	5.697876e+01	7.576816e+02
1.630000e-06	7.882245e-06	1.153472e-08	5.701989e+01	7.578379e+02
1.640000e-06	7.885148e-06	1.153635e-08	5.704089e+01	7.578546e+02
1.650000e-06	7.885232e-06	1.153732e-08	5.704150e+01	7.577300e+02
1.660000e-06	7.882691e-06	1.152980e-08	5.702311e+01	7.574673e+02
1.670000e-06	7.877562e-06	1.151982e-08	5.698601e+01	7.570748e+02
1.680000e-06	7.869746e-06	1.151354e-08	5.692947e+01	7.565641e+02
1.690000e-06	7.859323e-06	1.150517e-08	5.685407e+01	7.559499e+02
1.700000e-06	7.846105e-06	1.149610e-08	5.675845e+01	7.552473e+02
1.710000e-06	7.830151e-06	1.149095e-08	5.664304e+01	7.544705e+02
1.720000e-06	7.811897e-06	1.148667e-08	5.651099e+01	7.536306e+02
1.730000e-06	7.791374e-06	1.146598e-08	5.636253e+01	7.527345e+02
1.740000e-06	7.768033e-06	1.137180e-08	5.619368e+01	7.517843e+02
1.750000e-06	7.741312e-06	1.136942e-08	5.600038e+01	7.507770e+02
1.760000e-06	7.711080e-06	1.140728e-08	5.578169e+01	7.497050e+02
1.770000e-06	7.677866e-06	1.138375e-08	5.554142e+01	7.485575e+02
1.780000e-06	7.642321e-06	1.136487e-08	5.528428e+01	7.473214e+02
1.790000e-06	7.604489e-06	1.141078e-08	5.501061e+01	7.459837e+02
1.800000e-06	7.564569e-06	1.136981e-08	5.472183e+01	7.445319e+02
1.810000e-06	7.522555e-06	1.125153e-08	5.441790e+01	7.429562e+02
1.820000e-06	7.477931e-06	1.136075e-08	5.409510e+01	7.412493e+02
1.830000e-06	7.430659e-06	1.127882e-08	5.375313e+01	7.394071e+02
1.840000e-06	7.380653e-06	1.125856e-08	5.339139e+01	7.374281e+02
1.850000e-06	7.327704e-06	1.125776e-08	5.300836e+01	7.353133e+02
1.860000e-06	7.271981e-06	1.112696e-08	5.260526e+01	7.330643e+02
1.870000e-06	7.213610e-06	1.119602e-08	5.218301e+01	7.306834e+02
1.880000e-06	7.152663e-06	1.108580e-08	5.174212e+01	7.281721e+02
1.890000e-06	7.088968e-06	1.107668e-08	5.128135e+01	7.255309e+02
1.900000e-06	7.022540e-06	1.107099e-08	5.080081e+01	7.227591e+02
1.910000e-06	6.953410e-06	1.094275e-08	5.030073e+01	7.198547e+02
1.920000e-06	6.881500e-06	1.094389e-08	4.978054e+01	7.168151e+02
1.930000e-06	6.806965e-06	1.088745e-08	4.924135e+01	7.136373e+02
1.940000e-06	6.729669e-06	1.088451e-08	4.868219e+01	7.103192e+02
1.950000e-06	6.649733e-06	1.078436e-08	4.810394e+01	7.068593e+02
1.960000e-06	6.567378e-06	1.073026e-08	4.750819e+01	7.032573e+02
1.970000e-06	6.482667e-06	1.070957e-08	4.689539e+01	6.995144e+02
1.980000e-06	6.395556e-06	1.058867e-08	4.626523e+01	6.956321e+02
1.990000e-06	6.306055e-06	1.056135e-08	4.561779e+01	6.916124e+02
2.000000e-06	6.214449e-06	1.049045e-08	4.495511e+01	6.874568e+02
2.010000e-06	6.120650e-06	1.044195e-08	4.427657e+01	6.831651e+02
2.020000e-06	6.024553e-06	1.035061e-08	4.358141e+01	6.787357e+02
2.030000e-06	5.926284e-06	1.028850e-08	4.287053e+01	6.741643e+02
2.040000e-06	5.825980e-06	1.023799e-08	4.214494e+01	6.694449e+02
2.050000e-06	5.723587e-06	1.014730e-08	4.140423e+01	6.645695e+02
2.060000e-06	5.619063e-06	1.005975e-08	4.064811e+01	6.595291e+02
2.070000e-06	5.512684e-06	9.968522e-09	3.987856e+01	6.543146e+02
2.080000e-06	5.404500e-06	9.908572e-09	3.909597e+01	6.489177e+02
2.090000e-06	5.294398e-06	9.810880e-09	3.829949e+01	6.433316e+02
2.100000e-06	5.182316e-06	9.735135e-09	3.748869e+01	6.375516e+02
2.110000e-06	5.068291e-06	9.650830e-09	3.666384e+01	6.315753e+02
2.120000e-06	4.952334e-06	9.552635e-09	3.582502e+01	6.254019e+02
2.130000e-06	4.834435e-06	9.439089e-09	3.497214e+01	6.190317e+02
2.140000e-06	4.714603e-06	9.343554e-09	3.410528e+01	6.124650e+02
2.150000e-06	4.593017e-06	9.252748e-09	3.322573e+01	6.057009e+02
2.160000e-06	4.469882e-06	9.144393e-09	3.233497e+01	5.987365e+02
2.170000e-06	4.345102e-06	9.033887e-09	3.143232e+01	5.915656e+02
2.180000e-06	4.218597e-06	8.921727e-09	3.051719e+01	5.841789e+02
2.190000e-06	4.090485e-06	8.809326e-09	2.959043e+01	5.765642e+02
2.200000e-06	3.960959e-06	8.681670e-09	2.865344e+01	5.687067e+02
2.210000e-06	3.830059e-06	8.561273e-09	2.770652e+01	5.605905e+02
2.220000e-06	3.697737e-06	8.433309e-09	2.674930e+01	5.522001e+02
2.230000e-06	3.563982e-06	8.300702e-09	2.578172e+01	5.435216e+02
2.240000e-06	3.428855e-06	8.161820e-09	2.480422e+01	5.345437e+02
2.250000e-06	3.292366e-06	8.027007e-09	2.381686e+01	5.252587e+02
2.260000e-06	3.154674e-06	7.884290e-09	2.282080e+01	5.156625e+02
2.270000e-06	3.015896e-06	7.732321e-09	2.181688e+01	5.057537e+02
2.280000e-06	2.875870e-06	7.577077e-09	2.080395e+01	4.955323e+02
2.290000e-06	2.734603e-06	7.420042e-09	1.978203e+01	4.849985e+02
2.300000e-06	2.592319e-06	7.258197e-09	1.875275e+01	4.741501e+02
2.310000e-06	2.449120e-06	7.089160e-09	1.771685e+01	4.629814e+02
2.320000e-06	2.305006e-06	6.914739e-09	1.667434e+01	4.514815e+02
2.330000e-06	2.160120e-06	6.729726e-09	1.562623e+01	4.396340e+02
2.340000e-06	2.014574e-06	6.539293e-09	1.457336e+01	4.274171e+02
2.350000e-06	1.868339e-06	6.346518e-09	1.351550e+01	4.148050e+02
2.360000e-06	1.721482e-06	6.151840e-09	1.245314e+01	4.017701e+02
2.370000e-06	1.574130e-06	5.947523e-09	1.138720e+01	3.882849e+02
2.380000e-06	1.426334e-06	5.733794e-09	1.031805e+01	3.743248e+02
2.390000e-06	1.278037e-06	5.512349e-09	9.245273e+00	3.598702e+02
2.400000e-06	1.129225e-06	5.281293e-09	8.168773e+00	3.449077e+02
2.410000e-06	9.800568e-07	5.043563e-09	7.089697e+00	3.294302e+02
2.420000e-06	8.305951e-07	4.803492e-09	6.008497e+00	3.134357e+02
2.430000e-06	6.808725e-07	4.554939e-09	4.925408e+00	2.969250e+02
2.440000e-06	5.310064e-07	4.292930e-09	3.841282e+00	2.798977e+02
2.450000e-06	3.809894e-07	4.023227e-09	2.756065e+00	2.623485e+02
2.460000e-06	2.307464e-07	3.749533e-09	1.669211e+00	2.442631e+02
2.470000e-06	8.031879e-08	3.466640e-09	5.810233e-01	2.256146e+02
2.480000e-06	-7.011412e-08	3.169578e-09	-5.072031e-01	2.063619e+02
2.490000e-06	-2.204494e-07	2.861427e-09	-1.594724e+00	1.864497e+02
2.500000e-06	-3.707464e-07	2.545161e-09	-2.681967e+00	1.658111e+02
2.510000e-06	-5.209647e-07	2.218335e-09	-3.768641e+00	1.443724e+02
2.520000e-06	-6.710180e-07	1.879186e-09	-4.854121e+00	1.220603e+02
2.530000e-06	-8.209026e-07	1.526280e-09	-5.938381e+00	9.881074e+01
2.540000e-06	-9.705672e-07	1.156821e-09	-7.021050e+00	7.457846e+01
2.550000e-06	-1.119901e-06	7.716793e-10	-8.101327e+00	4.934651e+01
2.560000e-06	-1.268824e-06	3.749661e-10	-9.178627e+00	2.313436e+01
2.570000e-06	-1.417271e-06	-3.218446e-11	-1.025249e+01	-3.996208e+00
2.580000e-06	-1.565217e-06	-4.546097e-10	-1.132272e+01	-3.193832e+01
2.590000e-06	-1.712623e-06	-8.945214e-10	-1.238905e+01	-6.054089e+01
2.600000e-06	-1.859357e-06	-1.346568e-09	-1.345052e+01	-8.961331e+01
2.610000e-06	-2.005382e-06	-1.802039e-09	-1.450687e+01	-1.189337e+02
2.620000e-06	-2.150708e-06	-2.255563e-09	-1.555815e+01	-1.482599e+02
2.630000e-06	-2.295230e-06	-2.703645e-09	-1.660362e+01	-1.773426e+02
2.640000e-06	-2.438871e-06	-3.142245e-09	-1.764271e+01	-2.059393e+02
2.650000e-06	-2.581514e-06	-3.570710e-09	-1.867459e+01	-2.338273e+02
2.660000e-06	-2.723034e-06	-3.982832e-09	-1.969833e+01	-2.608151e+02
2.670000e-06	-2.863446e-06	-4.375990e-09	-2.071407e+01	-2.867515e+02
2.680000e-06	-3.002695e-06	-4.751050e-09	-2.172139e+01	-3.115306e+02
2.690000e-06	-3.140769e-06	-5.108307e-09	-2.272022e+01	-3.350929e+02
2.700000e-06	-3.277677e-06	-5.449843e-09	-2.371060e+01	-3.574236e+02
2.710000e-06	-3.413335e-06	-5.773592e-09	-2.469195e+01	-3.785467e+02
2.720000e-06	-3.547659e-06	-6.079889e-09	-2.566364e+01	-3.985167e+02
2.730000e-06	-3.680732e-06	-6.368886e-09	-2.662629e+01	-4.174095e+02
2.740000e-06	-3.812597e-06	-6.641482e-09	-2.758019e+01	-4.353123e+02
2.750000e-06	-3.943102e-06	-6.901858e-09	-2.852426e+01	-4.523143e+02
2.760000e-06	-4.072247e-06	-7.153100e-09	-2.945849e+01	-4.684989e+02
2.770000e-06	-4.199989e-06	-7.394504e-09	-3.038258e+01	-4.839384e+02
2.780000e-06	-4.326188e-06	-7.624108e-09	-3.129549e+01	-4.986903e+02
2.790000e-06	-4.450884e-06	-7.841804e-09	-3.219754e+01	-5.127974e+02
2.800000e-06	-4.574076e-06	-8.047546e-09	-3.308871e+01	-5.262882e+02
2.810000e-06	-4.695646e-06	-8.242970e-09	-3.396814e+01	-5.391807e+02
2.820000e-06	-4.815507e-06	-8.428990e-09	-3.483521e+01	-5.514860e+02
2.830000e-06	-4.933495e-06	-8.603483e-09	-3.568873e+01	-5.632124e+02
2.840000e-06	-5.049529e-06	-8.769033e-09	-3.652812e+01	-5.743690e+02
2.850000e-06	-5.163515e-06	-8.930158e-09	-3.735269e+01	-5.849685e+02
2.860000e-06	-5.275381e-06	-9.088130e-09	-3.816193e+01	-5.950291e+02
2.870000e-06	-5.385233e-06	-9.237875e-09	-3.895659e+01	-6.045744e+02
2.880000e-06	-5.493239e-06	-9.376607e-09	-3.973790e+01	-6.136324e+02
2.890000e-06	-5.599384e-06	-9.508441e-09	-4.050575e+01	-6.222345e+02
2.900000e-06	-5.703492e-06	-9.634659e-09	-4.125887e+01	-6.304126e+02
2.910000e-06	-5.805484e-06	-9.753497e-09	-4.199667e+01	-6.381972e+02
2.920000e-06	-5.905356e-06	-9.865356e-09	-4.271914e+01	-6.456156e+02
2.930000e-06	-6.003171e-06	-9.973116e-09	-4.342673e+01	-6.526908e+02
2.940000e-06	-6.098823e-06	-1.007609e-08	-4.411868e+01	-6.594411e+02
