# Temperatura_=_67.68
# Concentracion g/m^3_=_10000.0
# C_Vs_to_Am_M_A/Vsm_=_65563218390.804596
# pendiente_HvsI_1/m_=_3716.3
# ordenada_HvsI_A/m_=_1297.0
# frecuencia_Hz_=_302551.3838783957

Tiempo_(s)	Campo_(V.s)	Magnetizacion_(V.s)	Campo_(kA/m)	Magnetizacion_(A/m)
0.000000e+00	-7.898530e-06	-1.217969e-08	-5.685036e+01	-7.987864e+02
1.000000e-08	-7.895080e-06	-1.218120e-08	-5.682553e+01	-7.983890e+02
2.000000e-08	-7.889038e-06	-1.217863e-08	-5.678204e+01	-7.978488e+02
3.000000e-08	-7.880443e-06	-1.217318e-08	-5.672018e+01	-7.971809e+02
4.000000e-08	-7.869060e-06	-1.216438e-08	-5.663825e+01	-7.964018e+02
5.000000e-08	-7.854761e-06	-1.215164e-08	-5.653533e+01	-7.955279e+02
6.000000e-08	-7.837633e-06	-1.213687e-08	-5.641205e+01	-7.945737e+02
7.000000e-08	-7.818093e-06	-1.212423e-08	-5.627141e+01	-7.935501e+02
8.000000e-08	-7.796289e-06	-1.210701e-08	-5.611447e+01	-7.924639e+02
9.000000e-08	-7.771593e-06	-1.212270e-08	-5.593672e+01	-7.913171e+02
1.000000e-07	-7.743668e-06	-1.212524e-08	-5.573573e+01	-7.901075e+02
1.100000e-07	-7.712792e-06	-1.206340e-08	-5.551350e+01	-7.888287e+02
1.200000e-07	-7.679160e-06	-1.201740e-08	-5.527143e+01	-7.874715e+02
1.300000e-07	-7.642855e-06	-1.199493e-08	-5.501012e+01	-7.860248e+02
1.400000e-07	-7.604220e-06	-1.196262e-08	-5.473204e+01	-7.844761e+02
1.500000e-07	-7.563513e-06	-1.189354e-08	-5.443905e+01	-7.828128e+02
1.600000e-07	-7.520475e-06	-1.186944e-08	-5.412928e+01	-7.810222e+02
1.700000e-07	-7.474747e-06	-1.190314e-08	-5.380015e+01	-7.790924e+02
1.800000e-07	-7.426280e-06	-1.178971e-08	-5.345131e+01	-7.770120e+02
1.900000e-07	-7.374923e-06	-1.179962e-08	-5.308166e+01	-7.747706e+02
2.000000e-07	-7.320628e-06	-1.179635e-08	-5.269086e+01	-7.723588e+02
2.100000e-07	-7.263641e-06	-1.169419e-08	-5.228069e+01	-7.697686e+02
2.200000e-07	-7.203993e-06	-1.169280e-08	-5.185137e+01	-7.669936e+02
2.300000e-07	-7.141732e-06	-1.161211e-08	-5.140324e+01	-7.640297e+02
2.400000e-07	-7.076828e-06	-1.157034e-08	-5.093609e+01	-7.608758e+02
2.500000e-07	-7.009214e-06	-1.151031e-08	-5.044943e+01	-7.575336e+02
2.600000e-07	-6.938966e-06	-1.146326e-08	-4.994382e+01	-7.540082e+02
2.700000e-07	-6.865983e-06	-1.142290e-08	-4.941852e+01	-7.503079e+02
2.800000e-07	-6.790199e-06	-1.135383e-08	-4.887305e+01	-7.464432e+02
2.900000e-07	-6.711655e-06	-1.129513e-08	-4.830772e+01	-7.424262e+02
3.000000e-07	-6.630431e-06	-1.122285e-08	-4.772311e+01	-7.382690e+02
3.100000e-07	-6.546903e-06	-1.118169e-08	-4.712191e+01	-7.339821e+02
3.200000e-07	-6.461171e-06	-1.110877e-08	-4.650485e+01	-7.295729e+02
3.300000e-07	-6.373145e-06	-1.102843e-08	-4.587127e+01	-7.250447e+02
3.400000e-07	-6.282824e-06	-1.098102e-08	-4.522118e+01	-7.203955e+02
3.500000e-07	-6.190207e-06	-1.090591e-08	-4.455456e+01	-7.156181e+02
3.600000e-07	-6.095402e-06	-1.082255e-08	-4.387220e+01	-7.107008e+02
3.700000e-07	-5.998352e-06	-1.074151e-08	-4.317367e+01	-7.056284e+02
3.800000e-07	-5.899072e-06	-1.066872e-08	-4.245909e+01	-7.003843e+02
3.900000e-07	-5.797655e-06	-1.058161e-08	-4.172913e+01	-6.949523e+02
4.000000e-07	-5.694208e-06	-1.048447e-08	-4.098456e+01	-6.893190e+02
4.100000e-07	-5.588792e-06	-1.040003e-08	-4.022582e+01	-6.834753e+02
4.200000e-07	-5.481374e-06	-1.031334e-08	-3.945267e+01	-6.774176e+02
4.300000e-07	-5.371998e-06	-1.021838e-08	-3.866543e+01	-6.711478e+02
4.400000e-07	-5.260739e-06	-1.011387e-08	-3.786463e+01	-6.646729e+02
4.500000e-07	-5.147525e-06	-1.002130e-08	-3.704976e+01	-6.580033e+02
4.600000e-07	-5.032273e-06	-9.923111e-09	-3.622023e+01	-6.511505e+02
4.700000e-07	-4.915075e-06	-9.812493e-09	-3.537669e+01	-6.441245e+02
4.800000e-07	-4.796008e-06	-9.704124e-09	-3.451969e+01	-6.369317e+02
4.900000e-07	-4.675202e-06	-9.594746e-09	-3.365018e+01	-6.295721e+02
5.000000e-07	-4.552724e-06	-9.475661e-09	-3.276863e+01	-6.220388e+02
5.100000e-07	-4.428574e-06	-9.350239e-09	-3.187505e+01	-6.143175e+02
5.200000e-07	-4.302821e-06	-9.230808e-09	-3.096993e+01	-6.063877e+02
5.300000e-07	-4.175481e-06	-9.107341e-09	-3.005339e+01	-5.982244e+02
5.400000e-07	-4.046638e-06	-8.974893e-09	-2.912604e+01	-5.898010e+02
5.500000e-07	-3.916344e-06	-8.841991e-09	-2.818823e+01	-5.810927e+02
5.600000e-07	-3.784561e-06	-8.709974e-09	-2.723971e+01	-5.720788e+02
5.700000e-07	-3.651265e-06	-8.569864e-09	-2.628030e+01	-5.627455e+02
5.800000e-07	-3.516529e-06	-8.417123e-09	-2.531053e+01	-5.530868e+02
5.900000e-07	-3.380528e-06	-8.263859e-09	-2.433165e+01	-5.431046e+02
6.000000e-07	-3.243342e-06	-8.106805e-09	-2.334424e+01	-5.328072e+02
6.100000e-07	-3.104807e-06	-7.943719e-09	-2.234712e+01	-5.222065e+02
6.200000e-07	-2.964832e-06	-7.777964e-09	-2.133964e+01	-5.113146e+02
6.300000e-07	-2.823594e-06	-7.610253e-09	-2.032307e+01	-5.001401e+02
6.400000e-07	-2.681219e-06	-7.436485e-09	-1.929831e+01	-4.886845e+02
6.500000e-07	-2.537796e-06	-7.253108e-09	-1.826601e+01	-4.769399e+02
6.600000e-07	-2.393484e-06	-7.067860e-09	-1.722731e+01	-4.648874e+02
6.700000e-07	-2.248275e-06	-6.878190e-09	-1.618216e+01	-4.524982e+02
6.800000e-07	-2.102246e-06	-6.681614e-09	-1.513110e+01	-4.397351e+02
6.900000e-07	-1.955549e-06	-6.478729e-09	-1.407524e+01	-4.265564e+02
7.000000e-07	-1.808245e-06	-6.269343e-09	-1.301500e+01	-4.129201e+02
7.100000e-07	-1.660407e-06	-6.050482e-09	-1.195093e+01	-3.987887e+02
7.200000e-07	-1.512119e-06	-5.825270e-09	-1.088361e+01	-3.841328e+02
7.300000e-07	-1.363399e-06	-5.596908e-09	-9.813183e+00	-3.689339e+02
7.400000e-07	-1.214215e-06	-5.359794e-09	-8.739422e+00	-3.531848e+02
7.500000e-07	-1.064644e-06	-5.113874e-09	-7.662872e+00	-3.368879e+02
7.600000e-07	-9.147185e-07	-4.861336e-09	-6.583767e+00	-3.200511e+02
7.700000e-07	-7.643791e-07	-4.601220e-09	-5.501686e+00	-3.026822e+02
7.800000e-07	-6.137133e-07	-4.328544e-09	-4.417255e+00	-2.847817e+02
7.900000e-07	-4.628708e-07	-4.046080e-09	-3.331553e+00	-2.663358e+02
8.000000e-07	-3.118837e-07	-3.756305e-09	-2.244811e+00	-2.473104e+02
8.100000e-07	-1.607592e-07	-3.454819e-09	-1.157078e+00	-2.276473e+02
8.200000e-07	-9.526289e-09	-3.136198e-09	-6.856630e-02	-2.072636e+02
8.300000e-07	1.417164e-07	-2.804090e-09	1.020016e+00	-1.860550e+02
8.400000e-07	2.929235e-07	-2.462956e-09	2.108342e+00	-1.639028e+02
8.500000e-07	4.440863e-07	-2.108924e-09	3.196350e+00	-1.406844e+02
8.600000e-07	5.951632e-07	-1.739416e-09	4.283739e+00	-1.162870e+02
8.700000e-07	7.460729e-07	-1.351187e-09	5.369925e+00	-9.062231e+01
8.800000e-07	8.967109e-07	-9.463815e-10	6.454155e+00	-6.364134e+01
8.900000e-07	1.047049e-06	-5.240009e-10	7.536224e+00	-3.534711e+01
9.000000e-07	1.197011e-06	-8.063987e-11	8.615595e+00	-5.804142e+00
9.100000e-07	1.346493e-06	3.825724e-10	9.691503e+00	2.485691e+01
9.200000e-07	1.495454e-06	8.634478e-10	1.076366e+01	5.644020e+01
9.300000e-07	1.643956e-06	1.359395e-09	1.183252e+01	8.869145e+01
9.400000e-07	1.791943e-06	1.864154e-09	1.289766e+01	1.213102e+02
9.500000e-07	1.939286e-06	2.368303e-09	1.395818e+01	1.539662e+02
9.600000e-07	2.085926e-06	2.866222e-09	1.501363e+01	1.863193e+02
9.700000e-07	2.231754e-06	3.350102e-09	1.606324e+01	2.180396e+02
9.800000e-07	2.376706e-06	3.816656e-09	1.710655e+01	2.488275e+02
9.900000e-07	2.520767e-06	4.262019e-09	1.814344e+01	2.784304e+02
1.000000e-06	2.663870e-06	4.684792e-09	1.917344e+01	3.066552e+02
1.010000e-06	2.805941e-06	5.083131e-09	2.019601e+01	3.333757e+02
1.020000e-06	2.946937e-06	5.458606e-09	2.121084e+01	3.585338e+02
1.030000e-06	3.086698e-06	5.815442e-09	2.221678e+01	3.821350e+02
1.040000e-06	3.225092e-06	6.151849e-09	2.321288e+01	4.042397e+02
1.050000e-06	3.362230e-06	6.468449e-09	2.419995e+01	4.249500e+02
1.060000e-06	3.498164e-06	6.766751e-09	2.517834e+01	4.443946e+02
1.070000e-06	3.632789e-06	7.050051e-09	2.614732e+01	4.627143e+02
1.080000e-06	3.766138e-06	7.316649e-09	2.710711e+01	4.800474e+02
1.090000e-06	3.898174e-06	7.568361e-09	2.805745e+01	4.965187e+02
1.100000e-06	4.028698e-06	7.809863e-09	2.899691e+01	5.122313e+02
1.110000e-06	4.157736e-06	8.040552e-09	2.992567e+01	5.272631e+02
1.120000e-06	4.285404e-06	8.259634e-09	3.084458e+01	5.416664e+02
1.130000e-06	4.411649e-06	8.466580e-09	3.175323e+01	5.554709e+02
1.140000e-06	4.536441e-06	8.661547e-09	3.265143e+01	5.686898e+02
1.150000e-06	4.659624e-06	8.847415e-09	3.353805e+01	5.813258e+02
1.160000e-06	4.781065e-06	9.025938e-09	3.441214e+01	5.933786e+02
1.170000e-06	4.900826e-06	9.197363e-09	3.527412e+01	6.048507e+02
1.180000e-06	5.018848e-06	9.363301e-09	3.612360e+01	6.157518e+02
1.190000e-06	5.134979e-06	9.525016e-09	3.695946e+01	6.261009e+02
1.200000e-06	5.249058e-06	9.679396e-09	3.778056e+01	6.359267e+02
1.210000e-06	5.361096e-06	9.826298e-09	3.858696e+01	6.452652e+02
1.220000e-06	5.471220e-06	9.966021e-09	3.937959e+01	6.541572e+02
1.230000e-06	5.579486e-06	1.009954e-08	4.015884e+01	6.626438e+02
1.240000e-06	5.685730e-06	1.022454e-08	4.092354e+01	6.707629e+02
1.250000e-06	5.789813e-06	1.034047e-08	4.167268e+01	6.785460e+02
1.260000e-06	5.891810e-06	1.045192e-08	4.240682e+01	6.860161e+02
1.270000e-06	5.991720e-06	1.055983e-08	4.312593e+01	6.931872e+02
1.280000e-06	6.089321e-06	1.066332e-08	4.382842e+01	7.000658e+02
1.290000e-06	6.184559e-06	1.076276e-08	4.451391e+01	7.066525e+02
1.300000e-06	6.277643e-06	1.085867e-08	4.518389e+01	7.129450e+02
1.310000e-06	6.368530e-06	1.095071e-08	4.583805e+01	7.189416e+02
1.320000e-06	6.457079e-06	1.103756e-08	4.647539e+01	7.246433e+02
1.330000e-06	6.543334e-06	1.111735e-08	4.709622e+01	7.300566e+02
1.340000e-06	6.627368e-06	1.119340e-08	4.770106e+01	7.351936e+02
1.350000e-06	6.709045e-06	1.126673e-08	4.828894e+01	7.400720e+02
1.360000e-06	6.788229e-06	1.133760e-08	4.885888e+01	7.447133e+02
1.370000e-06	6.864866e-06	1.140707e-08	4.941048e+01	7.491407e+02
1.380000e-06	6.938831e-06	1.147390e-08	4.994285e+01	7.533760e+02
1.390000e-06	7.010258e-06	1.153765e-08	5.045695e+01	7.574371e+02
1.400000e-06	7.079280e-06	1.159940e-08	5.095374e+01	7.613359e+02
1.410000e-06	7.145778e-06	1.165995e-08	5.143236e+01	7.650765e+02
1.420000e-06	7.209681e-06	1.171601e-08	5.189231e+01	7.686559e+02
1.430000e-06	7.271108e-06	1.176495e-08	5.233444e+01	7.720643e+02
1.440000e-06	7.330098e-06	1.180950e-08	5.275902e+01	7.752876e+02
1.450000e-06	7.386486e-06	1.185140e-08	5.316488e+01	7.783097e+02
1.460000e-06	7.440175e-06	1.189072e-08	5.355131e+01	7.811158e+02
1.470000e-06	7.490865e-06	1.192653e-08	5.391616e+01	7.836949e+02
1.480000e-06	7.538453e-06	1.196144e-08	5.425868e+01	7.860421e+02
1.490000e-06	7.583361e-06	1.199764e-08	5.458191e+01	7.881600e+02
1.500000e-06	7.625694e-06	1.203057e-08	5.488661e+01	7.900581e+02
1.510000e-06	7.665287e-06	1.205952e-08	5.517158e+01	7.917526e+02
1.520000e-06	7.702178e-06	1.208383e-08	5.543710e+01	7.932642e+02
1.530000e-06	7.736363e-06	1.210497e-08	5.568315e+01	7.946154e+02
1.540000e-06	7.767806e-06	1.212421e-08	5.590947e+01	7.958276e+02
1.550000e-06	7.796516e-06	1.214089e-08	5.611611e+01	7.969193e+02
1.560000e-06	7.822349e-06	1.215569e-08	5.630204e+01	7.979031e+02
1.570000e-06	7.845276e-06	1.216765e-08	5.646707e+01	7.987851e+02
1.580000e-06	7.865478e-06	1.217918e-08	5.661247e+01	7.995649e+02
1.590000e-06	7.882885e-06	1.218996e-08	5.673776e+01	8.002358e+02
1.600000e-06	7.897335e-06	1.219930e-08	5.684176e+01	8.007872e+02
1.610000e-06	7.908721e-06	1.220826e-08	5.692371e+01	8.012059e+02
1.620000e-06	7.916992e-06	1.221490e-08	5.698325e+01	8.014795e+02
1.630000e-06	7.922414e-06	1.221810e-08	5.702227e+01	8.015977e+02
1.640000e-06	7.925086e-06	1.221745e-08	5.704150e+01	8.015548e+02
1.650000e-06	7.924926e-06	1.221613e-08	5.704035e+01	8.013504e+02
1.660000e-06	7.922141e-06	1.220801e-08	5.702031e+01	8.009897e+02
1.670000e-06	7.916804e-06	1.219705e-08	5.698189e+01	8.004831e+02
1.680000e-06	7.908787e-06	1.219066e-08	5.692419e+01	7.998447e+02
1.690000e-06	7.898094e-06	1.218201e-08	5.684722e+01	7.990910e+02
1.700000e-06	7.884617e-06	1.217141e-08	5.675022e+01	7.982385e+02
1.710000e-06	7.868455e-06	1.215930e-08	5.663389e+01	7.973023e+02
1.720000e-06	7.849920e-06	1.214089e-08	5.650049e+01	7.962944e+02
1.730000e-06	7.829074e-06	1.211485e-08	5.635045e+01	7.952226e+02
1.740000e-06	7.805391e-06	1.202968e-08	5.617999e+01	7.940902e+02
1.750000e-06	7.778228e-06	1.201916e-08	5.598448e+01	7.928958e+02
1.760000e-06	7.747517e-06	1.204282e-08	5.576343e+01	7.916342e+02
1.770000e-06	7.713930e-06	1.201992e-08	5.552169e+01	7.902968e+02
1.780000e-06	7.678073e-06	1.200052e-08	5.526361e+01	7.888727e+02
1.790000e-06	7.639881e-06	1.203960e-08	5.498872e+01	7.873499e+02
1.800000e-06	7.599592e-06	1.201755e-08	5.469873e+01	7.857155e+02
1.810000e-06	7.557206e-06	1.190026e-08	5.439366e+01	7.839571e+02
1.820000e-06	7.512229e-06	1.199155e-08	5.406992e+01	7.820623e+02
1.830000e-06	7.464588e-06	1.192837e-08	5.372703e+01	7.800197e+02
1.840000e-06	7.414101e-06	1.188390e-08	5.336365e+01	7.778186e+02
1.850000e-06	7.360578e-06	1.186734e-08	5.297841e+01	7.754494e+02
1.860000e-06	7.304276e-06	1.174606e-08	5.257317e+01	7.729036e+02
1.870000e-06	7.245397e-06	1.180180e-08	5.214939e+01	7.701743e+02
1.880000e-06	7.184007e-06	1.170488e-08	5.170752e+01	7.672571e+02
1.890000e-06	7.119867e-06	1.168501e-08	5.124587e+01	7.641498e+02
1.900000e-06	7.052904e-06	1.165364e-08	5.076390e+01	7.608534e+02
1.910000e-06	6.983215e-06	1.152137e-08	5.026230e+01	7.573723e+02
1.920000e-06	6.910737e-06	1.151600e-08	4.974064e+01	7.537140e+02
1.930000e-06	6.835545e-06	1.144336e-08	4.919944e+01	7.498884e+02
1.940000e-06	6.757565e-06	1.142883e-08	4.863817e+01	7.459075e+02
1.950000e-06	6.676970e-06	1.133639e-08	4.805808e+01	7.417834e+02
1.960000e-06	6.594032e-06	1.126222e-08	4.746112e+01	7.375272e+02
1.970000e-06	6.508680e-06	1.122206e-08	4.684679e+01	7.331473e+02
1.980000e-06	6.420873e-06	1.109709e-08	4.621480e+01	7.286479e+02
1.990000e-06	6.330762e-06	1.106473e-08	4.556622e+01	7.240286e+02
2.000000e-06	6.238496e-06	1.098464e-08	4.490212e+01	7.192833e+02
2.010000e-06	6.144011e-06	1.091876e-08	4.422206e+01	7.144014e+02
2.020000e-06	6.047260e-06	1.081944e-08	4.352569e+01	7.093685e+02
2.030000e-06	5.948313e-06	1.074015e-08	4.281350e+01	7.041680e+02
2.040000e-06	5.847326e-06	1.067627e-08	4.208664e+01	6.987835e+02
2.050000e-06	5.744268e-06	1.057772e-08	4.134488e+01	6.932008e+02
2.060000e-06	5.639181e-06	1.048911e-08	4.058850e+01	6.874094e+02
2.070000e-06	5.532191e-06	1.039021e-08	3.981843e+01	6.814043e+02
2.080000e-06	5.423313e-06	1.031259e-08	3.903477e+01	6.751862e+02
2.090000e-06	5.312542e-06	1.020264e-08	3.823749e+01	6.687608e+02
2.100000e-06	5.199735e-06	1.011202e-08	3.742555e+01	6.621380e+02
2.110000e-06	5.084926e-06	1.000925e-08	3.659920e+01	6.553291e+02
2.120000e-06	4.968157e-06	9.897178e-09	3.575875e+01	6.483448e+02
2.130000e-06	4.849398e-06	9.778065e-09	3.490397e+01	6.411925e+02
2.140000e-06	4.728811e-06	9.673981e-09	3.403603e+01	6.338741e+02
2.150000e-06	4.606542e-06	9.572684e-09	3.315599e+01	6.263844e+02
2.160000e-06	4.482610e-06	9.448562e-09	3.226398e+01	6.187110e+02
2.170000e-06	4.357055e-06	9.322184e-09	3.136028e+01	6.108347e+02
2.180000e-06	4.229829e-06	9.193494e-09	3.044456e+01	6.027314e+02
2.190000e-06	4.100990e-06	9.068392e-09	2.951724e+01	5.943746e+02
2.200000e-06	3.970676e-06	8.931478e-09	2.857929e+01	5.857388e+02
2.210000e-06	3.838943e-06	8.800616e-09	2.763113e+01	5.768020e+02
2.220000e-06	3.705841e-06	8.661865e-09	2.667312e+01	5.675486e+02
2.230000e-06	3.571286e-06	8.515461e-09	2.570465e+01	5.579705e+02
2.240000e-06	3.435315e-06	8.363300e-09	2.472598e+01	5.480678e+02
2.250000e-06	3.298043e-06	8.214094e-09	2.373795e+01	5.378473e+02
2.260000e-06	3.159581e-06	8.056947e-09	2.274136e+01	5.273204e+02
2.270000e-06	3.019991e-06	7.890852e-09	2.173665e+01	5.164994e+02
2.280000e-06	2.879218e-06	7.719838e-09	2.072343e+01	5.053942e+02
2.290000e-06	2.737276e-06	7.548548e-09	1.970178e+01	4.940084e+02
2.300000e-06	2.594258e-06	7.375251e-09	1.867240e+01	4.823365e+02
2.310000e-06	2.450253e-06	7.192174e-09	1.763591e+01	4.703625e+02
2.320000e-06	2.305392e-06	7.002076e-09	1.659326e+01	4.580598e+02
2.330000e-06	2.159770e-06	6.801195e-09	1.554514e+01	4.453931e+02
2.340000e-06	2.013351e-06	6.596376e-09	1.449127e+01	4.323214e+02
2.350000e-06	1.866235e-06	6.390899e-09	1.343239e+01	4.188025e+02
2.360000e-06	1.718576e-06	6.181132e-09	1.236960e+01	4.047971e+02
2.370000e-06	1.570433e-06	5.959484e-09	1.130333e+01	3.902737e+02
2.380000e-06	1.421814e-06	5.728514e-09	1.023363e+01	3.752108e+02
2.390000e-06	1.272700e-06	5.492983e-09	9.160368e+00	3.595985e+02
2.400000e-06	1.123196e-06	5.250694e-09	8.084300e+00	3.434370e+02
2.410000e-06	9.734039e-07	4.999682e-09	7.006160e+00	3.267335e+02
2.420000e-06	8.233398e-07	4.740335e-09	5.926060e+00	3.094963e+02
2.430000e-06	6.730110e-07	4.468294e-09	4.844056e+00	2.917285e+02
2.440000e-06	5.224775e-07	4.185202e-09	3.760578e+00	2.734204e+02
2.450000e-06	3.717491e-07	3.894961e-09	2.675697e+00	2.545434e+02
2.460000e-06	2.208057e-07	3.598045e-09	1.589269e+00	2.350457e+02
2.470000e-06	6.965556e-08	3.288120e-09	5.013520e-01	2.148504e+02
2.480000e-06	-8.161491e-08	2.961277e-09	-5.874305e-01	1.938579e+02
2.490000e-06	-2.328153e-07	2.622824e-09	-1.675709e+00	1.719523e+02
2.500000e-06	-3.839222e-07	2.273533e-09	-2.763314e+00	1.490107e+02
2.510000e-06	-5.349027e-07	1.907803e-09	-3.850009e+00	1.249167e+02
2.520000e-06	-6.857240e-07	1.523506e-09	-4.935559e+00	9.957436e+01
2.530000e-06	-8.363589e-07	1.120637e-09	-6.019767e+00	7.292355e+01
2.540000e-06	-9.866594e-07	6.963369e-10	-7.101568e+00	4.495325e+01
2.550000e-06	-1.136565e-06	2.527147e-10	-8.180527e+00	1.571198e+01
2.560000e-06	-1.286083e-06	-2.058656e-10	-9.256694e+00	-1.468630e+01
2.570000e-06	-1.435161e-06	-6.792074e-10	-1.032969e+01	-4.606161e+01
2.580000e-06	-1.583755e-06	-1.170131e-09	-1.139922e+01	-7.817336e+01
2.590000e-06	-1.731834e-06	-1.675961e-09	-1.246503e+01	-1.107312e+02
2.600000e-06	-1.879323e-06	-2.186582e-09	-1.352659e+01	-1.434106e+02
2.610000e-06	-2.026127e-06	-2.691696e-09	-1.458323e+01	-1.758719e+02
2.620000e-06	-2.172105e-06	-3.183790e-09	-1.563392e+01	-2.077809e+02
2.630000e-06	-2.317280e-06	-3.659216e-09	-1.667883e+01	-2.388286e+02
2.640000e-06	-2.461609e-06	-4.115078e-09	-1.771764e+01	-2.687492e+02
2.650000e-06	-2.604887e-06	-4.548076e-09	-1.874890e+01	-2.973339e+02
2.660000e-06	-2.747047e-06	-4.955363e-09	-1.977211e+01	-3.244394e+02
2.670000e-06	-2.888095e-06	-5.339475e-09	-2.078732e+01	-3.499907e+02
2.680000e-06	-3.028039e-06	-5.702663e-09	-2.179458e+01	-3.739783e+02
2.690000e-06	-3.166806e-06	-6.044868e-09	-2.279336e+01	-3.964499e+02
2.700000e-06	-3.304360e-06	-6.368320e-09	-2.378342e+01	-4.174983e+02
2.710000e-06	-3.440728e-06	-6.673676e-09	-2.476494e+01	-4.372472e+02
2.720000e-06	-3.575775e-06	-6.961424e-09	-2.573695e+01	-4.558357e+02
2.730000e-06	-3.709423e-06	-7.232726e-09	-2.669890e+01	-4.734039e+02
2.740000e-06	-3.841792e-06	-7.490727e-09	-2.765164e+01	-4.900809e+02
2.750000e-06	-3.972825e-06	-7.737535e-09	-2.859476e+01	-5.059757e+02
2.760000e-06	-4.102452e-06	-7.974182e-09	-2.952776e+01	-5.211727e+02
2.770000e-06	-4.230738e-06	-8.199894e-09	-3.045111e+01	-5.357304e+02
2.780000e-06	-4.357534e-06	-8.413658e-09	-3.136373e+01	-5.496837e+02
2.790000e-06	-4.482800e-06	-8.615335e-09	-3.226535e+01	-5.630493e+02
2.800000e-06	-4.606561e-06	-8.805184e-09	-3.315613e+01	-5.758319e+02
2.810000e-06	-4.728670e-06	-8.987110e-09	-3.403502e+01	-5.880313e+02
2.820000e-06	-4.849117e-06	-9.161493e-09	-3.490195e+01	-5.996489e+02
2.830000e-06	-4.967703e-06	-9.326272e-09	-3.575548e+01	-6.106922e+02
2.840000e-06	-5.084212e-06	-9.485021e-09	-3.659406e+01	-6.211779e+02
2.850000e-06	-5.198664e-06	-9.640541e-09	-3.741784e+01	-6.311322e+02
2.860000e-06	-5.310999e-06	-9.792748e-09	-3.822638e+01	-6.405896e+02
2.870000e-06	-5.421255e-06	-9.935412e-09	-3.901996e+01	-6.495902e+02
2.880000e-06	-5.529594e-06	-1.006740e-08	-3.979974e+01	-6.581753e+02
2.890000e-06	-5.636080e-06	-1.019273e-08	-4.056618e+01	-6.663839e+02
2.900000e-06	-5.740624e-06	-1.031061e-08	-4.131865e+01	-6.742494e+02
2.910000e-06	-5.842970e-06	-1.042255e-08	-4.205529e+01	-6.817969e+02
2.920000e-06	-5.943106e-06	-1.053034e-08	-4.277603e+01	-6.890428e+02
2.930000e-06	-6.041168e-06	-1.063620e-08	-4.348184e+01	-6.959951e+02
2.940000e-06	-6.137114e-06	-1.073836e-08	-4.417242e+01	-7.026558e+02
