# Temperatura_=_33.22
# Concentracion g/m^3_=_10000.0
# C_Vs_to_Am_M_A/Vsm_=_65563218390.804596
# pendiente_HvsI_1/m_=_3716.3
# ordenada_HvsI_A/m_=_1297.0
# frecuencia_Hz_=_302550.17689966765

Tiempo_(s)	Campo_(V.s)	Magnetizacion_(V.s)	Campo_(kA/m)	Magnetizacion_(A/m)
0.000000e+00	-7.920741e-06	-1.105763e-08	-5.685996e+01	-7.250671e+02
1.000000e-08	-7.917464e-06	-1.105617e-08	-5.683643e+01	-7.247803e+02
2.000000e-08	-7.911559e-06	-1.105294e-08	-5.679405e+01	-7.243819e+02
3.000000e-08	-7.903065e-06	-1.104968e-08	-5.673307e+01	-7.238808e+02
4.000000e-08	-7.891791e-06	-1.104579e-08	-5.665214e+01	-7.232871e+02
5.000000e-08	-7.877561e-06	-1.103908e-08	-5.654999e+01	-7.226107e+02
6.000000e-08	-7.860527e-06	-1.102954e-08	-5.642770e+01	-7.218603e+02
7.000000e-08	-7.841102e-06	-1.101708e-08	-5.628826e+01	-7.210424e+02
8.000000e-08	-7.819363e-06	-1.100515e-08	-5.613220e+01	-7.201613e+02
9.000000e-08	-7.794731e-06	-1.102725e-08	-5.595538e+01	-7.192182e+02
1.000000e-07	-7.766863e-06	-1.102408e-08	-5.575533e+01	-7.182122e+02
1.100000e-07	-7.736019e-06	-1.096204e-08	-5.553391e+01	-7.171402e+02
1.200000e-07	-7.702385e-06	-1.092192e-08	-5.529247e+01	-7.159975e+02
1.300000e-07	-7.666094e-06	-1.090778e-08	-5.503194e+01	-7.147788e+02
1.400000e-07	-7.627499e-06	-1.088378e-08	-5.475489e+01	-7.134782e+02
1.500000e-07	-7.586786e-06	-1.082684e-08	-5.446262e+01	-7.120899e+02
1.600000e-07	-7.543763e-06	-1.081233e-08	-5.415378e+01	-7.106082e+02
1.700000e-07	-7.498106e-06	-1.081145e-08	-5.382603e+01	-7.090273e+02
1.800000e-07	-7.449694e-06	-1.071825e-08	-5.347849e+01	-7.073413e+02
1.900000e-07	-7.398402e-06	-1.074568e-08	-5.311029e+01	-7.055440e+02
2.000000e-07	-7.344166e-06	-1.076411e-08	-5.272094e+01	-7.036286e+02
2.100000e-07	-7.287181e-06	-1.070600e-08	-5.231188e+01	-7.015880e+02
2.200000e-07	-7.227553e-06	-1.069287e-08	-5.188383e+01	-6.994149e+02
2.300000e-07	-7.165351e-06	-1.062241e-08	-5.143730e+01	-6.971022e+02
2.400000e-07	-7.100457e-06	-1.057820e-08	-5.097146e+01	-6.946440e+02
2.500000e-07	-7.032798e-06	-1.053029e-08	-5.048576e+01	-6.920359e+02
2.600000e-07	-6.962529e-06	-1.049990e-08	-4.998132e+01	-6.892761e+02
2.700000e-07	-6.889521e-06	-1.046799e-08	-4.945723e+01	-6.863652e+02
2.800000e-07	-6.813681e-06	-1.039647e-08	-4.891280e+01	-6.833071e+02
2.900000e-07	-6.735054e-06	-1.033186e-08	-4.834837e+01	-6.801078e+02
3.000000e-07	-6.653772e-06	-1.028617e-08	-4.776487e+01	-6.767752e+02
3.100000e-07	-6.570231e-06	-1.026324e-08	-4.716517e+01	-6.733180e+02
3.200000e-07	-6.484535e-06	-1.020449e-08	-4.654999e+01	-6.697438e+02
3.300000e-07	-6.396484e-06	-1.015139e-08	-4.591790e+01	-6.660586e+02
3.400000e-07	-6.306062e-06	-1.012018e-08	-4.526880e+01	-6.622648e+02
3.500000e-07	-6.213407e-06	-1.005904e-08	-4.460366e+01	-6.583608e+02
3.600000e-07	-6.118520e-06	-9.986418e-09	-4.392251e+01	-6.543408e+02
3.700000e-07	-6.021321e-06	-9.914260e-09	-4.322475e+01	-6.501948e+02
3.800000e-07	-5.921873e-06	-9.846947e-09	-4.251085e+01	-6.459097e+02
3.900000e-07	-5.820363e-06	-9.770005e-09	-4.178215e+01	-6.414708e+02
4.000000e-07	-5.716793e-06	-9.695926e-09	-4.103866e+01	-6.368634e+02
4.100000e-07	-5.611185e-06	-9.634554e-09	-4.028054e+01	-6.320746e+02
4.200000e-07	-5.503606e-06	-9.566803e-09	-3.950828e+01	-6.270947e+02
4.300000e-07	-5.394065e-06	-9.478988e-09	-3.872192e+01	-6.219181e+02
4.400000e-07	-5.282629e-06	-9.385722e-09	-3.792196e+01	-6.165441e+02
4.500000e-07	-5.169148e-06	-9.310596e-09	-3.710733e+01	-6.109760e+02
4.600000e-07	-5.053571e-06	-9.233801e-09	-3.627765e+01	-6.052201e+02
4.700000e-07	-4.936097e-06	-9.145085e-09	-3.543435e+01	-5.992843e+02
4.800000e-07	-4.816850e-06	-9.052223e-09	-3.457831e+01	-5.931754e+02
4.900000e-07	-4.695862e-06	-8.953967e-09	-3.370979e+01	-5.868979e+02
5.000000e-07	-4.573202e-06	-8.846136e-09	-3.282926e+01	-5.804516e+02
5.100000e-07	-4.448854e-06	-8.738864e-09	-3.193661e+01	-5.738310e+02
5.200000e-07	-4.322858e-06	-8.639006e-09	-3.103214e+01	-5.670244e+02
5.300000e-07	-4.195270e-06	-8.534744e-09	-3.011623e+01	-5.600152e+02
5.400000e-07	-4.066157e-06	-8.419855e-09	-2.918938e+01	-5.527827e+02
5.500000e-07	-3.935601e-06	-8.304099e-09	-2.825217e+01	-5.453045e+02
5.600000e-07	-3.803485e-06	-8.190039e-09	-2.730376e+01	-5.375587e+02
5.700000e-07	-3.669860e-06	-8.068825e-09	-2.634452e+01	-5.295263e+02
5.800000e-07	-3.534896e-06	-7.938144e-09	-2.537566e+01	-5.211927e+02
5.900000e-07	-3.398550e-06	-7.806722e-09	-2.439688e+01	-5.125494e+02
6.000000e-07	-3.260885e-06	-7.673586e-09	-2.340864e+01	-5.035935e+02
6.100000e-07	-3.122009e-06	-7.534621e-09	-2.241170e+01	-4.943271e+02
6.200000e-07	-2.981787e-06	-7.389362e-09	-2.140510e+01	-4.847551e+02
6.300000e-07	-2.840159e-06	-7.235526e-09	-2.038841e+01	-4.748833e+02
6.400000e-07	-2.697367e-06	-7.072857e-09	-1.936336e+01	-4.647147e+02
6.500000e-07	-2.553649e-06	-6.905056e-09	-1.833166e+01	-4.542476e+02
6.600000e-07	-2.409011e-06	-6.740757e-09	-1.729336e+01	-4.434732e+02
6.700000e-07	-2.263427e-06	-6.575796e-09	-1.624827e+01	-4.323751e+02
6.800000e-07	-2.117061e-06	-6.403737e-09	-1.519757e+01	-4.209287e+02
6.900000e-07	-1.970063e-06	-6.224160e-09	-1.414232e+01	-4.091036e+02
7.000000e-07	-1.822438e-06	-6.035851e-09	-1.308258e+01	-3.968658e+02
7.100000e-07	-1.674210e-06	-5.839889e-09	-1.201851e+01	-3.841807e+02
7.200000e-07	-1.525429e-06	-5.639022e-09	-1.095047e+01	-3.710173e+02
7.300000e-07	-1.376213e-06	-5.432959e-09	-9.879304e+00	-3.573503e+02
7.400000e-07	-1.226627e-06	-5.216744e-09	-8.805487e+00	-3.431632e+02
7.500000e-07	-1.076667e-06	-4.990730e-09	-7.728982e+00	-3.284479e+02
7.600000e-07	-9.263320e-07	-4.760481e-09	-6.649782e+00	-3.132046e+02
7.700000e-07	-7.757028e-07	-4.524876e-09	-5.568472e+00	-2.974381e+02
7.800000e-07	-6.248281e-07	-4.278557e-09	-4.485401e+00	-2.811540e+02
7.900000e-07	-4.737166e-07	-4.022568e-09	-3.400630e+00	-2.643535e+02
8.000000e-07	-3.224140e-07	-3.760689e-09	-2.314486e+00	-2.470280e+02
8.100000e-07	-1.709074e-07	-3.488206e-09	-1.226878e+00	-2.291548e+02
8.200000e-07	-1.924189e-08	-3.200211e-09	-1.381301e-01	-2.106936e+02
8.300000e-07	1.324637e-07	-2.902980e-09	9.509062e-01	-1.915863e+02
8.400000e-07	2.841312e-07	-2.599418e-09	2.039669e+00	-1.717590e+02
8.500000e-07	4.356790e-07	-2.283698e-09	3.127572e+00	-1.511267e+02
8.600000e-07	5.870616e-07	-1.954201e-09	4.214290e+00	-1.296018e+02
8.700000e-07	7.382893e-07	-1.613082e-09	5.299895e+00	-1.071036e+02
8.800000e-07	8.893038e-07	-1.259162e-09	6.383970e+00	-8.356953e+01
8.900000e-07	1.040047e-06	-8.857007e-10	7.466101e+00	-5.896632e+01
9.000000e-07	1.190398e-06	-4.921860e-10	8.545412e+00	-3.329999e+01
9.100000e-07	1.340292e-06	-8.500809e-11	9.621441e+00	-6.623193e+00
9.200000e-07	1.489724e-06	3.336493e-10	1.069416e+01	2.096077e+01
9.300000e-07	1.638633e-06	7.629908e-10	1.176312e+01	4.929818e+01
9.400000e-07	1.786960e-06	1.201229e-09	1.282790e+01	7.818949e+01
9.500000e-07	1.934638e-06	1.644911e-09	1.388803e+01	1.073981e+02
9.600000e-07	2.081655e-06	2.092760e-09	1.494340e+01	1.366626e+02
9.700000e-07	2.227923e-06	2.538651e-09	1.599340e+01	1.657112e+02
9.800000e-07	2.373343e-06	2.974454e-09	1.703732e+01	1.942778e+02
9.900000e-07	2.517862e-06	3.396575e-09	1.807477e+01	2.221166e+02
1.000000e-06	2.661421e-06	3.803616e-09	1.910532e+01	2.490158e+02
1.010000e-06	2.803984e-06	4.194069e-09	2.012872e+01	2.748078e+02
1.020000e-06	2.945445e-06	4.565721e-09	2.114422e+01	2.993755e+02
1.030000e-06	3.085686e-06	4.918127e-09	2.215095e+01	3.226542e+02
1.040000e-06	3.224665e-06	5.250409e-09	2.314863e+01	3.446293e+02
1.050000e-06	3.362341e-06	5.562545e-09	2.413696e+01	3.653302e+02
1.060000e-06	3.498742e-06	5.857277e-09	2.511613e+01	3.848212e+02
1.070000e-06	3.633834e-06	6.138907e-09	2.608590e+01	4.031906e+02
1.080000e-06	3.767549e-06	6.406746e-09	2.704579e+01	4.205393e+02
1.090000e-06	3.899957e-06	6.658623e-09	2.799630e+01	4.369702e+02
1.100000e-06	4.031026e-06	6.898673e-09	2.893719e+01	4.525789e+02
1.110000e-06	4.160656e-06	7.128349e-09	2.986775e+01	4.674473e+02
1.120000e-06	4.288810e-06	7.346483e-09	3.078772e+01	4.816397e+02
1.130000e-06	4.415475e-06	7.551442e-09	3.169700e+01	4.952021e+02
1.140000e-06	4.540642e-06	7.742710e-09	3.259552e+01	5.081637e+02
1.150000e-06	4.664272e-06	7.924725e-09	3.348302e+01	5.205404e+02
1.160000e-06	4.786206e-06	8.100538e-09	3.435834e+01	5.323397e+02
1.170000e-06	4.906370e-06	8.270483e-09	3.522095e+01	5.435658e+02
1.180000e-06	5.024768e-06	8.434231e-09	3.607088e+01	5.542243e+02
1.190000e-06	5.141284e-06	8.591124e-09	3.690730e+01	5.643253e+02
1.200000e-06	5.255805e-06	8.739426e-09	3.772941e+01	5.738864e+02
1.210000e-06	5.368334e-06	8.879063e-09	3.853721e+01	5.829326e+02
1.220000e-06	5.478935e-06	9.010526e-09	3.933117e+01	5.914958e+02
1.230000e-06	5.587601e-06	9.135084e-09	4.011124e+01	5.996123e+02
1.240000e-06	5.694295e-06	9.252974e-09	4.087716e+01	6.073207e+02
1.250000e-06	5.798865e-06	9.364191e-09	4.162782e+01	6.146584e+02
1.260000e-06	5.901255e-06	9.470292e-09	4.236284e+01	6.216592e+02
1.270000e-06	6.001537e-06	9.573031e-09	4.308273e+01	6.283513e+02
1.280000e-06	6.099548e-06	9.671392e-09	4.378631e+01	6.347563e+02
1.290000e-06	6.195229e-06	9.763229e-09	4.447317e+01	6.408891e+02
1.300000e-06	6.288681e-06	9.850223e-09	4.514402e+01	6.467590e+02
1.310000e-06	6.379880e-06	9.935371e-09	4.579871e+01	6.523709e+02
1.320000e-06	6.468770e-06	1.001746e-08	4.643681e+01	6.577275e+02
1.330000e-06	6.555412e-06	1.009379e-08	4.705878e+01	6.628311e+02
1.340000e-06	6.639787e-06	1.016488e-08	4.766448e+01	6.676850e+02
1.350000e-06	6.721734e-06	1.023287e-08	4.825275e+01	6.722947e+02
1.360000e-06	6.801213e-06	1.029913e-08	4.882330e+01	6.766683e+02
1.370000e-06	6.878191e-06	1.036430e-08	4.937589e+01	6.808158e+02
1.380000e-06	6.952525e-06	1.042721e-08	4.990951e+01	6.847485e+02
1.390000e-06	7.024300e-06	1.048584e-08	5.042475e+01	6.884779e+02
1.400000e-06	7.093664e-06	1.054020e-08	5.092269e+01	6.920138e+02
1.410000e-06	7.160474e-06	1.059132e-08	5.140229e+01	6.953642e+02
1.420000e-06	7.224648e-06	1.063929e-08	5.186297e+01	6.985338e+02
1.430000e-06	7.286364e-06	1.068256e-08	5.230601e+01	7.015242e+02
1.440000e-06	7.345655e-06	1.072295e-08	5.273164e+01	7.043344e+02
1.450000e-06	7.402344e-06	1.076119e-08	5.313859e+01	7.069616e+02
1.460000e-06	7.456348e-06	1.079641e-08	5.352626e+01	7.094026e+02
1.470000e-06	7.507378e-06	1.082875e-08	5.389258e+01	7.116550e+02
1.480000e-06	7.555331e-06	1.085943e-08	5.423682e+01	7.137188e+02
1.490000e-06	7.600537e-06	1.088795e-08	5.456133e+01	7.155969e+02
1.500000e-06	7.643045e-06	1.091344e-08	5.486649e+01	7.172957e+02
1.510000e-06	7.682796e-06	1.093698e-08	5.515184e+01	7.188248e+02
1.520000e-06	7.719948e-06	1.095772e-08	5.541855e+01	7.201963e+02
1.530000e-06	7.754457e-06	1.097730e-08	5.566627e+01	7.214239e+02
1.540000e-06	7.786133e-06	1.099570e-08	5.589366e+01	7.225211e+02
1.550000e-06	7.815087e-06	1.101246e-08	5.610151e+01	7.235000e+02
1.560000e-06	7.841243e-06	1.102825e-08	5.628928e+01	7.243701e+02
1.570000e-06	7.864465e-06	1.104112e-08	5.645598e+01	7.251374e+02
1.580000e-06	7.884967e-06	1.105108e-08	5.660315e+01	7.258041e+02
1.590000e-06	7.902679e-06	1.105902e-08	5.673029e+01	7.263691e+02
1.600000e-06	7.917373e-06	1.106584e-08	5.683578e+01	7.268283e+02
1.610000e-06	7.928973e-06	1.107237e-08	5.691905e+01	7.271764e+02
1.620000e-06	7.937457e-06	1.107731e-08	5.697996e+01	7.274075e+02
1.630000e-06	7.943071e-06	1.108154e-08	5.702025e+01	7.275171e+02
1.640000e-06	7.945950e-06	1.108445e-08	5.704092e+01	7.275026e+02
1.650000e-06	7.946030e-06	1.108562e-08	5.704150e+01	7.273644e+02
1.660000e-06	7.943426e-06	1.107873e-08	5.702280e+01	7.271061e+02
1.670000e-06	7.938176e-06	1.106813e-08	5.698512e+01	7.267342e+02
1.680000e-06	7.930275e-06	1.106061e-08	5.692840e+01	7.262573e+02
1.690000e-06	7.919728e-06	1.105258e-08	5.685268e+01	7.256852e+02
1.700000e-06	7.906346e-06	1.104536e-08	5.675662e+01	7.250280e+02
1.710000e-06	7.890261e-06	1.103870e-08	5.664115e+01	7.242947e+02
1.720000e-06	7.871871e-06	1.102974e-08	5.650914e+01	7.234926e+02
1.730000e-06	7.851143e-06	1.099565e-08	5.636034e+01	7.226265e+02
1.740000e-06	7.827575e-06	1.092149e-08	5.619115e+01	7.216983e+02
1.750000e-06	7.800662e-06	1.092059e-08	5.599795e+01	7.207077e+02
1.760000e-06	7.770243e-06	1.094632e-08	5.577959e+01	7.196519e+02
1.770000e-06	7.736825e-06	1.092564e-08	5.553970e+01	7.185268e+02
1.780000e-06	7.701031e-06	1.091205e-08	5.528275e+01	7.173270e+02
1.790000e-06	7.662902e-06	1.095759e-08	5.500903e+01	7.160469e+02
1.800000e-06	7.622652e-06	1.093683e-08	5.472009e+01	7.146804e+02
1.810000e-06	7.580298e-06	1.086835e-08	5.441605e+01	7.132220e+02
1.820000e-06	7.535404e-06	1.094165e-08	5.409377e+01	7.116658e+02
1.830000e-06	7.487849e-06	1.087250e-08	5.375239e+01	7.100060e+02
1.840000e-06	7.437402e-06	1.081914e-08	5.339025e+01	7.082366e+02
1.850000e-06	7.383976e-06	1.077583e-08	5.300673e+01	7.063508e+02
1.860000e-06	7.327793e-06	1.068293e-08	5.260341e+01	7.043416e+02
1.870000e-06	7.268907e-06	1.073137e-08	5.218069e+01	7.022017e+02
1.880000e-06	7.207411e-06	1.067718e-08	5.173923e+01	6.999239e+02
1.890000e-06	7.143208e-06	1.068390e-08	5.127835e+01	6.975019e+02
1.900000e-06	7.076232e-06	1.065080e-08	5.079755e+01	6.949310e+02
1.910000e-06	7.006527e-06	1.053363e-08	5.029716e+01	6.922085e+02
1.920000e-06	6.934055e-06	1.052124e-08	4.977692e+01	6.893346e+02
1.930000e-06	6.858942e-06	1.048795e-08	4.923771e+01	6.863122e+02
1.940000e-06	6.781108e-06	1.048004e-08	4.867897e+01	6.831469e+02
1.950000e-06	6.700618e-06	1.039604e-08	4.810116e+01	6.798462e+02
1.960000e-06	6.617704e-06	1.032995e-08	4.750595e+01	6.764188e+02
1.970000e-06	6.532366e-06	1.027958e-08	4.689335e+01	6.728726e+02
1.980000e-06	6.444559e-06	1.018087e-08	4.626301e+01	6.692142e+02
1.990000e-06	6.354368e-06	1.015398e-08	4.561557e+01	6.654469e+02
2.000000e-06	6.261971e-06	1.010953e-08	4.495228e+01	6.615703e+02
2.010000e-06	6.167303e-06	1.006118e-08	4.427270e+01	6.575794e+02
2.020000e-06	6.070427e-06	9.977352e-09	4.357726e+01	6.534654e+02
2.030000e-06	5.971455e-06	9.908929e-09	4.286678e+01	6.492158e+02
2.040000e-06	5.870358e-06	9.849689e-09	4.214104e+01	6.448162e+02
2.050000e-06	5.767101e-06	9.763500e-09	4.139980e+01	6.402517e+02
2.060000e-06	5.661840e-06	9.680092e-09	4.064418e+01	6.355087e+02
2.070000e-06	5.554770e-06	9.610860e-09	3.987556e+01	6.305766e+02
2.080000e-06	5.445747e-06	9.555887e-09	3.909293e+01	6.254489e+02
2.090000e-06	5.334665e-06	9.473598e-09	3.829551e+01	6.201235e+02
2.100000e-06	5.221620e-06	9.393698e-09	3.748401e+01	6.146028e+02
2.110000e-06	5.106641e-06	9.303200e-09	3.665862e+01	6.088925e+02
2.120000e-06	4.989607e-06	9.200670e-09	3.581847e+01	6.030003e+02
2.130000e-06	4.870581e-06	9.094543e-09	3.496403e+01	5.969335e+02
2.140000e-06	4.749738e-06	9.011681e-09	3.409654e+01	5.906974e+02
2.150000e-06	4.627270e-06	8.933179e-09	3.321739e+01	5.842931e+02
2.160000e-06	4.503119e-06	8.833197e-09	3.232616e+01	5.777163e+02
2.170000e-06	4.377265e-06	8.721678e-09	3.142270e+01	5.709569e+02
2.180000e-06	4.249776e-06	8.610960e-09	3.050751e+01	5.639996e+02
2.190000e-06	4.120716e-06	8.504012e-09	2.958104e+01	5.568244e+02
2.200000e-06	3.990238e-06	8.390118e-09	2.864439e+01	5.494091e+02
2.210000e-06	3.858234e-06	8.279054e-09	2.769678e+01	5.417316e+02
2.220000e-06	3.724743e-06	8.159737e-09	2.673850e+01	5.337717e+02
2.230000e-06	3.589938e-06	8.027236e-09	2.577079e+01	5.255139e+02
2.240000e-06	3.453814e-06	7.887292e-09	2.479360e+01	5.169479e+02
2.250000e-06	3.316378e-06	7.752300e-09	2.380700e+01	5.080696e+02
2.260000e-06	3.177697e-06	7.616990e-09	2.281146e+01	4.988797e+02
2.270000e-06	3.037724e-06	7.476637e-09	2.180665e+01	4.893830e+02
2.280000e-06	2.896482e-06	7.332396e-09	2.079273e+01	4.795851e+02
2.290000e-06	2.754149e-06	7.186878e-09	1.977098e+01	4.694900e+02
2.300000e-06	2.610826e-06	7.034355e-09	1.874212e+01	4.590974e+02
2.310000e-06	2.466504e-06	6.871266e-09	1.770609e+01	4.484006e+02
2.320000e-06	2.321294e-06	6.698983e-09	1.666368e+01	4.373848e+02
2.330000e-06	2.175386e-06	6.515142e-09	1.561626e+01	4.260275e+02
2.340000e-06	2.028821e-06	6.327483e-09	1.456413e+01	4.142996e+02
2.350000e-06	1.881567e-06	6.142053e-09	1.350704e+01	4.021676e+02
2.360000e-06	1.733637e-06	5.956354e-09	1.244511e+01	3.895969e+02
2.370000e-06	1.585120e-06	5.760356e-09	1.137897e+01	3.765551e+02
2.380000e-06	1.436075e-06	5.553714e-09	1.030903e+01	3.630153e+02
2.390000e-06	1.286556e-06	5.340119e-09	9.235693e+00	3.489587e+02
2.400000e-06	1.136632e-06	5.117761e-09	8.159444e+00	3.343751e+02
2.410000e-06	9.863730e-07	4.887582e-09	7.080793e+00	3.192629e+02
2.420000e-06	8.358611e-07	4.651810e-09	6.000326e+00	3.036260e+02
2.430000e-06	6.851066e-07	4.405032e-09	4.918117e+00	2.874703e+02
2.440000e-06	5.340914e-07	4.145677e-09	3.834037e+00	2.707986e+02
2.450000e-06	3.828653e-07	3.880971e-09	2.748443e+00	2.536053e+02
2.460000e-06	2.314876e-07	3.613129e-09	1.661760e+00	2.358715e+02
2.470000e-06	7.999305e-08	3.335797e-09	5.742394e-01	2.175615e+02
2.480000e-06	-7.153382e-08	3.044180e-09	-5.135138e-01	1.986215e+02
2.490000e-06	-2.230612e-07	2.740947e-09	-1.601271e+00	1.789812e+02
2.500000e-06	-3.746187e-07	2.427436e-09	-2.689244e+00	1.585578e+02
2.510000e-06	-5.260482e-07	2.101804e-09	-3.776298e+00	1.372635e+02
2.520000e-06	-6.772525e-07	1.763061e-09	-4.861736e+00	1.150148e+02
2.530000e-06	-8.283051e-07	1.409431e-09	-5.946084e+00	9.174352e+01
2.540000e-06	-9.791070e-07	1.039437e-09	-7.028633e+00	6.740811e+01
2.550000e-06	-1.129539e-06	6.538067e-10	-8.108529e+00	4.200394e+01
2.560000e-06	-1.279559e-06	2.556201e-10	-9.185465e+00	1.557148e+01
2.570000e-06	-1.429187e-06	-1.545376e-10	-1.025958e+01	-1.179878e+01
2.580000e-06	-1.578351e-06	-5.810694e-10	-1.133037e+01	-3.996546e+01
2.590000e-06	-1.726941e-06	-1.023686e-09	-1.239705e+01	-6.873982e+01
2.600000e-06	-1.874850e-06	-1.476406e-09	-1.345883e+01	-9.789348e+01
2.610000e-06	-2.021982e-06	-1.932464e-09	-1.451503e+01	-1.271699e+02
2.620000e-06	-2.168360e-06	-2.386345e-09	-1.556583e+01	-1.562986e+02
2.630000e-06	-2.313952e-06	-2.831332e-09	-1.661097e+01	-1.850103e+02
2.640000e-06	-2.458696e-06	-3.260467e-09	-1.765003e+01	-2.130531e+02
2.650000e-06	-2.602474e-06	-3.673926e-09	-1.868216e+01	-2.402053e+02
2.660000e-06	-2.745223e-06	-4.068161e-09	-1.970690e+01	-2.662878e+02
2.670000e-06	-2.886879e-06	-4.440934e-09	-2.072380e+01	-2.911703e+02
2.680000e-06	-3.027303e-06	-4.795108e-09	-2.173184e+01	-3.147751e+02
2.690000e-06	-3.166453e-06	-5.132977e-09	-2.273075e+01	-3.370755e+02
2.700000e-06	-3.304387e-06	-5.456100e-09	-2.372093e+01	-3.580907e+02
2.710000e-06	-3.441094e-06	-5.760849e-09	-2.470229e+01	-3.778773e+02
2.720000e-06	-3.576507e-06	-6.047550e-09	-2.567437e+01	-3.965185e+02
2.730000e-06	-3.710657e-06	-6.317309e-09	-2.663738e+01	-4.141132e+02
2.740000e-06	-3.843481e-06	-6.572538e-09	-2.759087e+01	-4.307648e+02
2.750000e-06	-3.974897e-06	-6.816372e-09	-2.853426e+01	-4.465713e+02
2.760000e-06	-4.104983e-06	-7.050100e-09	-2.946810e+01	-4.616186e+02
2.770000e-06	-4.233707e-06	-7.272804e-09	-3.039216e+01	-4.759757e+02
2.780000e-06	-4.360944e-06	-7.481998e-09	-3.130554e+01	-4.896928e+02
2.790000e-06	-4.486643e-06	-7.679999e-09	-3.220789e+01	-5.028033e+02
2.800000e-06	-4.610744e-06	-7.868659e-09	-3.309876e+01	-5.153258e+02
2.810000e-06	-4.733213e-06	-8.048590e-09	-3.397792e+01	-5.272697e+02
2.820000e-06	-4.854028e-06	-8.220044e-09	-3.484520e+01	-5.386393e+02
2.830000e-06	-4.973024e-06	-8.382158e-09	-3.569943e+01	-5.494395e+02
2.840000e-06	-5.090014e-06	-8.537109e-09	-3.653925e+01	-5.596792e+02
2.850000e-06	-5.204895e-06	-8.687607e-09	-3.736394e+01	-5.693739e+02
2.860000e-06	-5.317673e-06	-8.831800e-09	-3.817353e+01	-5.785467e+02
2.870000e-06	-5.428381e-06	-8.965474e-09	-3.896826e+01	-5.872279e+02
2.880000e-06	-5.537121e-06	-9.089507e-09	-3.974887e+01	-5.954531e+02
2.890000e-06	-5.644007e-06	-9.207773e-09	-4.051616e+01	-6.032605e+02
2.900000e-06	-5.748966e-06	-9.322565e-09	-4.126962e+01	-6.106882e+02
2.910000e-06	-5.851778e-06	-9.432639e-09	-4.200767e+01	-6.177709e+02
2.920000e-06	-5.952336e-06	-9.536708e-09	-4.272954e+01	-6.245384e+02
2.930000e-06	-6.050785e-06	-9.636628e-09	-4.343626e+01	-6.310142e+02
2.940000e-06	-6.147146e-06	-9.730866e-09	-4.412800e+01	-6.372146e+02
