# Temperatura_=_36.92
# Concentracion g/m^3_=_10000.0
# C_Vs_to_Am_M_A/Vsm_=_65563218390.804596
# pendiente_HvsI_1/m_=_3716.3
# ordenada_HvsI_A/m_=_1297.0
# frecuencia_Hz_=_302550.79161856294

Tiempo_(s)	Campo_(V.s)	Magnetizacion_(V.s)	Campo_(kA/m)	Magnetizacion_(A/m)
0.000000e+00	-7.902161e-06	-1.105192e-08	-5.685014e+01	-7.237393e+02
1.000000e-08	-7.898675e-06	-1.104851e-08	-5.682506e+01	-7.234052e+02
2.000000e-08	-7.892574e-06	-1.104353e-08	-5.678117e+01	-7.229430e+02
3.000000e-08	-7.883871e-06	-1.103730e-08	-5.671856e+01	-7.223666e+02
4.000000e-08	-7.872393e-06	-1.103169e-08	-5.663598e+01	-7.216937e+02
5.000000e-08	-7.857996e-06	-1.102421e-08	-5.653241e+01	-7.209439e+02
6.000000e-08	-7.840745e-06	-1.101422e-08	-5.640830e+01	-7.201368e+02
7.000000e-08	-7.821140e-06	-1.100778e-08	-5.626725e+01	-7.192899e+02
8.000000e-08	-7.799293e-06	-1.100156e-08	-5.611008e+01	-7.184167e+02
9.000000e-08	-7.774620e-06	-1.100022e-08	-5.593258e+01	-7.175255e+02
1.000000e-07	-7.746712e-06	-1.100037e-08	-5.573180e+01	-7.166184e+02
1.100000e-07	-7.715778e-06	-1.096029e-08	-5.550925e+01	-7.156915e+02
1.200000e-07	-7.682069e-06	-1.091896e-08	-5.526674e+01	-7.147350e+02
1.300000e-07	-7.645786e-06	-1.089065e-08	-5.500571e+01	-7.137343e+02
1.400000e-07	-7.607216e-06	-1.086021e-08	-5.472823e+01	-7.126713e+02
1.500000e-07	-7.566446e-06	-1.083026e-08	-5.443492e+01	-7.115257e+02
1.600000e-07	-7.523346e-06	-1.080591e-08	-5.412485e+01	-7.102771e+02
1.700000e-07	-7.477642e-06	-1.083065e-08	-5.379604e+01	-7.089057e+02
1.800000e-07	-7.429187e-06	-1.075053e-08	-5.344745e+01	-7.073942e+02
1.900000e-07	-7.377821e-06	-1.071086e-08	-5.307791e+01	-7.057283e+02
2.000000e-07	-7.323489e-06	-1.072874e-08	-5.268702e+01	-7.038977e+02
2.100000e-07	-7.266403e-06	-1.068095e-08	-5.227633e+01	-7.018959e+02
2.200000e-07	-7.206701e-06	-1.067878e-08	-5.184683e+01	-6.997206e+02
2.300000e-07	-7.144412e-06	-1.062452e-08	-5.139870e+01	-6.973733e+02
2.400000e-07	-7.079429e-06	-1.055940e-08	-5.093120e+01	-6.948589e+02
2.500000e-07	-7.011738e-06	-1.050383e-08	-5.044421e+01	-6.921850e+02
2.600000e-07	-6.941455e-06	-1.047384e-08	-4.993858e+01	-6.893610e+02
2.700000e-07	-6.868454e-06	-1.046132e-08	-4.941339e+01	-6.863975e+02
2.800000e-07	-6.792691e-06	-1.039944e-08	-4.886833e+01	-6.833053e+02
2.900000e-07	-6.714136e-06	-1.034119e-08	-4.830319e+01	-6.800942e+02
3.000000e-07	-6.632883e-06	-1.029096e-08	-4.771864e+01	-6.767723e+02
3.100000e-07	-6.549294e-06	-1.024306e-08	-4.711727e+01	-6.733452e+02
3.200000e-07	-6.463520e-06	-1.019331e-08	-4.650019e+01	-6.698151e+02
3.300000e-07	-6.375458e-06	-1.013639e-08	-4.586666e+01	-6.661804e+02
3.400000e-07	-6.285027e-06	-1.008859e-08	-4.521607e+01	-6.624362e+02
3.500000e-07	-6.192319e-06	-1.002602e-08	-4.454911e+01	-6.585737e+02
3.600000e-07	-6.097419e-06	-9.974237e-09	-4.386637e+01	-6.545816e+02
3.700000e-07	-6.000293e-06	-9.910511e-09	-4.316762e+01	-6.504470e+02
3.800000e-07	-5.900940e-06	-9.836006e-09	-4.245285e+01	-6.461561e+02
3.900000e-07	-5.799485e-06	-9.766254e-09	-4.172296e+01	-6.416963e+02
4.000000e-07	-5.695988e-06	-9.686729e-09	-4.097838e+01	-6.370570e+02
4.100000e-07	-5.590482e-06	-9.614219e-09	-4.021934e+01	-6.322309e+02
4.200000e-07	-5.482972e-06	-9.547035e-09	-3.944588e+01	-6.272141e+02
4.300000e-07	-5.373524e-06	-9.482807e-09	-3.865849e+01	-6.220069e+02
4.400000e-07	-5.262235e-06	-9.389960e-09	-3.785785e+01	-6.166127e+02
4.500000e-07	-5.148935e-06	-9.289491e-09	-3.704274e+01	-6.110375e+02
4.600000e-07	-5.033508e-06	-9.205718e-09	-3.621232e+01	-6.052877e+02
4.700000e-07	-4.916145e-06	-9.126201e-09	-3.536799e+01	-5.993692e+02
4.800000e-07	-4.797009e-06	-9.037485e-09	-3.451090e+01	-5.932853e+02
4.900000e-07	-4.676132e-06	-8.942687e-09	-3.364128e+01	-5.870353e+02
5.000000e-07	-4.553588e-06	-8.842996e-09	-3.275966e+01	-5.806136e+02
5.100000e-07	-4.429353e-06	-8.731086e-09	-3.186589e+01	-5.740093e+02
5.200000e-07	-4.303488e-06	-8.625265e-09	-3.096038e+01	-5.672069e+02
5.300000e-07	-4.176045e-06	-8.524659e-09	-3.004352e+01	-5.601873e+02
5.400000e-07	-4.047089e-06	-8.415587e-09	-2.911578e+01	-5.529296e+02
5.500000e-07	-3.916688e-06	-8.292677e-09	-2.817764e+01	-5.454131e+02
5.600000e-07	-3.784757e-06	-8.175588e-09	-2.722850e+01	-5.376194e+02
5.700000e-07	-3.651387e-06	-8.062007e-09	-2.626900e+01	-5.295341e+02
5.800000e-07	-3.516610e-06	-7.930008e-09	-2.529938e+01	-5.211483e+02
5.900000e-07	-3.380472e-06	-7.792536e-09	-2.431997e+01	-5.124581e+02
6.000000e-07	-3.243103e-06	-7.657260e-09	-2.333170e+01	-5.034647e+02
6.100000e-07	-3.104529e-06	-7.516039e-09	-2.233476e+01	-4.941728e+02
6.200000e-07	-2.964555e-06	-7.365492e-09	-2.132775e+01	-4.845878e+02
6.300000e-07	-2.823196e-06	-7.215281e-09	-2.031078e+01	-4.747138e+02
6.400000e-07	-2.680753e-06	-7.065535e-09	-1.928602e+01	-4.645509e+02
6.500000e-07	-2.537336e-06	-6.903980e-09	-1.825423e+01	-4.540928e+02
6.600000e-07	-2.393046e-06	-6.734379e-09	-1.721617e+01	-4.433256e+02
6.700000e-07	-2.247829e-06	-6.565136e-09	-1.617145e+01	-4.322280e+02
6.800000e-07	-2.101685e-06	-6.393857e-09	-1.512005e+01	-4.207714e+02
6.900000e-07	-1.954865e-06	-6.213834e-09	-1.406379e+01	-4.089228e+02
7.000000e-07	-1.807522e-06	-6.025201e-09	-1.300377e+01	-3.966474e+02
7.100000e-07	-1.659628e-06	-5.827515e-09	-1.193978e+01	-3.839118e+02
7.200000e-07	-1.511180e-06	-5.623091e-09	-1.087181e+01	-3.706877e+02
7.300000e-07	-1.362302e-06	-5.415599e-09	-9.800743e+00	-3.569537e+02
7.400000e-07	-1.213073e-06	-5.201302e-09	-8.727153e+00	-3.426976e+02
7.500000e-07	-1.063463e-06	-4.976974e-09	-7.650819e+00	-3.279151e+02
7.600000e-07	-9.135207e-07	-4.744937e-09	-6.572098e+00	-3.126085e+02
7.700000e-07	-7.632828e-07	-4.506314e-09	-5.491249e+00	-2.967829e+02
7.800000e-07	-6.127136e-07	-4.258424e-09	-4.408016e+00	-2.804416e+02
7.900000e-07	-4.619289e-07	-4.001873e-09	-3.323233e+00	-2.635804e+02
8.000000e-07	-3.109197e-07	-3.738833e-09	-2.236835e+00	-2.461826e+02
8.100000e-07	-1.597018e-07	-3.464193e-09	-1.148935e+00	-2.282154e+02
8.200000e-07	-8.379899e-09	-3.171819e-09	-6.028711e-02	-2.096269e+02
8.300000e-07	1.429693e-07	-2.869155e-09	1.028557e+00	-1.903473e+02
8.400000e-07	2.942595e-07	-2.562021e-09	2.116977e+00	-1.702920e+02
8.500000e-07	4.454825e-07	-2.243646e-09	3.204914e+00	-1.493678e+02
8.600000e-07	5.965520e-07	-1.909073e-09	4.291745e+00	-1.274824e+02
8.700000e-07	7.474026e-07	-1.561085e-09	5.377003e+00	-1.045545e+02
8.800000e-07	8.980569e-07	-1.201849e-09	6.460848e+00	-8.052611e+01
8.900000e-07	1.048439e-06	-8.233900e-10	7.542737e+00	-5.537370e+01
9.000000e-07	1.198382e-06	-4.224078e-10	8.621463e+00	-2.911755e+01
9.100000e-07	1.347873e-06	-5.297020e-12	9.696935e+00	-1.828616e+00
9.200000e-07	1.496947e-06	4.231532e-10	1.076942e+01	2.636868e+01
9.300000e-07	1.645571e-06	8.637239e-10	1.183865e+01	5.529806e+01
9.400000e-07	1.793646e-06	1.313788e-09	1.290394e+01	8.473756e+01
9.500000e-07	1.941056e-06	1.767056e-09	1.396445e+01	1.144298e+02
9.600000e-07	2.087733e-06	2.221867e-09	1.501967e+01	1.440957e+02
9.700000e-07	2.233627e-06	2.671510e-09	1.606928e+01	1.734502e+02
9.800000e-07	2.378652e-06	3.108866e-09	1.711262e+01	2.022188e+02
9.900000e-07	2.522785e-06	3.530286e-09	1.814955e+01	2.301529e+02
1.000000e-06	2.666003e-06	3.935461e-09	1.917990e+01	2.570437e+02
1.010000e-06	2.808206e-06	4.322166e-09	2.020294e+01	2.827310e+02
1.020000e-06	2.949311e-06	4.689846e-09	2.121808e+01	3.071099e+02
1.030000e-06	3.089133e-06	5.039536e-09	2.222400e+01	3.301305e+02
1.040000e-06	3.227601e-06	5.368591e-09	2.322018e+01	3.517951e+02
1.050000e-06	3.364846e-06	5.676216e-09	2.420755e+01	3.721503e+02
1.060000e-06	3.500869e-06	5.965121e-09	2.518613e+01	3.912769e+02
1.070000e-06	3.635530e-06	6.239484e-09	2.615492e+01	4.092775e+02
1.080000e-06	3.768854e-06	6.500066e-09	2.711409e+01	4.262647e+02
1.090000e-06	3.900854e-06	6.746791e-09	2.806373e+01	4.423497e+02
1.100000e-06	4.031440e-06	6.981556e-09	2.900320e+01	4.576328e+02
1.110000e-06	4.160646e-06	7.206471e-09	2.993274e+01	4.721976e+02
1.120000e-06	4.288401e-06	7.419455e-09	3.085184e+01	4.861069e+02
1.130000e-06	4.414654e-06	7.618693e-09	3.176013e+01	4.994034e+02
1.140000e-06	4.539447e-06	7.805668e-09	3.265793e+01	5.121114e+02
1.150000e-06	4.662665e-06	7.984689e-09	3.354439e+01	5.242419e+02
1.160000e-06	4.784217e-06	8.156955e-09	3.441887e+01	5.357979e+02
1.170000e-06	4.904052e-06	8.321933e-09	3.528099e+01	5.467800e+02
1.180000e-06	5.022051e-06	8.480659e-09	3.612990e+01	5.571920e+02
1.190000e-06	5.138132e-06	8.632636e-09	3.696502e+01	5.670441e+02
1.200000e-06	5.252223e-06	8.777472e-09	3.778582e+01	5.763555e+02
1.210000e-06	5.364299e-06	8.914070e-09	3.859212e+01	5.851544e+02
1.220000e-06	5.474446e-06	9.041709e-09	3.938455e+01	5.934766e+02
1.230000e-06	5.582684e-06	9.162805e-09	4.016324e+01	6.013631e+02
1.240000e-06	5.688931e-06	9.277649e-09	4.092761e+01	6.088562e+02
1.250000e-06	5.793054e-06	9.386176e-09	4.167669e+01	6.159966e+02
1.260000e-06	5.895046e-06	9.488759e-09	4.241045e+01	6.228197e+02
1.270000e-06	5.994951e-06	9.585554e-09	4.312919e+01	6.293539e+02
1.280000e-06	6.092627e-06	9.677585e-09	4.383189e+01	6.356192e+02
1.290000e-06	6.187959e-06	9.766093e-09	4.451774e+01	6.416275e+02
1.300000e-06	6.281009e-06	9.851535e-09	4.518716e+01	6.473840e+02
1.310000e-06	6.371865e-06	9.935776e-09	4.584080e+01	6.528890e+02
1.320000e-06	6.460463e-06	1.001770e-08	4.647820e+01	6.581407e+02
1.330000e-06	6.546784e-06	1.009302e-08	4.709921e+01	6.631375e+02
1.340000e-06	6.630840e-06	1.016250e-08	4.770394e+01	6.678802e+02
1.350000e-06	6.712579e-06	1.022902e-08	4.829198e+01	6.723731e+02
1.360000e-06	6.791863e-06	1.029411e-08	4.886237e+01	6.766247e+02
1.370000e-06	6.868544e-06	1.035724e-08	4.941404e+01	6.806470e+02
1.380000e-06	6.942583e-06	1.041805e-08	4.994669e+01	6.844545e+02
1.390000e-06	7.014068e-06	1.047445e-08	5.046098e+01	6.880622e+02
1.400000e-06	7.083062e-06	1.052679e-08	5.095734e+01	6.914841e+02
1.410000e-06	7.149550e-06	1.057717e-08	5.143566e+01	6.947314e+02
1.420000e-06	7.213454e-06	1.062377e-08	5.189541e+01	6.978112e+02
1.430000e-06	7.274870e-06	1.066410e-08	5.233725e+01	7.007264e+02
1.440000e-06	7.333906e-06	1.070134e-08	5.276197e+01	7.034754e+02
1.450000e-06	7.390320e-06	1.073870e-08	5.316783e+01	7.060537e+02
1.460000e-06	7.444001e-06	1.077437e-08	5.355402e+01	7.084553e+02
1.470000e-06	7.494672e-06	1.080725e-08	5.391856e+01	7.106743e+02
1.480000e-06	7.542271e-06	1.083823e-08	5.426100e+01	7.127069e+02
1.490000e-06	7.587221e-06	1.086803e-08	5.458438e+01	7.145530e+02
1.500000e-06	7.629569e-06	1.089522e-08	5.488905e+01	7.162169e+02
1.510000e-06	7.669168e-06	1.091915e-08	5.517393e+01	7.177073e+02
1.520000e-06	7.706059e-06	1.093914e-08	5.543934e+01	7.190370e+02
1.530000e-06	7.740211e-06	1.095713e-08	5.568503e+01	7.202217e+02
1.540000e-06	7.771574e-06	1.097449e-08	5.591066e+01	7.212776e+02
1.550000e-06	7.800239e-06	1.099031e-08	5.611689e+01	7.222204e+02
1.560000e-06	7.826082e-06	1.100460e-08	5.630281e+01	7.230624e+02
1.570000e-06	7.848980e-06	1.101601e-08	5.646755e+01	7.238120e+02
1.580000e-06	7.869113e-06	1.102666e-08	5.661238e+01	7.244724e+02
1.590000e-06	7.886493e-06	1.103554e-08	5.673742e+01	7.250413e+02
1.600000e-06	7.900925e-06	1.104260e-08	5.684125e+01	7.255123e+02
1.610000e-06	7.912270e-06	1.104961e-08	5.692287e+01	7.258755e+02
1.620000e-06	7.920570e-06	1.105493e-08	5.698258e+01	7.261197e+02
1.630000e-06	7.926051e-06	1.105775e-08	5.702201e+01	7.262347e+02
1.640000e-06	7.928760e-06	1.105758e-08	5.704150e+01	7.262125e+02
1.650000e-06	7.928597e-06	1.105528e-08	5.704033e+01	7.260499e+02
1.660000e-06	7.925725e-06	1.104945e-08	5.701967e+01	7.257488e+02
1.670000e-06	7.920255e-06	1.103997e-08	5.698031e+01	7.253168e+02
1.680000e-06	7.912170e-06	1.103423e-08	5.692214e+01	7.247667e+02
1.690000e-06	7.901450e-06	1.102813e-08	5.684503e+01	7.241154e+02
1.700000e-06	7.887866e-06	1.101861e-08	5.674730e+01	7.233823e+02
1.710000e-06	7.871612e-06	1.100650e-08	5.663037e+01	7.225871e+02
1.720000e-06	7.853078e-06	1.098414e-08	5.649702e+01	7.217480e+02
1.730000e-06	7.832158e-06	1.095995e-08	5.634652e+01	7.208797e+02
1.740000e-06	7.808359e-06	1.091059e-08	5.617531e+01	7.199918e+02
1.750000e-06	7.781153e-06	1.089633e-08	5.597958e+01	7.190881e+02
1.760000e-06	7.750447e-06	1.091068e-08	5.575867e+01	7.181661e+02
1.770000e-06	7.716880e-06	1.089930e-08	5.551718e+01	7.172176e+02
1.780000e-06	7.681016e-06	1.088353e-08	5.525917e+01	7.162288e+02
1.790000e-06	7.642827e-06	1.089140e-08	5.498442e+01	7.151825e+02
1.800000e-06	7.602489e-06	1.092265e-08	5.469422e+01	7.140588e+02
1.810000e-06	7.559976e-06	1.084858e-08	5.438837e+01	7.128371e+02
1.820000e-06	7.514957e-06	1.088385e-08	5.406449e+01	7.114974e+02
1.830000e-06	7.467380e-06	1.088702e-08	5.372222e+01	7.100217e+02
1.840000e-06	7.416932e-06	1.082528e-08	5.335928e+01	7.083948e+02
1.850000e-06	7.363439e-06	1.082169e-08	5.297444e+01	7.066055e+02
1.860000e-06	7.307190e-06	1.071261e-08	5.256977e+01	7.046461e+02
1.870000e-06	7.248286e-06	1.071540e-08	5.214600e+01	7.025135e+02
1.880000e-06	7.186734e-06	1.068199e-08	5.170318e+01	7.002082e+02
1.890000e-06	7.122381e-06	1.065854e-08	5.124021e+01	6.977343e+02
1.900000e-06	7.055259e-06	1.067549e-08	5.075731e+01	6.950987e+02
1.910000e-06	6.985458e-06	1.055968e-08	5.025514e+01	6.923105e+02
1.920000e-06	6.912889e-06	1.051610e-08	4.973307e+01	6.893802e+02
1.930000e-06	6.837656e-06	1.046153e-08	4.919183e+01	6.863185e+02
1.940000e-06	6.759665e-06	1.043900e-08	4.863074e+01	6.831356e+02
1.950000e-06	6.679051e-06	1.041609e-08	4.805078e+01	6.798401e+02
1.960000e-06	6.596067e-06	1.034251e-08	4.745377e+01	6.764382e+02
1.970000e-06	6.510650e-06	1.029846e-08	4.683926e+01	6.729331e+02
1.980000e-06	6.422795e-06	1.020051e-08	4.620721e+01	6.693242e+02
1.990000e-06	6.332673e-06	1.015163e-08	4.555885e+01	6.656074e+02
2.000000e-06	6.240413e-06	1.009562e-08	4.489511e+01	6.617747e+02
2.010000e-06	6.145868e-06	1.005307e-08	4.421492e+01	6.578155e+02
2.020000e-06	6.049063e-06	9.988961e-09	4.351848e+01	6.537171e+02
2.030000e-06	5.950111e-06	9.902569e-09	4.280660e+01	6.494658e+02
2.040000e-06	5.849063e-06	9.842551e-09	4.207963e+01	6.450486e+02
2.050000e-06	5.745921e-06	9.772642e-09	4.133760e+01	6.404544e+02
2.060000e-06	5.640740e-06	9.706009e-09	4.058091e+01	6.356747e+02
2.070000e-06	5.533679e-06	9.610165e-09	3.981068e+01	6.307050e+02
2.080000e-06	5.424734e-06	9.539690e-09	3.902691e+01	6.255445e+02
2.090000e-06	5.313811e-06	9.464936e-09	3.822890e+01	6.201959e+02
2.100000e-06	5.200923e-06	9.387282e-09	3.741675e+01	6.146646e+02
2.110000e-06	5.086103e-06	9.310845e-09	3.659071e+01	6.089571e+02
2.120000e-06	4.969259e-06	9.223840e-09	3.575010e+01	6.030797e+02
2.130000e-06	4.850431e-06	9.113055e-09	3.489523e+01	5.970364e+02
2.140000e-06	4.729738e-06	8.999867e-09	3.402693e+01	5.908275e+02
2.150000e-06	4.607364e-06	8.914693e-09	3.314654e+01	5.844488e+02
2.160000e-06	4.483351e-06	8.831920e-09	3.225436e+01	5.778907e+02
2.170000e-06	4.357687e-06	8.733852e-09	3.135030e+01	5.711388e+02
2.180000e-06	4.230434e-06	8.616264e-09	3.043481e+01	5.641748e+02
2.190000e-06	4.101565e-06	8.504154e-09	2.950769e+01	5.569778e+02
2.200000e-06	3.971176e-06	8.383295e-09	2.856964e+01	5.495272e+02
2.210000e-06	3.839356e-06	8.266467e-09	2.762130e+01	5.418036e+02
2.220000e-06	3.706101e-06	8.156058e-09	2.666262e+01	5.337916e+02
2.230000e-06	3.571512e-06	8.033573e-09	2.569436e+01	5.254807e+02
2.240000e-06	3.435620e-06	7.891655e-09	2.471672e+01	5.168660e+02
2.250000e-06	3.298402e-06	7.747543e-09	2.372953e+01	5.079474e+02
2.260000e-06	3.159934e-06	7.612867e-09	2.273336e+01	4.987289e+02
2.270000e-06	3.020205e-06	7.476614e-09	2.172811e+01	4.892159e+02
2.280000e-06	2.879253e-06	7.330027e-09	2.071407e+01	4.794133e+02
2.290000e-06	2.737182e-06	7.177760e-09	1.969198e+01	4.693222e+02
2.300000e-06	2.594096e-06	7.023074e-09	1.866258e+01	4.589382e+02
2.310000e-06	2.450013e-06	6.859798e-09	1.762601e+01	4.482493e+02
2.320000e-06	2.305041e-06	6.693262e-09	1.658304e+01	4.372360e+02
2.330000e-06	2.159395e-06	6.517642e-09	1.553523e+01	4.258714e+02
2.340000e-06	2.013055e-06	6.327386e-09	1.448242e+01	4.141234e+02
2.350000e-06	1.865972e-06	6.131113e-09	1.342427e+01	4.019572e+02
2.360000e-06	1.718251e-06	5.940283e-09	1.236153e+01	3.893389e+02
2.370000e-06	1.570003e-06	5.750934e-09	1.129500e+01	3.762385e+02
2.380000e-06	1.421300e-06	5.551504e-09	1.022519e+01	3.626328e+02
2.390000e-06	1.272094e-06	5.334916e-09	9.151764e+00	3.485072e+02
2.400000e-06	1.122425e-06	5.104560e-09	8.075006e+00	3.338556e+02
2.410000e-06	9.724295e-07	4.869393e-09	6.995903e+00	3.186789e+02
2.420000e-06	8.221724e-07	4.634190e-09	5.914916e+00	3.029819e+02
2.430000e-06	6.717356e-07	4.394352e-09	4.832635e+00	2.867688e+02
2.440000e-06	5.211284e-07	4.139862e-09	3.749129e+00	2.700378e+02
2.450000e-06	3.702876e-07	3.872090e-09	2.663943e+00	2.527759e+02
2.460000e-06	2.192654e-07	3.597829e-09	1.577451e+00	2.349544e+02
2.470000e-06	6.813136e-08	3.317588e-09	4.901542e-01	2.165264e+02
2.480000e-06	-8.308092e-08	3.026282e-09	-5.977051e-01	1.974264e+02
2.490000e-06	-2.342685e-07	2.720739e-09	-1.685387e+00	1.775728e+02
2.500000e-06	-3.854460e-07	2.402310e-09	-2.772996e+00	1.568740e+02
2.510000e-06	-5.365251e-07	2.069998e-09	-3.859897e+00	1.352364e+02
2.520000e-06	-6.873348e-07	1.723556e-09	-4.944860e+00	1.125750e+02
2.530000e-06	-8.378803e-07	1.364373e-09	-6.027922e+00	8.882477e+01
2.540000e-06	-9.881964e-07	9.894756e-10	-7.109334e+00	6.395262e+01
2.550000e-06	-1.138241e-06	5.959492e-10	-8.188791e+00	3.796711e+01
2.560000e-06	-1.287918e-06	1.858805e-10	-9.265606e+00	1.092610e+01
2.570000e-06	-1.437150e-06	-2.352000e-10	-1.033922e+01	-1.705938e+01
2.580000e-06	-1.585904e-06	-6.693159e-10	-1.140939e+01	-4.582561e+01
2.590000e-06	-1.734090e-06	-1.119949e-09	-1.247548e+01	-7.516124e+01
2.600000e-06	-1.881595e-06	-1.582135e-09	-1.353667e+01	-1.048166e+02
2.610000e-06	-2.028322e-06	-2.046615e-09	-1.459226e+01	-1.345165e+02
2.620000e-06	-2.174276e-06	-2.505255e-09	-1.564229e+01	-1.639760e+02
2.630000e-06	-2.319507e-06	-2.951372e-09	-1.668712e+01	-1.929164e+02
2.640000e-06	-2.463877e-06	-3.380086e-09	-1.772575e+01	-2.210812e+02
2.650000e-06	-2.607167e-06	-3.792599e-09	-1.875662e+01	-2.482505e+02
2.660000e-06	-2.749366e-06	-4.188396e-09	-1.977964e+01	-2.742514e+02
2.670000e-06	-2.890500e-06	-4.562981e-09	-2.079499e+01	-2.989649e+02
2.680000e-06	-3.030505e-06	-4.912214e-09	-2.180222e+01	-3.223275e+02
2.690000e-06	-3.169296e-06	-5.240938e-09	-2.280072e+01	-3.443290e+02
2.700000e-06	-3.306858e-06	-5.556219e-09	-2.379037e+01	-3.650059e+02
2.710000e-06	-3.443232e-06	-5.856624e-09	-2.477148e+01	-3.844313e+02
2.720000e-06	-3.578293e-06	-6.140613e-09	-2.574314e+01	-4.027037e+02
2.730000e-06	-3.712046e-06	-6.407905e-09	-2.670540e+01	-4.199344e+02
2.740000e-06	-3.844526e-06	-6.659491e-09	-2.765849e+01	-4.362356e+02
2.750000e-06	-3.975598e-06	-6.898720e-09	-2.860145e+01	-4.517114e+02
2.760000e-06	-4.105284e-06	-7.128880e-09	-2.953445e+01	-4.664497e+02
2.770000e-06	-4.233620e-06	-7.347806e-09	-3.045773e+01	-4.805188e+02
2.780000e-06	-4.360427e-06	-7.552515e-09	-3.137001e+01	-4.939663e+02
2.790000e-06	-4.485694e-06	-7.745387e-09	-3.227121e+01	-5.068206e+02
2.800000e-06	-4.609408e-06	-7.928437e-09	-3.316125e+01	-5.190957e+02
2.810000e-06	-4.731478e-06	-8.104500e-09	-3.403945e+01	-5.307960e+02
2.820000e-06	-4.851836e-06	-8.272782e-09	-3.490533e+01	-5.419222e+02
2.830000e-06	-4.970307e-06	-8.431332e-09	-3.575765e+01	-5.524767e+02
2.840000e-06	-5.086846e-06	-8.583299e-09	-3.659605e+01	-5.624681e+02
2.850000e-06	-5.201357e-06	-8.729086e-09	-3.741987e+01	-5.719131e+02
2.860000e-06	-5.313779e-06	-8.869850e-09	-3.822866e+01	-5.808377e+02
2.870000e-06	-5.424155e-06	-9.002642e-09	-3.902274e+01	-5.892761e+02
2.880000e-06	-5.532565e-06	-9.124863e-09	-3.980267e+01	-5.972682e+02
2.890000e-06	-5.639118e-06	-9.240987e-09	-4.056924e+01	-6.048564e+02
2.900000e-06	-5.743716e-06	-9.352065e-09	-4.132174e+01	-6.120821e+02
2.910000e-06	-5.846140e-06	-9.459219e-09	-4.205861e+01	-6.189823e+02
2.920000e-06	-5.946294e-06	-9.562707e-09	-4.277914e+01	-6.255872e+02
2.930000e-06	-6.044369e-06	-9.661683e-09	-4.348471e+01	-6.319190e+02
2.940000e-06	-6.140389e-06	-9.755273e-09	-4.417550e+01	-6.379916e+02
