# Temperatura_=_60.65
# Concentracion g/m^3_=_10000.0
# C_Vs_to_Am_M_A/Vsm_=_65563218390.804596
# pendiente_HvsI_1/m_=_3716.3
# ordenada_HvsI_A/m_=_1297.0
# frecuencia_Hz_=_302552.104736766

Tiempo_(s)	Campo_(V.s)	Magnetizacion_(V.s)	Campo_(kA/m)	Magnetizacion_(A/m)
0.000000e+00	-7.985043e-06	-1.184165e-08	-5.685154e+01	-7.756604e+02
1.000000e-08	-7.981303e-06	-1.183818e-08	-5.682492e+01	-7.752852e+02
2.000000e-08	-7.974919e-06	-1.183136e-08	-5.677946e+01	-7.747754e+02
3.000000e-08	-7.965900e-06	-1.182568e-08	-5.671525e+01	-7.741419e+02
4.000000e-08	-7.954111e-06	-1.181811e-08	-5.663132e+01	-7.733975e+02
5.000000e-08	-7.939390e-06	-1.180690e-08	-5.652650e+01	-7.725560e+02
6.000000e-08	-7.921871e-06	-1.179476e-08	-5.640177e+01	-7.716313e+02
7.000000e-08	-7.901999e-06	-1.178315e-08	-5.626029e+01	-7.706358e+02
8.000000e-08	-7.879737e-06	-1.178537e-08	-5.610179e+01	-7.695804e+02
9.000000e-08	-7.854488e-06	-1.179804e-08	-5.592202e+01	-7.684730e+02
1.000000e-07	-7.825965e-06	-1.176676e-08	-5.571895e+01	-7.673190e+02
1.100000e-07	-7.794468e-06	-1.171996e-08	-5.549469e+01	-7.661204e+02
1.200000e-07	-7.760237e-06	-1.168563e-08	-5.525098e+01	-7.648755e+02
1.300000e-07	-7.723369e-06	-1.165585e-08	-5.498849e+01	-7.635796e+02
1.400000e-07	-7.684187e-06	-1.162612e-08	-5.470952e+01	-7.622239e+02
1.500000e-07	-7.642815e-06	-1.157801e-08	-5.441496e+01	-7.607964e+02
1.600000e-07	-7.599008e-06	-1.155311e-08	-5.410307e+01	-7.592818e+02
1.700000e-07	-7.552479e-06	-1.152051e-08	-5.377179e+01	-7.576618e+02
1.800000e-07	-7.503176e-06	-1.147750e-08	-5.342077e+01	-7.559162e+02
1.900000e-07	-7.450992e-06	-1.149443e-08	-5.304923e+01	-7.540237e+02
2.000000e-07	-7.395875e-06	-1.146783e-08	-5.265681e+01	-7.519630e+02
2.100000e-07	-7.337989e-06	-1.142723e-08	-5.224468e+01	-7.497151e+02
2.200000e-07	-7.277442e-06	-1.138540e-08	-5.181360e+01	-7.472642e+02
2.300000e-07	-7.214309e-06	-1.130910e-08	-5.136411e+01	-7.445992e+02
2.400000e-07	-7.148466e-06	-1.126184e-08	-5.089532e+01	-7.417155e+02
2.500000e-07	-7.079887e-06	-1.121855e-08	-5.040705e+01	-7.386149e+02
2.600000e-07	-7.008615e-06	-1.118547e-08	-4.989961e+01	-7.353061e+02
2.700000e-07	-6.934572e-06	-1.113120e-08	-4.937245e+01	-7.318036e+02
2.800000e-07	-6.857785e-06	-1.106825e-08	-4.882574e+01	-7.281262e+02
2.900000e-07	-6.778196e-06	-1.100408e-08	-4.825909e+01	-7.242952e+02
3.000000e-07	-6.695945e-06	-1.095419e-08	-4.767348e+01	-7.203313e+02
3.100000e-07	-6.611409e-06	-1.090481e-08	-4.707161e+01	-7.162528e+02
3.200000e-07	-6.524638e-06	-1.083213e-08	-4.645382e+01	-7.120724e+02
3.300000e-07	-6.435482e-06	-1.078057e-08	-4.581905e+01	-7.077961e+02
3.400000e-07	-6.343965e-06	-1.072979e-08	-4.516747e+01	-7.034223e+02
3.500000e-07	-6.250222e-06	-1.065864e-08	-4.450004e+01	-6.989414e+02
3.600000e-07	-6.154135e-06	-1.057749e-08	-4.381593e+01	-6.943375e+02
3.700000e-07	-6.055704e-06	-1.050186e-08	-4.311512e+01	-6.895903e+02
3.800000e-07	-5.955146e-06	-1.042496e-08	-4.239918e+01	-6.846774e+02
3.900000e-07	-5.852522e-06	-1.034377e-08	-4.166852e+01	-6.795777e+02
4.000000e-07	-5.747780e-06	-1.026801e-08	-4.092278e+01	-6.742737e+02
4.100000e-07	-5.641008e-06	-1.018856e-08	-4.016259e+01	-6.687540e+02
4.200000e-07	-5.532306e-06	-1.010171e-08	-3.938866e+01	-6.630142e+02
4.300000e-07	-5.421694e-06	-9.998977e-09	-3.860113e+01	-6.570573e+02
4.400000e-07	-5.309050e-06	-9.902474e-09	-3.779913e+01	-6.508925e+02
4.500000e-07	-5.194234e-06	-9.817588e-09	-3.698167e+01	-6.445331e+02
4.600000e-07	-5.077413e-06	-9.726746e-09	-3.614993e+01	-6.379938e+02
4.700000e-07	-4.958776e-06	-9.626565e-09	-3.530526e+01	-6.312873e+02
4.800000e-07	-4.838303e-06	-9.526939e-09	-3.444753e+01	-6.244220e+02
4.900000e-07	-4.716028e-06	-9.419069e-09	-3.357696e+01	-6.173988e+02
5.000000e-07	-4.592096e-06	-9.297899e-09	-3.269459e+01	-6.102106e+02
5.100000e-07	-4.466523e-06	-9.180884e-09	-3.180055e+01	-6.028419e+02
5.200000e-07	-4.339336e-06	-9.069236e-09	-3.089500e+01	-5.952703e+02
5.300000e-07	-4.210494e-06	-8.950174e-09	-2.997768e+01	-5.874685e+02
5.400000e-07	-4.080084e-06	-8.818370e-09	-2.904920e+01	-5.794078e+02
5.500000e-07	-3.948189e-06	-8.689613e-09	-2.811014e+01	-5.710616e+02
5.600000e-07	-3.814757e-06	-8.563541e-09	-2.716013e+01	-5.624082e+02
5.700000e-07	-3.679909e-06	-8.428716e-09	-2.620005e+01	-5.534335e+02
5.800000e-07	-3.543618e-06	-8.284935e-09	-2.522969e+01	-5.441321e+02
5.900000e-07	-3.405859e-06	-8.143936e-09	-2.424888e+01	-5.345068e+02
6.000000e-07	-3.266800e-06	-8.000521e-09	-2.325881e+01	-5.245672e+02
6.100000e-07	-3.126412e-06	-7.844105e-09	-2.225928e+01	-5.143266e+02
6.200000e-07	-2.984563e-06	-7.680893e-09	-2.124936e+01	-5.037979e+02
6.300000e-07	-2.841454e-06	-7.511873e-09	-2.023045e+01	-4.929900e+02
6.400000e-07	-2.697319e-06	-7.335582e-09	-1.920425e+01	-4.819043e+02
6.500000e-07	-2.552201e-06	-7.155107e-09	-1.817104e+01	-4.705315e+02
6.600000e-07	-2.406235e-06	-6.978468e-09	-1.713180e+01	-4.588516e+02
6.700000e-07	-2.259475e-06	-6.799194e-09	-1.608691e+01	-4.468338e+02
6.800000e-07	-2.111996e-06	-6.610412e-09	-1.503689e+01	-4.344392e+02
6.900000e-07	-1.963901e-06	-6.416392e-09	-1.398250e+01	-4.216250e+02
7.000000e-07	-1.815137e-06	-6.213865e-09	-1.292333e+01	-4.083483e+02
7.100000e-07	-1.665767e-06	-6.001935e-09	-1.185985e+01	-3.945715e+02
7.200000e-07	-1.515954e-06	-5.782290e-09	-1.079322e+01	-3.802661e+02
7.300000e-07	-1.365724e-06	-5.558059e-09	-9.723622e+00	-3.654145e+02
7.400000e-07	-1.215000e-06	-5.324610e-09	-8.650499e+00	-3.500113e+02
7.500000e-07	-1.063741e-06	-5.080669e-09	-7.573573e+00	-3.340602e+02
7.600000e-07	-9.120120e-07	-4.831801e-09	-6.493301e+00	-3.175706e+02
7.700000e-07	-7.599089e-07	-4.576012e-09	-5.410364e+00	-3.005508e+02
7.800000e-07	-6.075390e-07	-4.310214e-09	-4.325528e+00	-2.830013e+02
7.900000e-07	-4.549347e-07	-4.035980e-09	-3.239024e+00	-2.649076e+02
8.000000e-07	-3.021242e-07	-3.754942e-09	-2.151050e+00	-2.462346e+02
8.100000e-07	-1.491934e-07	-3.458895e-09	-1.062220e+00	-2.269226e+02
8.200000e-07	3.777927e-09	-3.143283e-09	2.689791e-02	-2.068877e+02
8.300000e-07	1.567805e-07	-2.812422e-09	1.116238e+00	-1.860249e+02
8.400000e-07	3.097551e-07	-2.474173e-09	2.205380e+00	-1.642160e+02
8.500000e-07	4.626303e-07	-2.125899e-09	3.293814e+00	-1.413399e+02
8.600000e-07	6.153799e-07	-1.762092e-09	4.381354e+00	-1.172869e+02
8.700000e-07	7.679889e-07	-1.380862e-09	5.467892e+00	-9.197285e+01
8.800000e-07	9.203799e-07	-9.816908e-10	6.552878e+00	-6.535350e+01
8.900000e-07	1.072461e-06	-5.649501e-10	7.635657e+00	-3.743711e+01
9.000000e-07	1.224139e-06	-1.274264e-10	8.715565e+00	-8.293090e+00
9.100000e-07	1.375238e-06	3.296103e-10	9.791356e+00	2.194406e+01
9.200000e-07	1.525716e-06	8.049736e-10	1.086272e+01	5.307623e+01
9.300000e-07	1.675641e-06	1.295597e-09	1.193015e+01	8.484890e+01
9.400000e-07	1.824977e-06	1.792905e-09	1.299339e+01	1.169636e+02
9.500000e-07	1.973679e-06	2.287000e-09	1.405211e+01	1.490944e+02
9.600000e-07	2.121718e-06	2.774377e-09	1.510611e+01	1.809073e+02
9.700000e-07	2.268946e-06	3.252308e-09	1.615433e+01	2.120799e+02
9.800000e-07	2.415348e-06	3.710953e-09	1.719668e+01	2.423209e+02
9.900000e-07	2.560971e-06	4.145901e-09	1.823348e+01	2.713858e+02
1.000000e-06	2.705609e-06	4.558435e-09	1.926327e+01	2.990886e+02
1.010000e-06	2.849142e-06	4.951012e-09	2.028519e+01	3.253089e+02
1.020000e-06	2.991584e-06	5.324543e-09	2.129934e+01	3.499921e+02
1.030000e-06	3.132821e-06	5.678183e-09	2.230492e+01	3.731453e+02
1.040000e-06	3.272793e-06	6.009688e-09	2.330148e+01	3.948282e+02
1.050000e-06	3.411510e-06	6.318313e-09	2.428911e+01	4.151402e+02
1.060000e-06	3.548939e-06	6.609165e-09	2.526757e+01	4.342062e+02
1.070000e-06	3.684962e-06	6.885925e-09	2.623602e+01	4.521621e+02
1.080000e-06	3.819519e-06	7.147946e-09	2.719404e+01	4.691414e+02
1.090000e-06	3.952715e-06	7.394398e-09	2.814236e+01	4.852644e+02
1.100000e-06	4.084584e-06	7.629101e-09	2.908124e+01	5.006308e+02
1.110000e-06	4.215094e-06	7.852322e-09	3.001043e+01	5.153157e+02
1.120000e-06	4.344108e-06	8.064490e-09	3.092898e+01	5.293700e+02
1.130000e-06	4.471520e-06	8.266941e-09	3.183612e+01	5.428232e+02
1.140000e-06	4.597372e-06	8.459106e-09	3.273215e+01	5.556883e+02
1.150000e-06	4.721658e-06	8.641281e-09	3.361704e+01	5.679690e+02
1.160000e-06	4.844344e-06	8.815636e-09	3.449054e+01	5.796655e+02
1.170000e-06	4.965309e-06	8.984047e-09	3.535178e+01	5.907806e+02
1.180000e-06	5.084441e-06	9.145330e-09	3.619997e+01	6.013241e+02
1.190000e-06	5.201717e-06	9.299473e-09	3.703495e+01	6.113146e+02
1.200000e-06	5.317046e-06	9.446210e-09	3.785606e+01	6.207803e+02
1.210000e-06	5.430277e-06	9.585845e-09	3.866224e+01	6.297569e+02
1.220000e-06	5.541433e-06	9.719748e-09	3.945364e+01	6.382852e+02
1.230000e-06	5.650593e-06	9.847120e-09	4.023083e+01	6.464071e+02
1.240000e-06	5.757794e-06	9.967363e-09	4.099408e+01	6.541622e+02
1.250000e-06	5.862915e-06	1.007999e-08	4.174251e+01	6.615847e+02
1.260000e-06	5.965814e-06	1.018570e-08	4.247513e+01	6.687015e+02
1.270000e-06	6.066484e-06	1.028800e-08	4.319187e+01	6.755310e+02
1.280000e-06	6.164931e-06	1.038667e-08	4.389279e+01	6.820841e+02
1.290000e-06	6.261062e-06	1.048102e-08	4.457722e+01	6.883655e+02
1.300000e-06	6.354881e-06	1.057112e-08	4.524519e+01	6.943760e+02
1.310000e-06	6.446520e-06	1.065817e-08	4.589764e+01	7.001156e+02
1.320000e-06	6.535810e-06	1.074157e-08	4.653336e+01	7.055851e+02
1.330000e-06	6.622776e-06	1.081913e-08	4.715253e+01	7.107886e+02
1.340000e-06	6.707469e-06	1.089342e-08	4.775553e+01	7.157343e+02
1.350000e-06	6.789785e-06	1.096546e-08	4.834160e+01	7.204342e+02
1.360000e-06	6.869637e-06	1.103503e-08	4.891013e+01	7.249036e+02
1.370000e-06	6.946896e-06	1.110268e-08	4.946019e+01	7.291591e+02
1.380000e-06	7.021563e-06	1.116726e-08	4.999180e+01	7.332171e+02
1.390000e-06	7.093616e-06	1.122757e-08	5.050480e+01	7.370911e+02
1.400000e-06	7.163162e-06	1.128308e-08	5.099995e+01	7.407909e+02
1.410000e-06	7.230172e-06	1.133556e-08	5.147705e+01	7.443208e+02
1.420000e-06	7.294528e-06	1.138631e-08	5.193525e+01	7.476802e+02
1.430000e-06	7.356353e-06	1.143330e-08	5.237542e+01	7.508637e+02
1.440000e-06	7.415673e-06	1.147669e-08	5.279777e+01	7.538630e+02
1.450000e-06	7.472353e-06	1.151739e-08	5.320131e+01	7.566685e+02
1.460000e-06	7.526283e-06	1.155533e-08	5.358529e+01	7.592717e+02
1.470000e-06	7.577251e-06	1.159053e-08	5.394817e+01	7.616667e+02
1.480000e-06	7.625168e-06	1.162314e-08	5.428932e+01	7.638524e+02
1.490000e-06	7.670340e-06	1.165409e-08	5.461093e+01	7.658324e+02
1.500000e-06	7.712838e-06	1.168279e-08	5.491351e+01	7.676159e+02
1.510000e-06	7.752525e-06	1.170884e-08	5.519607e+01	7.692163e+02
1.520000e-06	7.789507e-06	1.173168e-08	5.545937e+01	7.706500e+02
1.530000e-06	7.823750e-06	1.175283e-08	5.570318e+01	7.719346e+02
1.540000e-06	7.855183e-06	1.177241e-08	5.592697e+01	7.730868e+02
1.550000e-06	7.883939e-06	1.178902e-08	5.613171e+01	7.741205e+02
1.560000e-06	7.909853e-06	1.180282e-08	5.631621e+01	7.750457e+02
1.570000e-06	7.932770e-06	1.181454e-08	5.647937e+01	7.758674e+02
1.580000e-06	7.952939e-06	1.182590e-08	5.662297e+01	7.765856e+02
1.590000e-06	7.970275e-06	1.183490e-08	5.674639e+01	7.771961e+02
1.600000e-06	7.984596e-06	1.184202e-08	5.684836e+01	7.776912e+02
1.610000e-06	7.995830e-06	1.184869e-08	5.692835e+01	7.780618e+02
1.620000e-06	8.003975e-06	1.185371e-08	5.698634e+01	7.782987e+02
1.630000e-06	8.009279e-06	1.185695e-08	5.702410e+01	7.783944e+02
1.640000e-06	8.011723e-06	1.185720e-08	5.704150e+01	7.783441e+02
1.650000e-06	8.011309e-06	1.185473e-08	5.703855e+01	7.781470e+02
1.660000e-06	8.008249e-06	1.184643e-08	5.701677e+01	7.778060e+02
1.670000e-06	8.002503e-06	1.183698e-08	5.697585e+01	7.773281e+02
1.680000e-06	7.994048e-06	1.182629e-08	5.691566e+01	7.767235e+02
1.690000e-06	7.982938e-06	1.181531e-08	5.683656e+01	7.760047e+02
1.700000e-06	7.969001e-06	1.180618e-08	5.673733e+01	7.751854e+02
1.710000e-06	7.952446e-06	1.179428e-08	5.661946e+01	7.742794e+02
1.720000e-06	7.933615e-06	1.177191e-08	5.648539e+01	7.732998e+02
1.730000e-06	7.912300e-06	1.171834e-08	5.633363e+01	7.722576e+02
1.740000e-06	7.888030e-06	1.167548e-08	5.616083e+01	7.711618e+02
1.750000e-06	7.860328e-06	1.168490e-08	5.596360e+01	7.700184e+02
1.760000e-06	7.829159e-06	1.168124e-08	5.574169e+01	7.688301e+02
1.770000e-06	7.795144e-06	1.166324e-08	5.549951e+01	7.675963e+02
1.780000e-06	7.758778e-06	1.165991e-08	5.524059e+01	7.663129e+02
1.790000e-06	7.720010e-06	1.167522e-08	5.496457e+01	7.649724e+02
1.800000e-06	7.679125e-06	1.164261e-08	5.467348e+01	7.635634e+02
1.810000e-06	7.636134e-06	1.163919e-08	5.436740e+01	7.620713e+02
1.820000e-06	7.590500e-06	1.166983e-08	5.404249e+01	7.604787e+02
1.830000e-06	7.542138e-06	1.161903e-08	5.369817e+01	7.587657e+02
1.840000e-06	7.490793e-06	1.159983e-08	5.333261e+01	7.569110e+02
1.850000e-06	7.436399e-06	1.151398e-08	5.294533e+01	7.548935e+02
1.860000e-06	7.379284e-06	1.147914e-08	5.253869e+01	7.526933e+02
1.870000e-06	7.319502e-06	1.149539e-08	5.211305e+01	7.502935e+02
1.880000e-06	7.257061e-06	1.144306e-08	5.166849e+01	7.476819e+02
1.890000e-06	7.191892e-06	1.143542e-08	5.120450e+01	7.448521e+02
1.900000e-06	7.123945e-06	1.134835e-08	5.072074e+01	7.418044e+02
1.910000e-06	7.053168e-06	1.126086e-08	5.021682e+01	7.385457e+02
1.920000e-06	6.979601e-06	1.121435e-08	4.969305e+01	7.350891e+02
1.930000e-06	6.903308e-06	1.119536e-08	4.914985e+01	7.314527e+02
1.940000e-06	6.824197e-06	1.116571e-08	4.858660e+01	7.276573e+02
1.950000e-06	6.742572e-06	1.107657e-08	4.800546e+01	7.237240e+02
1.960000e-06	6.658530e-06	1.102502e-08	4.740709e+01	7.196718e+02
1.970000e-06	6.571988e-06	1.093540e-08	4.679094e+01	7.155152e+02
1.980000e-06	6.483074e-06	1.085231e-08	4.615790e+01	7.112620e+02
1.990000e-06	6.391927e-06	1.080230e-08	4.550895e+01	7.069123e+02
2.000000e-06	6.298529e-06	1.074613e-08	4.484398e+01	7.024586e+02
2.010000e-06	6.202766e-06	1.067122e-08	4.416217e+01	6.978865e+02
2.020000e-06	6.104843e-06	1.058462e-08	4.346498e+01	6.931763e+02
2.030000e-06	6.004725e-06	1.051854e-08	4.275217e+01	6.883061e+02
2.040000e-06	5.902380e-06	1.044127e-08	4.202350e+01	6.832541e+02
2.050000e-06	5.797981e-06	1.035166e-08	4.128020e+01	6.780017e+02
2.060000e-06	5.691678e-06	1.025488e-08	4.052335e+01	6.725358e+02
2.070000e-06	5.583440e-06	1.018377e-08	3.975272e+01	6.668502e+02
2.080000e-06	5.473175e-06	1.010216e-08	3.896766e+01	6.609462e+02
2.090000e-06	5.360901e-06	1.000581e-08	3.816829e+01	6.548314e+02
2.100000e-06	5.246597e-06	9.909748e-09	3.735448e+01	6.485185e+02
2.110000e-06	5.130256e-06	9.808559e-09	3.652616e+01	6.420220e+02
2.120000e-06	5.011889e-06	9.696070e-09	3.568341e+01	6.353555e+02
2.130000e-06	4.891650e-06	9.587744e-09	3.482734e+01	6.285286e+02
2.140000e-06	4.769698e-06	9.499508e-09	3.395908e+01	6.215444e+02
2.150000e-06	4.646039e-06	9.400920e-09	3.307866e+01	6.143978e+02
2.160000e-06	4.520621e-06	9.281563e-09	3.218571e+01	6.070753e+02
2.170000e-06	4.393561e-06	9.152777e-09	3.128107e+01	5.995560e+02
2.180000e-06	4.264920e-06	9.033014e-09	3.036518e+01	5.918136e+02
2.190000e-06	4.134797e-06	8.911222e-09	2.943874e+01	5.838195e+02
2.200000e-06	4.003101e-06	8.785549e-09	2.850110e+01	5.755461e+02
2.210000e-06	3.869767e-06	8.657957e-09	2.755179e+01	5.669704e+02
2.220000e-06	3.735001e-06	8.523962e-09	2.659229e+01	5.580760e+02
2.230000e-06	3.598847e-06	8.375383e-09	2.562291e+01	5.488555e+02
2.240000e-06	3.461371e-06	8.224842e-09	2.464411e+01	5.393097e+02
2.250000e-06	3.322519e-06	8.080938e-09	2.365552e+01	5.294467e+02
2.260000e-06	3.182243e-06	7.931838e-09	2.265679e+01	5.192792e+02
2.270000e-06	3.040739e-06	7.774657e-09	2.164931e+01	5.088207e+02
2.280000e-06	2.898105e-06	7.614911e-09	2.063379e+01	4.980813e+02
2.290000e-06	2.754411e-06	7.453976e-09	1.961073e+01	4.870646e+02
2.300000e-06	2.609770e-06	7.281421e-09	1.858092e+01	4.757643e+02
2.310000e-06	2.464275e-06	7.098699e-09	1.754503e+01	4.641628e+02
2.320000e-06	2.318007e-06	6.909391e-09	1.650364e+01	4.522320e+02
2.330000e-06	2.170945e-06	6.714673e-09	1.545659e+01	4.399348e+02
2.340000e-06	2.022993e-06	6.517546e-09	1.440321e+01	4.272287e+02
2.350000e-06	1.874223e-06	6.320292e-09	1.334401e+01	4.140706e+02
2.360000e-06	1.724889e-06	6.118651e-09	1.228079e+01	4.004212e+02
2.370000e-06	1.575080e-06	5.902583e-09	1.121418e+01	3.862492e+02
2.380000e-06	1.424777e-06	5.674770e-09	1.014406e+01	3.715343e+02
2.390000e-06	1.274017e-06	5.440893e-09	9.070688e+00	3.562681e+02
2.400000e-06	1.122838e-06	5.201766e-09	7.994329e+00	3.404525e+02
2.410000e-06	9.712928e-07	4.956986e-09	6.915366e+00	3.240957e+02
2.420000e-06	8.194497e-07	4.704268e-09	5.834280e+00	3.072071e+02
2.430000e-06	6.673658e-07	4.437770e-09	4.751481e+00	2.897899e+02
2.440000e-06	5.150437e-07	4.158127e-09	3.666985e+00	2.718339e+02
2.450000e-06	3.624816e-07	3.873457e-09	2.580780e+00	2.533095e+02
2.460000e-06	2.097519e-07	3.583619e-09	1.493382e+00	2.341634e+02
2.470000e-06	5.690721e-08	3.282401e-09	4.051654e-01	2.143175e+02
2.480000e-06	-9.601388e-08	2.965310e-09	-6.835952e-01	1.936716e+02
2.490000e-06	-2.489222e-07	2.633204e-09	-1.772265e+00	1.721098e+02
2.500000e-06	-4.017624e-07	2.285566e-09	-2.860450e+00	1.495107e+02
2.510000e-06	-5.544160e-07	1.920637e-09	-3.947306e+00	1.257603e+02
2.520000e-06	-7.068345e-07	1.539769e-09	-5.032488e+00	1.007666e+02
2.530000e-06	-8.590477e-07	1.143083e-09	-6.116208e+00	7.447422e+01
2.540000e-06	-1.011041e-06	7.274525e-10	-7.198363e+00	4.687728e+01
2.550000e-06	-1.162735e-06	2.927440e-10	-8.278387e+00	1.802930e+01
2.560000e-06	-1.313917e-06	-1.575137e-10	-9.354764e+00	-1.195156e+01
2.570000e-06	-1.464532e-06	-6.248254e-10	-1.042711e+01	-4.288262e+01
2.580000e-06	-1.614687e-06	-1.111800e-09	-1.149617e+01	-7.452250e+01
2.590000e-06	-1.764346e-06	-1.612258e-09	-1.256171e+01	-1.065823e+02
2.600000e-06	-1.913378e-06	-2.113980e-09	-1.362278e+01	-1.387413e+02
2.610000e-06	-2.061625e-06	-2.608569e-09	-1.467826e+01	-1.706654e+02
2.620000e-06	-2.208997e-06	-3.092445e-09	-1.572752e+01	-2.020278e+02
2.630000e-06	-2.355465e-06	-3.560244e-09	-1.677033e+01	-2.325275e+02
2.640000e-06	-2.501012e-06	-4.007223e-09	-1.780659e+01	-2.619071e+02
2.650000e-06	-2.645689e-06	-4.431758e-09	-1.883665e+01	-2.899651e+02
2.660000e-06	-2.789426e-06	-4.830409e-09	-1.986003e+01	-3.165645e+02
2.670000e-06	-2.932083e-06	-5.204605e-09	-2.087571e+01	-3.416344e+02
2.680000e-06	-3.073585e-06	-5.558265e-09	-2.188317e+01	-3.651672e+02
2.690000e-06	-3.213847e-06	-5.894350e-09	-2.288180e+01	-3.872105e+02
2.700000e-06	-3.352835e-06	-6.215144e-09	-2.387136e+01	-4.078551e+02
2.710000e-06	-3.490507e-06	-6.517080e-09	-2.485155e+01	-4.272208e+02
2.720000e-06	-3.626824e-06	-6.799333e-09	-2.582210e+01	-4.454422e+02
2.730000e-06	-3.761818e-06	-7.064234e-09	-2.678322e+01	-4.626546e+02
2.740000e-06	-3.895519e-06	-7.315811e-09	-2.773514e+01	-4.789823e+02
2.750000e-06	-4.027846e-06	-7.557015e-09	-2.867727e+01	-4.945306e+02
2.760000e-06	-4.158729e-06	-7.786653e-09	-2.960913e+01	-5.093810e+02
2.770000e-06	-4.288176e-06	-8.003458e-09	-3.053076e+01	-5.235902e+02
2.780000e-06	-4.416166e-06	-8.208867e-09	-3.144201e+01	-5.371927e+02
2.790000e-06	-4.542697e-06	-8.404793e-09	-3.234288e+01	-5.502051e+02
2.800000e-06	-4.667617e-06	-8.590946e-09	-3.323228e+01	-5.626327e+02
2.810000e-06	-4.790789e-06	-8.769679e-09	-3.410924e+01	-5.744759e+02
2.820000e-06	-4.912244e-06	-8.940658e-09	-3.497397e+01	-5.857366e+02
2.830000e-06	-5.031935e-06	-9.101539e-09	-3.582614e+01	-5.964225e+02
2.840000e-06	-5.149703e-06	-9.255632e-09	-3.666462e+01	-6.065498e+02
2.850000e-06	-5.265365e-06	-9.405251e-09	-3.748811e+01	-6.161444e+02
2.860000e-06	-5.378888e-06	-9.548894e-09	-3.829636e+01	-6.252404e+02
2.870000e-06	-5.490290e-06	-9.681177e-09	-3.908952e+01	-6.338776e+02
2.880000e-06	-5.599623e-06	-9.804647e-09	-3.986794e+01	-6.420981e+02
2.890000e-06	-5.707028e-06	-9.924981e-09	-4.063263e+01	-6.499422e+02
2.900000e-06	-5.812466e-06	-1.004137e-08	-4.138333e+01	-6.574459e+02
2.910000e-06	-5.915796e-06	-1.015141e-08	-4.211901e+01	-6.646378e+02
2.920000e-06	-6.016895e-06	-1.025584e-08	-4.283882e+01	-6.715387e+02
2.930000e-06	-6.115797e-06	-1.035746e-08	-4.354297e+01	-6.781610e+02
2.940000e-06	-6.212567e-06	-1.045350e-08	-4.423195e+01	-6.845110e+02
