# Temperatura_=_36.17
# Concentracion g/m^3_=_10000.0
# C_Vs_to_Am_M_A/Vsm_=_65563218390.804596
# pendiente_HvsI_1/m_=_3716.3
# ordenada_HvsI_A/m_=_1297.0
# frecuencia_Hz_=_302551.46105452866

Tiempo_(s)	Campo_(V.s)	Magnetizacion_(V.s)	Campo_(kA/m)	Magnetizacion_(A/m)
0.000000e+00	-7.936268e-06	-1.098029e-08	-5.684807e+01	-7.201152e+02
1.000000e-08	-7.932513e-06	-1.097885e-08	-5.682117e+01	-7.197657e+02
2.000000e-08	-7.926133e-06	-1.097242e-08	-5.677547e+01	-7.192964e+02
3.000000e-08	-7.917144e-06	-1.096720e-08	-5.671108e+01	-7.187227e+02
4.000000e-08	-7.905402e-06	-1.096172e-08	-5.662697e+01	-7.180621e+02
5.000000e-08	-7.890706e-06	-1.095092e-08	-5.652170e+01	-7.173316e+02
6.000000e-08	-7.873145e-06	-1.093778e-08	-5.639591e+01	-7.165461e+02
7.000000e-08	-7.853282e-06	-1.092543e-08	-5.625363e+01	-7.157161e+02
8.000000e-08	-7.831120e-06	-1.093500e-08	-5.609488e+01	-7.148471e+02
9.000000e-08	-7.806009e-06	-1.096373e-08	-5.591501e+01	-7.139389e+02
1.000000e-07	-7.777632e-06	-1.092334e-08	-5.571174e+01	-7.129858e+02
1.100000e-07	-7.746255e-06	-1.086613e-08	-5.548699e+01	-7.119777e+02
1.200000e-07	-7.712122e-06	-1.084282e-08	-5.524249e+01	-7.109014e+02
1.300000e-07	-7.675387e-06	-1.081567e-08	-5.497936e+01	-7.097426e+02
1.400000e-07	-7.636346e-06	-1.076762e-08	-5.469970e+01	-7.084868e+02
1.500000e-07	-7.595113e-06	-1.073240e-08	-5.440435e+01	-7.071215e+02
1.600000e-07	-7.551498e-06	-1.078141e-08	-5.409193e+01	-7.056366e+02
1.700000e-07	-7.505250e-06	-1.073410e-08	-5.376065e+01	-7.040252e+02
1.800000e-07	-7.456309e-06	-1.066024e-08	-5.341009e+01	-7.022835e+02
1.900000e-07	-7.404478e-06	-1.069069e-08	-5.303882e+01	-7.004101e+02
2.000000e-07	-7.349711e-06	-1.063069e-08	-5.264651e+01	-6.984059e+02
2.100000e-07	-7.292184e-06	-1.059937e-08	-5.223444e+01	-6.962726e+02
2.200000e-07	-7.231976e-06	-1.059468e-08	-5.180317e+01	-6.940123e+02
2.300000e-07	-7.169219e-06	-1.054557e-08	-5.135364e+01	-6.916268e+02
2.400000e-07	-7.103738e-06	-1.048876e-08	-5.088459e+01	-6.891173e+02
2.500000e-07	-7.035472e-06	-1.043088e-08	-5.039560e+01	-6.864844e+02
2.600000e-07	-6.964582e-06	-1.043031e-08	-4.988781e+01	-6.837283e+02
2.700000e-07	-6.890916e-06	-1.038375e-08	-4.936013e+01	-6.808491e+02
2.800000e-07	-6.814464e-06	-1.031504e-08	-4.881250e+01	-6.778469e+02
2.900000e-07	-6.735233e-06	-1.025772e-08	-4.824497e+01	-6.747223e+02
3.000000e-07	-6.653387e-06	-1.022673e-08	-4.765869e+01	-6.714766e+02
3.100000e-07	-6.569300e-06	-1.019147e-08	-4.705638e+01	-6.681107e+02
3.200000e-07	-6.482959e-06	-1.012165e-08	-4.643791e+01	-6.646258e+02
3.300000e-07	-6.394247e-06	-1.008178e-08	-4.580246e+01	-6.610217e+02
3.400000e-07	-6.303191e-06	-1.002260e-08	-4.515022e+01	-6.572969e+02
3.500000e-07	-6.209916e-06	-9.953304e-09	-4.448208e+01	-6.534478e+02
3.600000e-07	-6.114437e-06	-9.895886e-09	-4.379815e+01	-6.494685e+02
3.700000e-07	-6.016688e-06	-9.845719e-09	-4.309798e+01	-6.453510e+02
3.800000e-07	-5.916705e-06	-9.783319e-09	-4.238179e+01	-6.410855e+02
3.900000e-07	-5.814582e-06	-9.702163e-09	-4.165027e+01	-6.366615e+02
4.000000e-07	-5.710380e-06	-9.629064e-09	-4.090387e+01	-6.320687e+02
4.100000e-07	-5.604141e-06	-9.554461e-09	-4.014287e+01	-6.272981e+02
4.200000e-07	-5.495937e-06	-9.486334e-09	-3.936780e+01	-6.223434e+02
4.300000e-07	-5.385850e-06	-9.409471e-09	-3.857924e+01	-6.172010e+02
4.400000e-07	-5.273827e-06	-9.325885e-09	-3.777681e+01	-6.118709e+02
4.500000e-07	-5.159771e-06	-9.238541e-09	-3.695982e+01	-6.063558e+02
4.600000e-07	-5.043721e-06	-9.156117e-09	-3.612854e+01	-6.006606e+02
4.700000e-07	-4.925769e-06	-9.069814e-09	-3.528364e+01	-5.947904e+02
4.800000e-07	-4.805985e-06	-8.978051e-09	-3.442562e+01	-5.887497e+02
4.900000e-07	-4.684453e-06	-8.887569e-09	-3.355508e+01	-5.825400e+02
5.000000e-07	-4.561222e-06	-8.784447e-09	-3.267237e+01	-5.761588e+02
5.100000e-07	-4.436284e-06	-8.675530e-09	-3.177743e+01	-5.695989e+02
5.200000e-07	-4.309784e-06	-8.573805e-09	-3.087130e+01	-5.628478e+02
5.300000e-07	-4.181733e-06	-8.477649e-09	-2.995405e+01	-5.558888e+02
5.400000e-07	-4.052132e-06	-8.363216e-09	-2.902572e+01	-5.487021e+02
5.500000e-07	-3.921044e-06	-8.238661e-09	-2.808672e+01	-5.412665e+02
5.600000e-07	-3.788370e-06	-8.124065e-09	-2.713637e+01	-5.335616e+02
5.700000e-07	-3.654291e-06	-8.011717e-09	-2.617595e+01	-5.255700e+02
5.800000e-07	-3.518862e-06	-7.881018e-09	-2.520586e+01	-5.172785e+02
5.900000e-07	-3.382006e-06	-7.745792e-09	-2.422555e+01	-5.086791e+02
6.000000e-07	-3.243824e-06	-7.616528e-09	-2.323575e+01	-4.997691e+02
6.100000e-07	-3.104374e-06	-7.475671e-09	-2.223685e+01	-4.905497e+02
6.200000e-07	-2.963538e-06	-7.323254e-09	-2.122804e+01	-4.810245e+02
6.300000e-07	-2.821370e-06	-7.172213e-09	-2.020968e+01	-4.711970e+02
6.400000e-07	-2.678132e-06	-7.022386e-09	-1.918366e+01	-4.610681e+02
6.500000e-07	-2.533939e-06	-6.861044e-09	-1.815079e+01	-4.506334e+02
6.600000e-07	-2.388836e-06	-6.694083e-09	-1.711141e+01	-4.398820e+02
6.700000e-07	-2.242875e-06	-6.527711e-09	-1.606588e+01	-4.287955e+02
6.800000e-07	-2.096133e-06	-6.355046e-09	-1.501475e+01	-4.173488e+02
6.900000e-07	-1.948715e-06	-6.170774e-09	-1.395879e+01	-4.055115e+02
7.000000e-07	-1.800710e-06	-5.978018e-09	-1.289861e+01	-3.932503e+02
7.100000e-07	-1.652134e-06	-5.780278e-09	-1.183435e+01	-3.805330e+02
7.200000e-07	-1.503055e-06	-5.576436e-09	-1.076650e+01	-3.673309e+02
7.300000e-07	-1.353558e-06	-5.370809e-09	-9.695636e+00	-3.536217e+02
7.400000e-07	-1.203662e-06	-5.157978e-09	-8.621922e+00	-3.393915e+02
7.500000e-07	-1.053346e-06	-4.937283e-09	-7.545196e+00	-3.246340e+02
7.600000e-07	-9.026390e-07	-4.708865e-09	-6.465669e+00	-3.093496e+02
7.700000e-07	-7.515844e-07	-4.469461e-09	-5.383654e+00	-2.935419e+02
7.800000e-07	-6.001920e-07	-4.219563e-09	-4.299219e+00	-2.772126e+02
7.900000e-07	-4.485959e-07	-3.959673e-09	-3.213325e+00	-2.603569e+02
8.000000e-07	-2.968467e-07	-3.694761e-09	-2.126334e+00	-2.429577e+02
8.100000e-07	-1.449364e-07	-3.419340e-09	-1.038190e+00	-2.249817e+02
8.200000e-07	7.077575e-09	-3.130882e-09	5.069719e-02	-2.063774e+02
8.300000e-07	1.590772e-07	-2.831986e-09	1.139481e+00	-1.870749e+02
8.400000e-07	3.110061e-07	-2.523873e-09	2.227759e+00	-1.669895e+02
8.500000e-07	4.628804e-07	-2.203162e-09	3.315646e+00	-1.460282e+02
8.600000e-07	6.146284e-07	-1.867817e-09	4.402628e+00	-1.240984e+02
8.700000e-07	7.661690e-07	-1.520823e-09	5.488125e+00	-1.011197e+02
8.800000e-07	9.174538e-07	-1.158516e-09	6.571789e+00	-7.703502e+01
8.900000e-07	1.068425e-06	-7.771117e-10	7.653205e+00	-5.182287e+01
9.000000e-07	1.219017e-06	-3.770158e-10	8.731908e+00	-2.550671e+01
9.100000e-07	1.369188e-06	3.750849e-11	9.807596e+00	1.838132e+00
9.200000e-07	1.518849e-06	4.641016e-10	1.087963e+01	3.008175e+01
9.300000e-07	1.667914e-06	9.048697e-10	1.194739e+01	5.904156e+01
9.400000e-07	1.816412e-06	1.355928e-09	1.301109e+01	8.848894e+01
9.500000e-07	1.964344e-06	1.811025e-09	1.407074e+01	1.181601e+02
9.600000e-07	2.111580e-06	2.266165e-09	1.512540e+01	1.477706e+02
9.700000e-07	2.258028e-06	2.714421e-09	1.617442e+01	1.770316e+02
9.800000e-07	2.403594e-06	3.149631e-09	1.721712e+01	2.056669e+02
9.900000e-07	2.548320e-06	3.568169e-09	1.825380e+01	2.334292e+02
1.000000e-06	2.692146e-06	3.968701e-09	1.928404e+01	2.601131e+02
1.010000e-06	2.834891e-06	4.350327e-09	2.030653e+01	2.855649e+02
1.020000e-06	2.976439e-06	4.712322e-09	2.132045e+01	3.096877e+02
1.030000e-06	3.116714e-06	5.056407e-09	2.232525e+01	3.324412e+02
1.040000e-06	3.255778e-06	5.381995e-09	2.332138e+01	3.538375e+02
1.050000e-06	3.393581e-06	5.689652e-09	2.430847e+01	3.739326e+02
1.060000e-06	3.530052e-06	5.980191e-09	2.528602e+01	3.928149e+02
1.070000e-06	3.665138e-06	6.254509e-09	2.625365e+01	4.105927e+02
1.080000e-06	3.798845e-06	6.512821e-09	2.721140e+01	4.273815e+02
1.090000e-06	3.931233e-06	6.755752e-09	2.815971e+01	4.432928e+02
1.100000e-06	4.062268e-06	6.987456e-09	2.909832e+01	4.584246e+02
1.110000e-06	4.191883e-06	7.208368e-09	3.002676e+01	4.728559e+02
1.120000e-06	4.320007e-06	7.417413e-09	3.094453e+01	4.866441e+02
1.130000e-06	4.446603e-06	7.614940e-09	3.185134e+01	4.998259e+02
1.140000e-06	4.571703e-06	7.802456e-09	3.274744e+01	5.124200e+02
1.150000e-06	4.695222e-06	7.981979e-09	3.363222e+01	5.244333e+02
1.160000e-06	4.817105e-06	8.154016e-09	3.450528e+01	5.358660e+02
1.170000e-06	4.937305e-06	8.318912e-09	3.536628e+01	5.467184e+02
1.180000e-06	5.055650e-06	8.476708e-09	3.621399e+01	5.569956e+02
1.190000e-06	5.172051e-06	8.626458e-09	3.704778e+01	5.667108e+02
1.200000e-06	5.286472e-06	8.766828e-09	3.786739e+01	5.758873e+02
1.210000e-06	5.398870e-06	8.899334e-09	3.867250e+01	5.845575e+02
1.220000e-06	5.509306e-06	9.026500e-09	3.946356e+01	5.927610e+02
1.230000e-06	5.617862e-06	9.147432e-09	4.024115e+01	6.005414e+02
1.240000e-06	5.724419e-06	9.261054e-09	4.100443e+01	6.079423e+02
1.250000e-06	5.828817e-06	9.368913e-09	4.175224e+01	6.150037e+02
1.260000e-06	5.931067e-06	9.472624e-09	4.248467e+01	6.217588e+02
1.270000e-06	6.031194e-06	9.571102e-09	4.320188e+01	6.282324e+02
1.280000e-06	6.129035e-06	9.664763e-09	4.390272e+01	6.344400e+02
1.290000e-06	6.224525e-06	9.754128e-09	4.458673e+01	6.403890e+02
1.300000e-06	6.317808e-06	9.839054e-09	4.525492e+01	6.460807e+02
1.310000e-06	6.408904e-06	9.921183e-09	4.590744e+01	6.515125e+02
1.320000e-06	6.497658e-06	9.998724e-09	4.654320e+01	6.566811e+02
1.330000e-06	6.584079e-06	1.007033e-08	4.716224e+01	6.615851e+02
1.340000e-06	6.668263e-06	1.013835e-08	4.776525e+01	6.662270e+02
1.350000e-06	6.750069e-06	1.020528e-08	4.835124e+01	6.706140e+02
1.360000e-06	6.829377e-06	1.027189e-08	4.891932e+01	6.747579e+02
1.370000e-06	6.906156e-06	1.033575e-08	4.946930e+01	6.786744e+02
1.380000e-06	6.980265e-06	1.039520e-08	5.000015e+01	6.823809e+02
1.390000e-06	7.051742e-06	1.045030e-08	5.051214e+01	6.858945e+02
1.400000e-06	7.120779e-06	1.050071e-08	5.100666e+01	6.892300e+02
1.410000e-06	7.187294e-06	1.054840e-08	5.148311e+01	6.923978e+02
1.420000e-06	7.251179e-06	1.059465e-08	5.194072e+01	6.954033e+02
1.430000e-06	7.312626e-06	1.063684e-08	5.238087e+01	6.982467e+02
1.440000e-06	7.371634e-06	1.067538e-08	5.280355e+01	7.009236e+02
1.450000e-06	7.427993e-06	1.071166e-08	5.320725e+01	7.034270e+02
1.460000e-06	7.481578e-06	1.074623e-08	5.359109e+01	7.057489e+02
1.470000e-06	7.532149e-06	1.077993e-08	5.395333e+01	7.078827e+02
1.480000e-06	7.579699e-06	1.081086e-08	5.429393e+01	7.098256e+02
1.490000e-06	7.624564e-06	1.083862e-08	5.461531e+01	7.115791e+02
1.500000e-06	7.666756e-06	1.086232e-08	5.491753e+01	7.131506e+02
1.510000e-06	7.706159e-06	1.088253e-08	5.519978e+01	7.145523e+02
1.520000e-06	7.742927e-06	1.090190e-08	5.546315e+01	7.158007e+02
1.530000e-06	7.776988e-06	1.092172e-08	5.570713e+01	7.169141e+02
1.540000e-06	7.808227e-06	1.094056e-08	5.593090e+01	7.179110e+02
1.550000e-06	7.836769e-06	1.095663e-08	5.613535e+01	7.188072e+02
1.560000e-06	7.862445e-06	1.097021e-08	5.631927e+01	7.196146e+02
1.570000e-06	7.885164e-06	1.098085e-08	5.648200e+01	7.203393e+02
1.580000e-06	7.905166e-06	1.099037e-08	5.662528e+01	7.209815e+02
1.590000e-06	7.922364e-06	1.099888e-08	5.674847e+01	7.215356e+02
1.600000e-06	7.936576e-06	1.100461e-08	5.685027e+01	7.219919e+02
1.610000e-06	7.947682e-06	1.100958e-08	5.692983e+01	7.223384e+02
1.620000e-06	7.955700e-06	1.101308e-08	5.698726e+01	7.225629e+02
1.630000e-06	7.960902e-06	1.101479e-08	5.702452e+01	7.226552e+02
1.640000e-06	7.963272e-06	1.101618e-08	5.704150e+01	7.226094e+02
1.650000e-06	7.962746e-06	1.101486e-08	5.703773e+01	7.224248e+02
1.660000e-06	7.959593e-06	1.100698e-08	5.701514e+01	7.221066e+02
1.670000e-06	7.953817e-06	1.100030e-08	5.697377e+01	7.216651e+02
1.680000e-06	7.945383e-06	1.099324e-08	5.691336e+01	7.211152e+02
1.690000e-06	7.934335e-06	1.098423e-08	5.683422e+01	7.204739e+02
1.700000e-06	7.920445e-06	1.097690e-08	5.673472e+01	7.197586e+02
1.710000e-06	7.903880e-06	1.097031e-08	5.661607e+01	7.189849e+02
1.720000e-06	7.885044e-06	1.095487e-08	5.648114e+01	7.181645e+02
1.730000e-06	7.863870e-06	1.089242e-08	5.632947e+01	7.173043e+02
1.740000e-06	7.839748e-06	1.083977e-08	5.615669e+01	7.164055e+02
1.750000e-06	7.812150e-06	1.086905e-08	5.595900e+01	7.154636e+02
1.760000e-06	7.781060e-06	1.087412e-08	5.573630e+01	7.144696e+02
1.770000e-06	7.747121e-06	1.085036e-08	5.549319e+01	7.134110e+02
1.780000e-06	7.710863e-06	1.086948e-08	5.523347e+01	7.122734e+02
1.790000e-06	7.672292e-06	1.090322e-08	5.495719e+01	7.110423e+02
1.800000e-06	7.631653e-06	1.081254e-08	5.466609e+01	7.097047e+02
1.810000e-06	7.588810e-06	1.078621e-08	5.435920e+01	7.082497e+02
1.820000e-06	7.543374e-06	1.081933e-08	5.403374e+01	7.066697e+02
1.830000e-06	7.495298e-06	1.075664e-08	5.368936e+01	7.049599e+02
1.840000e-06	7.444250e-06	1.078060e-08	5.332371e+01	7.031187e+02
1.850000e-06	7.390167e-06	1.070371e-08	5.293630e+01	7.011464e+02
1.860000e-06	7.333361e-06	1.065646e-08	5.252940e+01	6.990444e+02
1.870000e-06	7.273953e-06	1.062923e-08	5.210386e+01	6.968148e+02
1.880000e-06	7.211891e-06	1.056109e-08	5.165930e+01	6.944597e+02
1.890000e-06	7.147014e-06	1.060066e-08	5.119458e+01	6.919804e+02
1.900000e-06	7.079413e-06	1.052542e-08	5.071035e+01	6.893776e+02
1.910000e-06	7.009037e-06	1.046999e-08	5.020625e+01	6.866515e+02
1.920000e-06	6.935854e-06	1.043281e-08	4.968202e+01	6.838023e+02
1.930000e-06	6.860047e-06	1.038578e-08	4.913902e+01	6.808300e+02
1.940000e-06	6.781474e-06	1.036177e-08	4.857619e+01	6.777352e+02
1.950000e-06	6.700303e-06	1.029145e-08	4.799476e+01	6.745189e+02
1.960000e-06	6.616739e-06	1.026465e-08	4.739619e+01	6.711822e+02
1.970000e-06	6.530695e-06	1.018252e-08	4.677985e+01	6.677262e+02
1.980000e-06	6.442239e-06	1.012012e-08	4.614623e+01	6.641512e+02
1.990000e-06	6.351543e-06	1.007936e-08	4.549657e+01	6.604560e+02
2.000000e-06	6.258652e-06	1.003051e-08	4.483118e+01	6.566377e+02
2.010000e-06	6.163404e-06	9.972872e-09	4.414891e+01	6.526909e+02
2.020000e-06	6.065963e-06	9.884525e-09	4.345093e+01	6.486080e+02
2.030000e-06	5.966434e-06	9.824301e-09	4.273800e+01	6.443798e+02
2.040000e-06	5.864751e-06	9.751666e-09	4.200964e+01	6.399956e+02
2.050000e-06	5.760948e-06	9.696354e-09	4.126609e+01	6.354451e+02
2.060000e-06	5.655180e-06	9.623549e-09	4.050847e+01	6.307190e+02
2.070000e-06	5.547537e-06	9.543050e-09	3.973741e+01	6.258099e+02
2.080000e-06	5.437990e-06	9.462869e-09	3.895272e+01	6.207138e+02
2.090000e-06	5.326448e-06	9.380033e-09	3.815374e+01	6.154297e+02
2.100000e-06	5.212856e-06	9.300218e-09	3.734006e+01	6.099597e+02
2.110000e-06	5.097243e-06	9.227613e-09	3.651192e+01	6.043083e+02
2.120000e-06	4.979569e-06	9.146166e-09	3.566902e+01	5.984806e+02
2.130000e-06	4.859978e-06	9.037871e-09	3.481238e+01	5.924815e+02
2.140000e-06	4.738611e-06	8.937648e-09	3.394302e+01	5.863133e+02
2.150000e-06	4.615598e-06	8.846560e-09	3.306186e+01	5.799747e+02
2.160000e-06	4.490909e-06	8.757853e-09	3.216871e+01	5.734597e+02
2.170000e-06	4.364547e-06	8.649174e-09	3.126357e+01	5.667571e+02
2.180000e-06	4.236585e-06	8.540842e-09	3.034697e+01	5.598511e+02
2.190000e-06	4.107074e-06	8.434650e-09	2.941927e+01	5.527225e+02
2.200000e-06	3.976065e-06	8.321036e-09	2.848084e+01	5.453503e+02
2.210000e-06	3.843509e-06	8.204224e-09	2.753134e+01	5.377137e+02
2.220000e-06	3.709494e-06	8.090962e-09	2.657137e+01	5.297944e+02
2.230000e-06	3.574082e-06	7.964988e-09	2.560141e+01	5.215781e+02
2.240000e-06	3.437354e-06	7.822769e-09	2.462202e+01	5.130554e+02
2.250000e-06	3.299318e-06	7.685614e-09	2.363325e+01	5.042223e+02
2.260000e-06	3.159938e-06	7.556802e-09	2.263487e+01	4.950792e+02
2.270000e-06	3.019336e-06	7.423147e-09	2.162772e+01	4.856293e+02
2.280000e-06	2.877637e-06	7.270676e-09	2.061272e+01	4.758764e+02
2.290000e-06	2.734850e-06	7.115014e-09	1.958993e+01	4.658222e+02
2.300000e-06	2.591066e-06	6.959155e-09	1.855999e+01	4.554639e+02
2.310000e-06	2.446383e-06	6.798148e-09	1.752362e+01	4.447924e+02
2.320000e-06	2.300880e-06	6.632590e-09	1.648137e+01	4.337911e+02
2.330000e-06	2.154646e-06	6.458323e-09	1.543389e+01	4.224364e+02
2.340000e-06	2.007688e-06	6.271369e-09	1.438122e+01	4.106989e+02
2.350000e-06	1.859940e-06	6.079187e-09	1.332289e+01	3.985461e+02
2.360000e-06	1.711476e-06	5.889119e-09	1.225943e+01	3.859450e+02
2.370000e-06	1.562523e-06	5.697386e-09	1.119247e+01	3.728656e+02
2.380000e-06	1.413127e-06	5.496263e-09	1.012233e+01	3.592841e+02
2.390000e-06	1.263272e-06	5.281513e-09	9.048911e+00	3.451842e+02
2.400000e-06	1.112999e-06	5.054842e-09	7.972496e+00	3.305579e+02
2.410000e-06	9.623782e-07	4.821506e-09	6.893585e+00	3.154043e+02
2.420000e-06	8.114410e-07	4.584901e-09	5.812411e+00	2.997263e+02
2.430000e-06	6.602080e-07	4.340346e-09	4.729118e+00	2.835268e+02
2.440000e-06	5.087197e-07	4.083482e-09	3.643996e+00	2.668029e+02
2.450000e-06	3.570503e-07	3.817462e-09	2.557577e+00	2.495412e+02
2.460000e-06	2.052732e-07	3.546498e-09	1.470387e+00	2.317128e+02
2.470000e-06	5.341151e-08	3.267631e-09	3.825905e-01	2.132707e+02
2.480000e-06	-9.852117e-08	2.975534e-09	-7.057143e-01	1.941494e+02
2.490000e-06	-2.504424e-07	2.669415e-09	-1.793937e+00	1.742675e+02
2.500000e-06	-4.022805e-07	2.348866e-09	-2.881565e+00	1.535332e+02
2.510000e-06	-5.540114e-07	2.014301e-09	-3.968424e+00	1.318531e+02
2.520000e-06	-7.056074e-07	1.667677e-09	-5.054317e+00	1.091423e+02
2.530000e-06	-8.570414e-07	1.307708e-09	-6.139050e+00	8.533691e+01
2.540000e-06	-1.008172e-06	9.321753e-10	-7.221610e+00	6.040557e+01
2.550000e-06	-1.158913e-06	5.388727e-10	-8.301379e+00	3.435969e+01
2.560000e-06	-1.309271e-06	1.302719e-10	-9.378405e+00	7.261208e+00
2.570000e-06	-1.459100e-06	-2.914148e-10	-1.045164e+01	-2.077362e+01
2.580000e-06	-1.608350e-06	-7.300207e-10	-1.152073e+01	-4.957494e+01
2.590000e-06	-1.757104e-06	-1.184057e-09	-1.258626e+01	-7.892477e+01
2.600000e-06	-1.905256e-06	-1.646970e-09	-1.364749e+01	-1.085669e+02
2.610000e-06	-2.052572e-06	-2.109547e-09	-1.470272e+01	-1.382205e+02
2.620000e-06	-2.199049e-06	-2.565007e-09	-1.575195e+01	-1.675963e+02
2.630000e-06	-2.344765e-06	-3.008411e-09	-1.679572e+01	-1.964134e+02
2.640000e-06	-2.489576e-06	-3.434669e-09	-1.783301e+01	-2.244158e+02
2.650000e-06	-2.633422e-06	-3.844869e-09	-1.886339e+01	-2.513866e+02
2.660000e-06	-2.776270e-06	-4.235098e-09	-1.988663e+01	-2.771586e+02
2.670000e-06	-2.917979e-06	-4.602073e-09	-2.090169e+01	-3.016203e+02
2.680000e-06	-3.058552e-06	-4.948236e-09	-2.190863e+01	-3.247177e+02
2.690000e-06	-3.197947e-06	-5.277157e-09	-2.290713e+01	-3.464504e+02
2.700000e-06	-3.336052e-06	-5.591710e-09	-2.389638e+01	-3.668643e+02
2.710000e-06	-3.472838e-06	-5.888361e-09	-2.487619e+01	-3.860409e+02
2.720000e-06	-3.608280e-06	-6.164892e-09	-2.584637e+01	-4.040848e+02
2.730000e-06	-3.742391e-06	-6.424411e-09	-2.680702e+01	-4.211109e+02
2.740000e-06	-3.875219e-06	-6.672058e-09	-2.775848e+01	-4.372325e+02
2.750000e-06	-4.006687e-06	-6.910805e-09	-2.870019e+01	-4.525517e+02
2.760000e-06	-4.136740e-06	-7.139917e-09	-2.963177e+01	-4.671526e+02
2.770000e-06	-4.265383e-06	-7.356032e-09	-3.055325e+01	-4.810982e+02
2.780000e-06	-4.392561e-06	-7.558456e-09	-3.146423e+01	-4.944300e+02
2.790000e-06	-4.518250e-06	-7.749234e-09	-3.236456e+01	-5.071708e+02
2.800000e-06	-4.642327e-06	-7.929991e-09	-3.325333e+01	-5.193299e+02
2.810000e-06	-4.764749e-06	-8.103980e-09	-3.413024e+01	-5.309085e+02
2.820000e-06	-4.885488e-06	-8.270154e-09	-3.499511e+01	-5.419066e+02
2.830000e-06	-5.004400e-06	-8.426657e-09	-3.584688e+01	-5.523274e+02
2.840000e-06	-5.121342e-06	-8.575733e-09	-3.668455e+01	-5.621822e+02
2.850000e-06	-5.236120e-06	-8.719926e-09	-3.750671e+01	-5.714914e+02
2.860000e-06	-5.348720e-06	-8.859427e-09	-3.831327e+01	-5.802854e+02
2.870000e-06	-5.459309e-06	-8.989376e-09	-3.910543e+01	-5.886023e+02
2.880000e-06	-5.567979e-06	-9.109813e-09	-3.988384e+01	-5.964851e+02
2.890000e-06	-5.674774e-06	-9.223763e-09	-4.064882e+01	-6.039778e+02
2.900000e-06	-5.779585e-06	-9.333036e-09	-4.139959e+01	-6.111214e+02
2.910000e-06	-5.882218e-06	-9.436868e-09	-4.213476e+01	-6.179512e+02
2.920000e-06	-5.982613e-06	-9.535344e-09	-4.285389e+01	-6.244941e+02
2.930000e-06	-6.080862e-06	-9.630315e-09	-4.355766e+01	-6.307679e+02
2.940000e-06	-6.176978e-06	-9.722193e-09	-4.424614e+01	-6.367821e+02
