# Temperatura_=_69.11
# Concentracion g/m^3_=_10000.0
# C_Vs_to_Am_M_A/Vsm_=_65563218390.804596
# pendiente_HvsI_1/m_=_3716.3
# ordenada_HvsI_A/m_=_1297.0
# frecuencia_Hz_=_302548.7446118529

Tiempo_(s)	Campo_(V.s)	Magnetizacion_(V.s)	Campo_(kA/m)	Magnetizacion_(A/m)
0.000000e+00	-7.953285e-06	-1.223101e-08	-5.684795e+01	-8.020000e+02
1.000000e-08	-7.949657e-06	-1.222628e-08	-5.682202e+01	-8.015618e+02
2.000000e-08	-7.943523e-06	-1.222085e-08	-5.677818e+01	-8.009911e+02
3.000000e-08	-7.934733e-06	-1.221464e-08	-5.671535e+01	-8.003026e+02
4.000000e-08	-7.922998e-06	-1.220500e-08	-5.663147e+01	-7.995102e+02
5.000000e-08	-7.908252e-06	-1.219176e-08	-5.652607e+01	-7.986256e+02
6.000000e-08	-7.890737e-06	-1.217884e-08	-5.640087e+01	-7.976571e+02
7.000000e-08	-7.870921e-06	-1.216672e-08	-5.625924e+01	-7.966094e+02
8.000000e-08	-7.848727e-06	-1.216550e-08	-5.610060e+01	-7.954834e+02
9.000000e-08	-7.823595e-06	-1.216996e-08	-5.592096e+01	-7.942767e+02
1.000000e-07	-7.795287e-06	-1.214172e-08	-5.571863e+01	-7.929851e+02
1.100000e-07	-7.764001e-06	-1.209466e-08	-5.549500e+01	-7.916031e+02
1.200000e-07	-7.729883e-06	-1.205886e-08	-5.525113e+01	-7.901251e+02
1.300000e-07	-7.693130e-06	-1.203348e-08	-5.498844e+01	-7.885463e+02
1.400000e-07	-7.654113e-06	-1.199999e-08	-5.470955e+01	-7.868623e+02
1.500000e-07	-7.612905e-06	-1.193818e-08	-5.441501e+01	-7.850693e+02
1.600000e-07	-7.569246e-06	-1.190757e-08	-5.410294e+01	-7.831636e+02
1.700000e-07	-7.522919e-06	-1.187817e-08	-5.377181e+01	-7.811405e+02
1.800000e-07	-7.473827e-06	-1.182176e-08	-5.342091e+01	-7.789938e+02
1.900000e-07	-7.421881e-06	-1.183331e-08	-5.304962e+01	-7.767151e+02
2.000000e-07	-7.367061e-06	-1.181625e-08	-5.265778e+01	-7.742942e+02
2.100000e-07	-7.309468e-06	-1.177582e-08	-5.224612e+01	-7.717190e+02
2.200000e-07	-7.249229e-06	-1.174079e-08	-5.181555e+01	-7.689767e+02
2.300000e-07	-7.186420e-06	-1.166344e-08	-5.136660e+01	-7.660554e+02
2.400000e-07	-7.120912e-06	-1.160180e-08	-5.089838e+01	-7.629455e+02
2.500000e-07	-7.052659e-06	-1.155320e-08	-5.041052e+01	-7.596411e+02
2.600000e-07	-6.981674e-06	-1.150598e-08	-4.990314e+01	-7.561412e+02
2.700000e-07	-6.907922e-06	-1.144412e-08	-4.937598e+01	-7.524503e+02
2.800000e-07	-6.831391e-06	-1.138215e-08	-4.882896e+01	-7.485780e+02
2.900000e-07	-6.752003e-06	-1.131980e-08	-4.826151e+01	-7.445380e+02
3.000000e-07	-6.670009e-06	-1.126165e-08	-4.767544e+01	-7.403462e+02
3.100000e-07	-6.585791e-06	-1.121243e-08	-4.707347e+01	-7.360186e+02
3.200000e-07	-6.499358e-06	-1.114558e-08	-4.645567e+01	-7.315686e+02
3.300000e-07	-6.410566e-06	-1.107936e-08	-4.582101e+01	-7.270050e+02
3.400000e-07	-6.319434e-06	-1.101933e-08	-4.516962e+01	-7.223304e+02
3.500000e-07	-6.226048e-06	-1.094605e-08	-4.450213e+01	-7.175402e+02
3.600000e-07	-6.130424e-06	-1.086537e-08	-4.381863e+01	-7.126228e+02
3.700000e-07	-6.032555e-06	-1.078583e-08	-4.311909e+01	-7.075611e+02
3.800000e-07	-5.932489e-06	-1.070435e-08	-4.240384e+01	-7.023348e+02
3.900000e-07	-5.830280e-06	-1.061674e-08	-4.167328e+01	-6.969226e+02
4.000000e-07	-5.725989e-06	-1.052883e-08	-4.092784e+01	-6.913053e+02
4.100000e-07	-5.619675e-06	-1.044395e-08	-4.016794e+01	-6.854686e+02
4.200000e-07	-5.511332e-06	-1.035451e-08	-3.939353e+01	-6.794045e+02
4.300000e-07	-5.401054e-06	-1.025135e-08	-3.860529e+01	-6.731124e+02
4.400000e-07	-5.288836e-06	-1.014830e-08	-3.780319e+01	-6.665988e+02
4.500000e-07	-5.174508e-06	-1.005521e-08	-3.698600e+01	-6.598751e+02
4.600000e-07	-5.058172e-06	-9.955958e-09	-3.615446e+01	-6.529559e+02
4.700000e-07	-4.939974e-06	-9.846612e-09	-3.530961e+01	-6.458553e+02
4.800000e-07	-4.819948e-06	-9.738600e-09	-3.445170e+01	-6.385841e+02
4.900000e-07	-4.698154e-06	-9.626502e-09	-3.358115e+01	-6.311469e+02
5.000000e-07	-4.574658e-06	-9.503431e-09	-3.269843e+01	-6.235404e+02
5.100000e-07	-4.449551e-06	-9.383211e-09	-3.180420e+01	-6.157527e+02
5.200000e-07	-4.322862e-06	-9.268828e-09	-3.089866e+01	-6.077640e+02
5.300000e-07	-4.194584e-06	-9.142393e-09	-2.998176e+01	-5.995488e+02
5.400000e-07	-4.064736e-06	-8.999945e-09	-2.905365e+01	-5.910789e+02
5.500000e-07	-3.933318e-06	-8.859671e-09	-2.811431e+01	-5.823267e+02
5.600000e-07	-3.800431e-06	-8.726435e-09	-2.716447e+01	-5.732687e+02
5.700000e-07	-3.666176e-06	-8.586672e-09	-2.620484e+01	-5.638883e+02
5.800000e-07	-3.530518e-06	-8.437867e-09	-2.523520e+01	-5.541775e+02
5.900000e-07	-3.393430e-06	-8.290359e-09	-2.425533e+01	-5.441370e+02
6.000000e-07	-3.254966e-06	-8.139909e-09	-2.326562e+01	-5.337745e+02
6.100000e-07	-3.115185e-06	-7.978611e-09	-2.226651e+01	-5.231026e+02
6.200000e-07	-2.974055e-06	-7.810430e-09	-2.125775e+01	-5.121344e+02
6.300000e-07	-2.831618e-06	-7.636255e-09	-2.023965e+01	-5.008797e+02
6.400000e-07	-2.688094e-06	-7.452428e-09	-1.921378e+01	-4.893413e+02
6.500000e-07	-2.543534e-06	-7.262348e-09	-1.818050e+01	-4.775117e+02
6.600000e-07	-2.398052e-06	-7.075258e-09	-1.714063e+01	-4.653723e+02
6.700000e-07	-2.251883e-06	-6.887739e-09	-1.609586e+01	-4.528934e+02
6.800000e-07	-2.105014e-06	-6.692659e-09	-1.504608e+01	-4.400367e+02
6.900000e-07	-1.957396e-06	-6.490772e-09	-1.399094e+01	-4.267589e+02
7.000000e-07	-1.809129e-06	-6.281278e-09	-1.293117e+01	-4.130167e+02
7.100000e-07	-1.660356e-06	-6.064265e-09	-1.186778e+01	-3.987715e+02
7.200000e-07	-1.511093e-06	-5.840729e-09	-1.080089e+01	-3.839935e+02
7.300000e-07	-1.361364e-06	-5.611092e-09	-9.730668e+00	-3.686646e+02
7.400000e-07	-1.211239e-06	-5.369695e-09	-8.657612e+00	-3.527785e+02
7.500000e-07	-1.060669e-06	-5.115411e-09	-7.581381e+00	-3.363390e+02
7.600000e-07	-9.096772e-07	-4.855204e-09	-6.502129e+00	-3.193555e+02
7.700000e-07	-7.583235e-07	-4.588815e-09	-5.420294e+00	-3.018364e+02
7.800000e-07	-6.065975e-07	-4.314498e-09	-4.335796e+00	-2.837816e+02
7.900000e-07	-4.546302e-07	-4.032663e-09	-3.249575e+00	-2.651752e+02
8.000000e-07	-3.025532e-07	-3.743443e-09	-2.162569e+00	-2.459792e+02
8.100000e-07	-1.503266e-07	-3.439433e-09	-1.074495e+00	-2.261298e+02
8.200000e-07	1.999393e-09	-3.116721e-09	1.429113e-02	-2.055369e+02
8.300000e-07	1.543579e-07	-2.781725e-09	1.103309e+00	-1.840886e+02
8.400000e-07	3.066688e-07	-2.436476e-09	2.191986e+00	-1.616588e+02
8.500000e-07	4.588734e-07	-2.076177e-09	3.279904e+00	-1.381192e+02
8.600000e-07	6.110122e-07	-1.698247e-09	4.367352e+00	-1.133538e+02
8.700000e-07	7.629883e-07	-1.302850e-09	5.453636e+00	-8.727491e+01
8.800000e-07	9.146818e-07	-8.906795e-10	6.537901e+00	-5.983817e+01
8.900000e-07	1.065978e-06	-4.611229e-10	7.619326e+00	-3.105594e+01
9.000000e-07	1.216810e-06	-1.056988e-11	8.697430e+00	-1.006244e+00
9.100000e-07	1.367121e-06	4.603684e-10	9.771816e+00	3.016331e+01
9.200000e-07	1.516934e-06	9.487814e-10	1.084264e+01	6.223777e+01
9.300000e-07	1.666287e-06	1.450759e-09	1.191018e+01	9.494314e+01
9.400000e-07	1.815137e-06	1.959405e-09	1.297411e+01	1.279604e+02
9.500000e-07	1.963392e-06	2.466981e-09	1.403380e+01	1.609437e+02
9.600000e-07	2.110933e-06	2.969148e-09	1.508838e+01	1.935415e+02
9.700000e-07	2.257705e-06	3.458936e-09	1.613747e+01	2.254181e+02
9.800000e-07	2.403651e-06	3.926546e-09	1.718066e+01	2.562738e+02
9.900000e-07	2.548696e-06	4.368442e-09	1.821740e+01	2.858615e+02
1.000000e-06	2.692758e-06	4.786730e-09	1.924712e+01	3.139991e+02
1.010000e-06	2.835770e-06	5.183755e-09	2.026933e+01	3.405749e+02
1.020000e-06	2.977642e-06	5.559916e-09	2.128339e+01	3.655477e+02
1.030000e-06	3.118293e-06	5.915594e-09	2.228872e+01	3.889405e+02
1.040000e-06	3.257735e-06	6.250570e-09	2.328542e+01	4.108301e+02
1.050000e-06	3.395936e-06	6.564403e-09	2.427324e+01	4.313323e+02
1.060000e-06	3.532796e-06	6.860695e-09	2.525148e+01	4.505861e+02
1.070000e-06	3.668230e-06	7.140866e-09	2.621953e+01	4.687382e+02
1.080000e-06	3.802297e-06	7.404858e-09	2.717780e+01	4.859290e+02
1.090000e-06	3.935095e-06	7.654531e-09	2.812700e+01	5.022815e+02
1.100000e-06	4.066493e-06	7.893178e-09	2.906621e+01	5.178943e+02
1.110000e-06	4.196414e-06	8.120710e-09	2.999485e+01	5.328392e+02
1.120000e-06	4.324856e-06	8.337585e-09	3.091291e+01	5.471618e+02
1.130000e-06	4.451733e-06	8.543918e-09	3.181979e+01	5.608858e+02
1.140000e-06	4.577129e-06	8.739125e-09	3.271609e+01	5.740199e+02
1.150000e-06	4.701037e-06	8.925722e-09	3.360175e+01	5.865641e+02
1.160000e-06	4.823269e-06	9.104959e-09	3.447544e+01	5.985179e+02
1.170000e-06	4.943731e-06	9.277502e-09	3.533647e+01	6.098852e+02
1.180000e-06	5.062367e-06	9.442046e-09	3.618444e+01	6.206784e+02
1.190000e-06	5.179139e-06	9.598056e-09	3.701910e+01	6.309204e+02
1.200000e-06	5.293939e-06	9.747242e-09	3.783966e+01	6.406433e+02
1.210000e-06	5.406663e-06	9.892225e-09	3.864538e+01	6.498863e+02
1.220000e-06	5.517391e-06	1.003100e-08	3.943684e+01	6.586918e+02
1.230000e-06	5.626243e-06	1.016190e-08	4.021488e+01	6.671016e+02
1.240000e-06	5.733138e-06	1.028508e-08	4.097893e+01	6.751527e+02
1.250000e-06	5.837901e-06	1.040202e-08	4.172776e+01	6.828746e+02
1.260000e-06	5.940479e-06	1.051468e-08	4.246096e+01	6.902881e+02
1.270000e-06	6.040911e-06	1.062290e-08	4.317882e+01	6.974049e+02
1.280000e-06	6.139046e-06	1.072612e-08	4.388026e+01	7.042295e+02
1.290000e-06	6.234788e-06	1.082434e-08	4.456459e+01	7.107616e+02
1.300000e-06	6.328323e-06	1.091710e-08	4.523316e+01	7.169994e+02
1.310000e-06	6.419666e-06	1.100728e-08	4.588605e+01	7.229422e+02
1.320000e-06	6.508692e-06	1.109521e-08	4.652239e+01	7.285935e+02
1.330000e-06	6.595340e-06	1.117655e-08	4.714172e+01	7.339620e+02
1.340000e-06	6.679714e-06	1.125115e-08	4.774481e+01	7.390623e+02
1.350000e-06	6.761768e-06	1.132350e-08	4.833130e+01	7.439138e+02
1.360000e-06	6.841287e-06	1.139617e-08	4.889969e+01	7.485384e+02
1.370000e-06	6.918299e-06	1.146793e-08	4.945015e+01	7.529584e+02
1.380000e-06	6.992673e-06	1.153556e-08	4.998176e+01	7.571934e+02
1.390000e-06	7.064372e-06	1.159811e-08	5.049424e+01	7.612577e+02
1.400000e-06	7.133650e-06	1.165756e-08	5.098942e+01	7.651591e+02
1.410000e-06	7.200425e-06	1.171412e-08	5.146671e+01	7.688976e+02
1.420000e-06	7.264513e-06	1.176693e-08	5.192479e+01	7.724664e+02
1.430000e-06	7.326093e-06	1.181488e-08	5.236495e+01	7.758534e+02
1.440000e-06	7.385241e-06	1.186024e-08	5.278772e+01	7.790434e+02
1.450000e-06	7.441804e-06	1.190426e-08	5.319202e+01	7.820216e+02
1.460000e-06	7.495652e-06	1.194645e-08	5.357691e+01	7.847759e+02
1.470000e-06	7.546493e-06	1.198542e-08	5.394031e+01	7.872995e+02
1.480000e-06	7.594287e-06	1.202057e-08	5.428193e+01	7.895925e+02
1.490000e-06	7.639348e-06	1.205363e-08	5.460401e+01	7.916624e+02
1.500000e-06	7.681734e-06	1.208347e-08	5.490698e+01	7.935233e+02
1.510000e-06	7.721308e-06	1.210936e-08	5.518985e+01	7.951943e+02
1.520000e-06	7.758197e-06	1.213203e-08	5.545352e+01	7.966968e+02
1.530000e-06	7.792397e-06	1.215372e-08	5.569797e+01	7.980524e+02
1.540000e-06	7.823767e-06	1.217420e-08	5.592219e+01	7.992797e+02
1.550000e-06	7.852433e-06	1.219331e-08	5.612709e+01	8.003922e+02
1.560000e-06	7.878318e-06	1.221069e-08	5.631211e+01	8.013972e+02
1.570000e-06	7.901264e-06	1.222487e-08	5.647612e+01	8.022954e+02
1.580000e-06	7.921439e-06	1.223654e-08	5.662033e+01	8.030813e+02
1.590000e-06	7.938811e-06	1.224541e-08	5.674450e+01	8.037452e+02
1.600000e-06	7.953155e-06	1.225250e-08	5.684703e+01	8.042748e+02
1.610000e-06	7.964379e-06	1.225952e-08	5.692725e+01	8.046580e+02
1.620000e-06	7.972527e-06	1.226532e-08	5.698549e+01	8.048851e+02
1.630000e-06	7.977833e-06	1.226836e-08	5.702342e+01	8.049503e+02
1.640000e-06	7.980363e-06	1.226838e-08	5.704150e+01	8.048528e+02
1.650000e-06	7.980053e-06	1.226498e-08	5.703928e+01	8.045974e+02
1.660000e-06	7.977064e-06	1.225698e-08	5.701792e+01	8.041934e+02
1.670000e-06	7.971442e-06	1.224861e-08	5.697773e+01	8.036535e+02
1.680000e-06	7.963090e-06	1.224072e-08	5.691804e+01	8.029921e+02
1.690000e-06	7.952036e-06	1.223023e-08	5.683902e+01	8.022235e+02
1.700000e-06	7.938205e-06	1.221809e-08	5.674016e+01	8.013599e+02
1.710000e-06	7.921715e-06	1.220234e-08	5.662230e+01	8.004109e+02
1.720000e-06	7.902901e-06	1.217846e-08	5.648782e+01	7.993818e+02
1.730000e-06	7.881769e-06	1.212774e-08	5.633677e+01	7.982744e+02
1.740000e-06	7.857715e-06	1.208535e-08	5.616484e+01	7.970872e+02
1.750000e-06	7.830159e-06	1.208494e-08	5.596788e+01	7.958163e+02
1.760000e-06	7.799111e-06	1.208294e-08	5.574596e+01	7.944565e+02
1.770000e-06	7.765164e-06	1.206188e-08	5.550331e+01	7.930020e+02
1.780000e-06	7.728858e-06	1.204867e-08	5.524381e+01	7.914478e+02
1.790000e-06	7.690291e-06	1.206217e-08	5.496814e+01	7.897894e+02
1.800000e-06	7.649644e-06	1.203042e-08	5.467761e+01	7.880230e+02
1.810000e-06	7.606747e-06	1.201221e-08	5.437099e+01	7.861449e+02
1.820000e-06	7.561206e-06	1.202492e-08	5.404548e+01	7.841506e+02
1.830000e-06	7.513017e-06	1.197390e-08	5.370103e+01	7.820345e+02
1.840000e-06	7.461973e-06	1.193319e-08	5.333619e+01	7.797887e+02
1.850000e-06	7.407931e-06	1.184766e-08	5.294991e+01	7.774035e+02
1.860000e-06	7.351054e-06	1.179977e-08	5.254337e+01	7.748670e+02
1.870000e-06	7.291475e-06	1.179957e-08	5.211752e+01	7.721666e+02
1.880000e-06	7.229325e-06	1.175691e-08	5.167328e+01	7.692901e+02
1.890000e-06	7.164420e-06	1.174181e-08	5.120936e+01	7.662271e+02
1.900000e-06	7.096724e-06	1.166709e-08	5.072549e+01	7.629706e+02
1.910000e-06	7.026249e-06	1.158493e-08	5.022175e+01	7.595184e+02
1.920000e-06	6.952990e-06	1.153873e-08	4.969811e+01	7.558735e+02
1.930000e-06	6.877119e-06	1.150315e-08	4.915580e+01	7.520444e+02
1.940000e-06	6.798530e-06	1.145815e-08	4.859407e+01	7.480439e+02
1.950000e-06	6.717285e-06	1.137359e-08	4.801336e+01	7.438875e+02
1.960000e-06	6.633597e-06	1.130598e-08	4.741517e+01	7.395914e+02
1.970000e-06	6.547453e-06	1.122507e-08	4.679944e+01	7.351699e+02
1.980000e-06	6.458814e-06	1.114570e-08	4.616588e+01	7.306333e+02
1.990000e-06	6.367902e-06	1.109269e-08	4.551606e+01	7.259856e+02
2.000000e-06	6.274884e-06	1.102957e-08	4.485119e+01	7.212241e+02
2.010000e-06	6.179592e-06	1.094418e-08	4.417007e+01	7.163389e+02
2.020000e-06	6.082058e-06	1.085121e-08	4.347293e+01	7.113141e+02
2.030000e-06	5.982414e-06	1.077057e-08	4.276069e+01	7.061300e+02
2.040000e-06	5.880646e-06	1.069149e-08	4.203329e+01	7.007651e+02
2.050000e-06	5.776711e-06	1.059914e-08	4.129038e+01	6.951997e+02
2.060000e-06	5.670754e-06	1.050664e-08	4.053303e+01	6.894178e+02
2.070000e-06	5.562912e-06	1.042821e-08	3.976221e+01	6.834099e+02
2.080000e-06	5.453095e-06	1.034142e-08	3.897726e+01	6.771735e+02
2.090000e-06	5.341273e-06	1.024303e-08	3.817799e+01	6.707133e+02
2.100000e-06	5.227455e-06	1.014552e-08	3.736445e+01	6.640399e+02
2.110000e-06	5.111645e-06	1.004244e-08	3.653667e+01	6.571671e+02
2.120000e-06	4.993834e-06	9.921767e-09	3.569459e+01	6.501097e+02
2.130000e-06	4.874094e-06	9.802739e-09	3.483872e+01	6.428795e+02
2.140000e-06	4.752595e-06	9.700410e-09	3.397028e+01	6.354828e+02
2.150000e-06	4.629438e-06	9.595487e-09	3.308998e+01	6.279184e+02
2.160000e-06	4.504569e-06	9.470059e-09	3.219746e+01	6.201765e+02
2.170000e-06	4.377978e-06	9.341004e-09	3.129261e+01	6.122392e+02
2.180000e-06	4.249717e-06	9.218595e-09	3.037584e+01	6.040823e+02
2.190000e-06	4.119949e-06	9.093335e-09	2.944829e+01	5.956777e+02
2.200000e-06	3.988747e-06	8.962600e-09	2.851050e+01	5.869975e+02
2.210000e-06	3.856068e-06	8.828500e-09	2.756214e+01	5.780168e+02
2.220000e-06	3.721957e-06	8.685482e-09	2.660355e+01	5.687171e+02
2.230000e-06	3.586374e-06	8.529042e-09	2.563444e+01	5.590882e+02
2.240000e-06	3.449464e-06	8.373130e-09	2.465584e+01	5.491286e+02
2.250000e-06	3.311336e-06	8.223551e-09	2.366855e+01	5.388446e+02
2.260000e-06	3.171876e-06	8.068868e-09	2.267172e+01	5.282477e+02
2.270000e-06	3.031084e-06	7.904738e-09	2.166538e+01	5.173514e+02
2.280000e-06	2.889082e-06	7.737029e-09	2.065038e+01	5.061668e+02
2.290000e-06	2.745969e-06	7.567507e-09	1.962745e+01	4.946985e+02
2.300000e-06	2.601843e-06	7.390608e-09	1.859728e+01	4.829421e+02
2.310000e-06	2.456841e-06	7.204926e-09	1.756084e+01	4.708815e+02
2.320000e-06	2.311052e-06	7.013064e-09	1.651878e+01	4.584898e+02
2.330000e-06	2.164523e-06	6.811457e-09	1.547143e+01	4.457304e+02
2.340000e-06	2.017254e-06	6.603805e-09	1.441879e+01	4.325611e+02
2.350000e-06	1.869204e-06	6.394670e-09	1.336057e+01	4.189379e+02
2.360000e-06	1.720439e-06	6.181738e-09	1.229724e+01	4.048206e+02
2.370000e-06	1.571170e-06	5.959747e-09	1.123030e+01	3.901770e+02
2.380000e-06	1.421520e-06	5.728976e-09	1.016065e+01	3.749858e+02
2.390000e-06	1.271433e-06	5.491755e-09	9.087864e+00	3.592380e+02
2.400000e-06	1.120874e-06	5.246826e-09	8.011708e+00	3.429351e+02
2.410000e-06	9.699440e-07	4.994359e-09	6.932900e+00	3.260857e+02
2.420000e-06	8.186763e-07	4.732704e-09	5.851679e+00	3.086990e+02
2.430000e-06	6.670112e-07	4.458303e-09	4.767617e+00	2.907779e+02
2.440000e-06	5.150745e-07	4.172347e-09	3.681614e+00	2.723110e+02
2.450000e-06	3.629756e-07	3.879822e-09	2.594453e+00	2.532663e+02
2.460000e-06	2.107602e-07	3.580426e-09	1.506457e+00	2.335867e+02
2.470000e-06	5.849954e-08	3.268559e-09	4.181391e-01	2.131884e+02
2.480000e-06	-9.382855e-08	2.939919e-09	-6.706614e-01	1.919644e+02
2.490000e-06	-2.461896e-07	2.597344e-09	-1.759697e+00	1.697911e+02
2.500000e-06	-3.984754e-07	2.241584e-09	-2.848195e+00	1.465396e+02
2.510000e-06	-5.506050e-07	1.867926e-09	-3.935577e+00	1.220893e+02
2.520000e-06	-7.025733e-07	1.477721e-09	-5.021806e+00	9.634384e+01
2.530000e-06	-8.543330e-07	1.070503e-09	-6.106544e+00	6.924681e+01
2.540000e-06	-1.005804e-06	6.412288e-10	-7.189215e+00	4.079530e+01
2.550000e-06	-1.156882e-06	1.913586e-10	-8.269084e+00	1.105036e+01
2.560000e-06	-1.307486e-06	-2.752751e-10	-9.345561e+00	-1.985785e+01
2.570000e-06	-1.457542e-06	-7.591470e-10	-1.041812e+01	-5.173066e+01
2.580000e-06	-1.607068e-06	-1.261981e-09	-1.148689e+01	-8.430775e+01
2.590000e-06	-1.756069e-06	-1.776620e-09	-1.255191e+01	-1.172798e+02
2.600000e-06	-1.904398e-06	-2.291180e-09	-1.361213e+01	-1.503057e+02
2.610000e-06	-2.051970e-06	-2.798426e-09	-1.466694e+01	-1.830333e+02
2.620000e-06	-2.198748e-06	-3.293659e-09	-1.571606e+01	-2.151211e+02
2.630000e-06	-2.344728e-06	-3.771987e-09	-1.675949e+01	-2.462584e+02
2.640000e-06	-2.489920e-06	-4.228377e-09	-1.779728e+01	-2.761839e+02
2.650000e-06	-2.634182e-06	-4.660820e-09	-1.882843e+01	-3.046983e+02
2.660000e-06	-2.777370e-06	-5.067099e-09	-1.985190e+01	-3.316721e+02
2.670000e-06	-2.919470e-06	-5.448142e-09	-2.086759e+01	-3.570468e+02
2.680000e-06	-3.060365e-06	-5.804606e-09	-2.187467e+01	-3.808303e+02
2.690000e-06	-3.199993e-06	-6.139704e-09	-2.287269e+01	-4.030872e+02
2.700000e-06	-3.338367e-06	-6.459826e-09	-2.386176e+01	-4.239248e+02
2.710000e-06	-3.475496e-06	-6.765806e-09	-2.484191e+01	-4.434779e+02
2.720000e-06	-3.611368e-06	-7.055194e-09	-2.581309e+01	-4.618929e+02
2.730000e-06	-3.745902e-06	-7.326029e-09	-2.677471e+01	-4.793127e+02
2.740000e-06	-3.879060e-06	-7.580969e-09	-2.772648e+01	-4.958654e+02
2.750000e-06	-4.010804e-06	-7.823737e-09	-2.866815e+01	-5.116564e+02
2.760000e-06	-4.141198e-06	-8.055921e-09	-2.960017e+01	-5.267640e+02
2.770000e-06	-4.270252e-06	-8.277819e-09	-3.052262e+01	-5.412402e+02
2.780000e-06	-4.397831e-06	-8.488597e-09	-3.143452e+01	-5.551136e+02
2.790000e-06	-4.523842e-06	-8.688179e-09	-3.233521e+01	-5.683959e+02
2.800000e-06	-4.648225e-06	-8.876805e-09	-3.322427e+01	-5.810888e+02
2.810000e-06	-4.770992e-06	-9.057446e-09	-3.410177e+01	-5.931911e+02
2.820000e-06	-4.892104e-06	-9.231929e-09	-3.496745e+01	-6.047052e+02
2.830000e-06	-5.011367e-06	-9.397479e-09	-3.581991e+01	-6.156412e+02
2.840000e-06	-5.128631e-06	-9.556470e-09	-3.665808e+01	-6.260194e+02
2.850000e-06	-5.243831e-06	-9.711533e-09	-3.748150e+01	-6.358696e+02
2.860000e-06	-5.356892e-06	-9.860619e-09	-3.828963e+01	-6.452296e+02
2.870000e-06	-5.467809e-06	-9.998597e-09	-3.908243e+01	-6.541415e+02
2.880000e-06	-5.576737e-06	-1.012620e-08	-3.986102e+01	-6.626475e+02
2.890000e-06	-5.683807e-06	-1.024930e-08	-4.062633e+01	-6.707862e+02
2.900000e-06	-5.788923e-06	-1.036846e-08	-4.137767e+01	-6.785891e+02
2.910000e-06	-5.891872e-06	-1.048209e-08	-4.211353e+01	-6.860792e+02
2.920000e-06	-5.992540e-06	-1.059036e-08	-4.283307e+01	-6.932705e+02
2.930000e-06	-6.091065e-06	-1.069541e-08	-4.353731e+01	-7.001691e+02
2.940000e-06	-6.187554e-06	-1.079725e-08	-4.422698e+01	-7.067755e+02
