# Temperatura_=_45.19
# Concentracion g/m^3_=_10000.0
# C_Vs_to_Am_M_A/Vsm_=_65563218390.804596
# pendiente_HvsI_1/m_=_3716.3
# ordenada_HvsI_A/m_=_1297.0
# frecuencia_Hz_=_302552.09576646565

Tiempo_(s)	Campo_(V.s)	Magnetizacion_(V.s)	Campo_(kA/m)	Magnetizacion_(A/m)
0.000000e+00	-7.876708e-06	-1.120232e-08	-5.685260e+01	-7.340034e+02
1.000000e-08	-7.873414e-06	-1.120099e-08	-5.682882e+01	-7.336602e+02
2.000000e-08	-7.867474e-06	-1.119735e-08	-5.678595e+01	-7.331920e+02
3.000000e-08	-7.858917e-06	-1.119241e-08	-5.672418e+01	-7.326145e+02
4.000000e-08	-7.847535e-06	-1.118656e-08	-5.664203e+01	-7.319456e+02
5.000000e-08	-7.833173e-06	-1.117760e-08	-5.653837e+01	-7.312031e+02
6.000000e-08	-7.815995e-06	-1.116563e-08	-5.641438e+01	-7.304027e+02
7.000000e-08	-7.796498e-06	-1.115317e-08	-5.627366e+01	-7.295564e+02
8.000000e-08	-7.774760e-06	-1.114095e-08	-5.611675e+01	-7.286709e+02
9.000000e-08	-7.750124e-06	-1.116282e-08	-5.593894e+01	-7.277476e+02
1.000000e-07	-7.722281e-06	-1.116186e-08	-5.573797e+01	-7.267821e+02
1.100000e-07	-7.691483e-06	-1.110733e-08	-5.551568e+01	-7.257658e+02
1.200000e-07	-7.657941e-06	-1.106957e-08	-5.527358e+01	-7.246860e+02
1.300000e-07	-7.621816e-06	-1.104224e-08	-5.501283e+01	-7.235286e+02
1.400000e-07	-7.583405e-06	-1.099904e-08	-5.473559e+01	-7.222784e+02
1.500000e-07	-7.542847e-06	-1.095098e-08	-5.444285e+01	-7.209213e+02
1.600000e-07	-7.499930e-06	-1.097026e-08	-5.413308e+01	-7.194446e+02
1.700000e-07	-7.454352e-06	-1.097611e-08	-5.380411e+01	-7.178383e+02
1.800000e-07	-7.406107e-06	-1.087615e-08	-5.345589e+01	-7.160946e+02
1.900000e-07	-7.355000e-06	-1.089190e-08	-5.308700e+01	-7.142083e+02
2.000000e-07	-7.300938e-06	-1.087247e-08	-5.269680e+01	-7.121762e+02
2.100000e-07	-7.244184e-06	-1.080400e-08	-5.228716e+01	-7.099966e+02
2.200000e-07	-7.184735e-06	-1.080743e-08	-5.185806e+01	-7.076692e+02
2.300000e-07	-7.122668e-06	-1.074233e-08	-5.141007e+01	-7.051945e+02
2.400000e-07	-7.057992e-06	-1.068805e-08	-5.094326e+01	-7.025739e+02
2.500000e-07	-6.990587e-06	-1.063295e-08	-5.045674e+01	-6.998094e+02
2.600000e-07	-6.920509e-06	-1.061856e-08	-4.995093e+01	-6.969039e+02
2.700000e-07	-6.847700e-06	-1.059259e-08	-4.942541e+01	-6.938611e+02
2.800000e-07	-6.772152e-06	-1.052327e-08	-4.888012e+01	-6.906855e+02
2.900000e-07	-6.693874e-06	-1.046136e-08	-4.831512e+01	-6.873819e+02
3.000000e-07	-6.612860e-06	-1.040787e-08	-4.773038e+01	-6.839556e+02
3.100000e-07	-6.529495e-06	-1.037431e-08	-4.712867e+01	-6.804108e+02
3.200000e-07	-6.444059e-06	-1.030982e-08	-4.651201e+01	-6.767507e+02
3.300000e-07	-6.356378e-06	-1.025237e-08	-4.587914e+01	-6.729759e+02
3.400000e-07	-6.266319e-06	-1.020704e-08	-4.522911e+01	-6.690847e+02
3.500000e-07	-6.173962e-06	-1.014090e-08	-4.456250e+01	-6.650717e+02
3.600000e-07	-6.079392e-06	-1.007887e-08	-4.387990e+01	-6.609289e+02
3.700000e-07	-5.982594e-06	-1.001283e-08	-4.318124e+01	-6.566454e+02
3.800000e-07	-5.883533e-06	-9.944693e-09	-4.246623e+01	-6.522088e+02
3.900000e-07	-5.782367e-06	-9.866995e-09	-4.173604e+01	-6.476066e+02
4.000000e-07	-5.679205e-06	-9.788809e-09	-4.099143e+01	-6.428268e+02
4.100000e-07	-5.574062e-06	-9.715169e-09	-4.023253e+01	-6.378605e+02
4.200000e-07	-5.466910e-06	-9.645695e-09	-3.945913e+01	-6.327016e+02
4.300000e-07	-5.357833e-06	-9.572124e-09	-3.867183e+01	-6.273486e+02
4.400000e-07	-5.246941e-06	-9.477541e-09	-3.787143e+01	-6.218036e+02
4.500000e-07	-5.134054e-06	-9.382591e-09	-3.705664e+01	-6.160719e+02
4.600000e-07	-5.019069e-06	-9.298163e-09	-3.622670e+01	-6.101610e+02
4.700000e-07	-4.902130e-06	-9.209736e-09	-3.538265e+01	-6.040782e+02
4.800000e-07	-4.783407e-06	-9.113762e-09	-3.452573e+01	-5.978290e+02
4.900000e-07	-4.662969e-06	-9.018863e-09	-3.365643e+01	-5.914154e+02
5.000000e-07	-4.540847e-06	-8.916103e-09	-3.277498e+01	-5.848342e+02
5.100000e-07	-4.417018e-06	-8.802742e-09	-3.188120e+01	-5.780766e+02
5.200000e-07	-4.291611e-06	-8.695763e-09	-3.097604e+01	-5.711282e+02
5.300000e-07	-4.164635e-06	-8.596655e-09	-3.005955e+01	-5.639701e+02
5.400000e-07	-4.036125e-06	-8.483877e-09	-2.913199e+01	-5.565804e+02
5.500000e-07	-3.906232e-06	-8.358229e-09	-2.819445e+01	-5.489366e+02
5.600000e-07	-3.774788e-06	-8.239081e-09	-2.724571e+01	-5.410180e+02
5.700000e-07	-3.641840e-06	-8.121569e-09	-2.628612e+01	-5.328078e+02
5.800000e-07	-3.507581e-06	-7.985556e-09	-2.531706e+01	-5.242943e+02
5.900000e-07	-3.371999e-06	-7.844216e-09	-2.433845e+01	-5.154723e+02
6.000000e-07	-3.235136e-06	-7.709738e-09	-2.335060e+01	-5.063420e+02
6.100000e-07	-3.097045e-06	-7.568251e-09	-2.235389e+01	-4.969077e+02
6.200000e-07	-2.957596e-06	-7.415523e-09	-2.134737e+01	-4.871756e+02
6.300000e-07	-2.816712e-06	-7.262924e-09	-2.033050e+01	-4.771513e+02
6.400000e-07	-2.674640e-06	-7.111092e-09	-1.930505e+01	-4.668361e+02
6.500000e-07	-2.531614e-06	-6.946081e-09	-1.827271e+01	-4.562253e+02
6.600000e-07	-2.387717e-06	-6.773038e-09	-1.723409e+01	-4.453061e+02
6.700000e-07	-2.242937e-06	-6.601364e-09	-1.618910e+01	-4.340573e+02
6.800000e-07	-2.097302e-06	-6.425193e-09	-1.513793e+01	-4.224500e+02
6.900000e-07	-1.950976e-06	-6.239755e-09	-1.408177e+01	-4.104500e+02
7.000000e-07	-1.804041e-06	-6.049179e-09	-1.302123e+01	-3.980210e+02
7.100000e-07	-1.656541e-06	-5.851346e-09	-1.195660e+01	-3.851278e+02
7.200000e-07	-1.508523e-06	-5.645885e-09	-1.088823e+01	-3.717401e+02
7.300000e-07	-1.360055e-06	-5.436073e-09	-9.816621e+00	-3.578354e+02
7.400000e-07	-1.211164e-06	-5.218856e-09	-8.741957e+00	-3.434004e+02
7.500000e-07	-1.061885e-06	-4.992523e-09	-7.664488e+00	-3.284305e+02
7.600000e-07	-9.123422e-07	-4.756403e-09	-6.585114e+00	-3.129279e+02
7.700000e-07	-7.625372e-07	-4.512669e-09	-5.503850e+00	-2.968976e+02
7.800000e-07	-6.124777e-07	-4.260161e-09	-4.420748e+00	-2.803420e+02
7.900000e-07	-4.622230e-07	-4.000813e-09	-3.336239e+00	-2.632551e+02
8.000000e-07	-3.117914e-07	-3.734848e-09	-2.250452e+00	-2.456171e+02
8.100000e-07	-1.611840e-07	-3.456586e-09	-1.163396e+00	-2.273897e+02
8.200000e-07	-1.046791e-08	-3.162569e-09	-7.555543e-02	-2.085143e+02
8.300000e-07	1.402581e-07	-2.856265e-09	1.012357e+00	-1.889128e+02
8.400000e-07	2.909383e-07	-2.542505e-09	2.099938e+00	-1.684913e+02
8.500000e-07	4.415237e-07	-2.215299e-09	3.186835e+00	-1.471478e+02
8.600000e-07	5.919887e-07	-1.871903e-09	4.272863e+00	-1.247823e+02
8.700000e-07	7.422891e-07	-1.513897e-09	5.357703e+00	-1.013088e+02
8.800000e-07	8.923844e-07	-1.142632e-09	6.441063e+00	-7.666834e+01
8.900000e-07	1.042243e-06	-7.548699e-10	7.522712e+00	-5.084095e+01
9.000000e-07	1.191765e-06	-3.476230e-10	8.601935e+00	-2.385597e+01
9.100000e-07	1.340865e-06	7.521920e-11	9.678114e+00	4.201411e+00
9.200000e-07	1.489545e-06	5.134050e-10	1.075125e+01	3.318793e+01
9.300000e-07	1.637763e-06	9.703647e-10	1.182107e+01	6.290495e+01
9.400000e-07	1.785396e-06	1.438712e-09	1.288665e+01	9.310624e+01
9.500000e-07	1.932354e-06	1.906951e-09	1.394737e+01	1.235102e+02
9.600000e-07	2.078627e-06	2.373390e-09	1.500314e+01	1.538154e+02
9.700000e-07	2.224120e-06	2.832695e-09	1.605328e+01	1.837184e+02
9.800000e-07	2.368673e-06	3.278257e-09	1.709663e+01	2.129318e+02
9.900000e-07	2.512325e-06	3.704574e-09	1.813349e+01	2.412006e+02
1.000000e-06	2.655114e-06	4.109545e-09	1.916411e+01	2.683162e+02
1.010000e-06	2.796884e-06	4.493173e-09	2.018738e+01	2.941255e+02
1.020000e-06	2.937541e-06	4.859090e-09	2.120262e+01	3.185361e+02
1.030000e-06	3.076982e-06	5.208913e-09	2.220908e+01	3.415150e+02
1.040000e-06	3.215071e-06	5.539244e-09	2.320577e+01	3.630839e+02
1.050000e-06	3.351844e-06	5.849188e-09	2.419298e+01	3.833090e+02
1.060000e-06	3.487357e-06	6.139372e-09	2.517109e+01	4.022895e+02
1.070000e-06	3.621590e-06	6.414352e-09	2.613995e+01	4.201436e+02
1.080000e-06	3.754565e-06	6.674454e-09	2.709975e+01	4.369955e+02
1.090000e-06	3.886203e-06	6.919362e-09	2.804988e+01	4.529634e+02
1.100000e-06	4.016343e-06	7.151442e-09	2.898921e+01	4.681504e+02
1.110000e-06	4.145000e-06	7.371467e-09	2.991783e+01	4.826387e+02
1.120000e-06	4.272268e-06	7.580031e-09	3.083643e+01	4.964872e+02
1.130000e-06	4.398134e-06	7.777490e-09	3.174491e+01	5.097330e+02
1.140000e-06	4.522549e-06	7.965149e-09	3.264291e+01	5.223944e+02
1.150000e-06	4.645313e-06	8.146234e-09	3.352899e+01	5.344773e+02
1.160000e-06	4.766363e-06	8.320160e-09	3.440271e+01	5.459809e+02
1.170000e-06	4.885767e-06	8.485358e-09	3.526454e+01	5.569047e+02
1.180000e-06	5.003417e-06	8.642224e-09	3.611372e+01	5.672532e+02
1.190000e-06	5.119150e-06	8.792843e-09	3.694906e+01	5.770395e+02
1.200000e-06	5.232833e-06	8.936527e-09	3.776960e+01	5.862866e+02
1.210000e-06	5.344587e-06	9.071524e-09	3.857622e+01	5.950273e+02
1.220000e-06	5.454486e-06	9.198115e-09	3.936945e+01	6.033013e+02
1.230000e-06	5.562505e-06	9.318039e-09	4.014911e+01	6.111526e+02
1.240000e-06	5.668464e-06	9.431501e-09	4.091391e+01	6.186247e+02
1.250000e-06	5.772313e-06	9.539115e-09	4.166347e+01	6.257576e+02
1.260000e-06	5.874124e-06	9.642875e-09	4.239832e+01	6.325846e+02
1.270000e-06	5.973756e-06	9.742217e-09	4.311745e+01	6.391301e+02
1.280000e-06	6.071099e-06	9.835945e-09	4.382005e+01	6.454100e+02
1.290000e-06	6.166145e-06	9.925160e-09	4.450607e+01	6.514319e+02
1.300000e-06	6.259019e-06	1.001088e-08	4.517642e+01	6.571973e+02
1.310000e-06	6.349693e-06	1.009368e-08	4.583089e+01	6.627046e+02
1.320000e-06	6.438063e-06	1.017392e-08	4.646873e+01	6.679515e+02
1.330000e-06	6.524097e-06	1.024874e-08	4.708971e+01	6.729377e+02
1.340000e-06	6.607838e-06	1.031897e-08	4.769413e+01	6.776666e+02
1.350000e-06	6.689239e-06	1.038717e-08	4.828167e+01	6.821465e+02
1.360000e-06	6.768176e-06	1.045358e-08	4.885142e+01	6.863899e+02
1.370000e-06	6.844631e-06	1.051745e-08	4.940326e+01	6.904125e+02
1.380000e-06	6.918517e-06	1.057755e-08	4.993655e+01	6.942315e+02
1.390000e-06	6.989804e-06	1.063291e-08	5.045109e+01	6.978632e+02
1.400000e-06	7.058621e-06	1.068485e-08	5.094780e+01	7.013210e+02
1.410000e-06	7.124930e-06	1.073473e-08	5.142640e+01	7.046137e+02
1.420000e-06	7.188701e-06	1.078180e-08	5.188669e+01	7.077449e+02
1.430000e-06	7.250075e-06	1.082552e-08	5.232967e+01	7.107129e+02
1.440000e-06	7.308947e-06	1.086597e-08	5.275460e+01	7.135116e+02
1.450000e-06	7.365196e-06	1.090315e-08	5.316060e+01	7.161323e+02
1.460000e-06	7.418747e-06	1.093794e-08	5.354712e+01	7.185660e+02
1.470000e-06	7.469265e-06	1.097121e-08	5.391175e+01	7.208056e+02
1.480000e-06	7.516797e-06	1.100121e-08	5.425482e+01	7.228475e+02
1.490000e-06	7.561710e-06	1.102805e-08	5.457900e+01	7.246938e+02
1.500000e-06	7.603978e-06	1.105280e-08	5.488408e+01	7.263518e+02
1.510000e-06	7.643466e-06	1.107685e-08	5.516910e+01	7.278345e+02
1.520000e-06	7.680254e-06	1.109900e-08	5.543463e+01	7.291587e+02
1.530000e-06	7.714322e-06	1.111788e-08	5.568052e+01	7.303432e+02
1.540000e-06	7.745606e-06	1.113531e-08	5.590633e+01	7.314067e+02
1.550000e-06	7.774237e-06	1.115099e-08	5.611298e+01	7.323655e+02
1.560000e-06	7.800080e-06	1.116467e-08	5.629951e+01	7.332313e+02
1.570000e-06	7.822966e-06	1.117590e-08	5.646469e+01	7.340101e+02
1.580000e-06	7.843145e-06	1.118584e-08	5.661035e+01	7.347018e+02
1.590000e-06	7.860623e-06	1.119450e-08	5.673649e+01	7.353008e+02
1.600000e-06	7.875087e-06	1.120120e-08	5.684089e+01	7.357971e+02
1.610000e-06	7.886420e-06	1.120731e-08	5.692269e+01	7.361784e+02
1.620000e-06	7.894706e-06	1.121316e-08	5.698251e+01	7.364323e+02
1.630000e-06	7.900179e-06	1.121759e-08	5.702201e+01	7.365487e+02
1.640000e-06	7.902880e-06	1.121937e-08	5.704150e+01	7.365215e+02
1.650000e-06	7.902740e-06	1.121881e-08	5.704049e+01	7.363501e+02
1.660000e-06	7.899975e-06	1.121076e-08	5.702053e+01	7.360395e+02
1.670000e-06	7.894615e-06	1.120097e-08	5.698185e+01	7.356004e+02
1.680000e-06	7.886592e-06	1.119306e-08	5.692394e+01	7.350479e+02
1.690000e-06	7.875963e-06	1.118414e-08	5.684722e+01	7.343994e+02
1.700000e-06	7.862525e-06	1.117532e-08	5.675023e+01	7.336729e+02
1.710000e-06	7.846392e-06	1.116740e-08	5.663378e+01	7.328850e+02
1.720000e-06	7.827933e-06	1.115544e-08	5.650055e+01	7.320486e+02
1.730000e-06	7.807182e-06	1.112623e-08	5.635077e+01	7.311718e+02
1.740000e-06	7.783648e-06	1.105299e-08	5.618090e+01	7.302574e+02
1.750000e-06	7.756699e-06	1.105088e-08	5.598639e+01	7.293024e+02
1.760000e-06	7.726179e-06	1.107071e-08	5.576611e+01	7.282991e+02
1.770000e-06	7.692673e-06	1.104752e-08	5.552427e+01	7.272358e+02
1.780000e-06	7.656880e-06	1.104357e-08	5.526592e+01	7.260984e+02
1.790000e-06	7.618831e-06	1.108777e-08	5.499129e+01	7.248721e+02
1.800000e-06	7.578694e-06	1.105986e-08	5.470159e+01	7.235422e+02
1.810000e-06	7.536398e-06	1.097794e-08	5.439630e+01	7.220958e+02
1.820000e-06	7.491500e-06	1.103313e-08	5.407224e+01	7.205220e+02
1.830000e-06	7.444001e-06	1.096756e-08	5.372940e+01	7.188125e+02
1.840000e-06	7.393722e-06	1.095131e-08	5.336649e+01	7.169615e+02
1.850000e-06	7.340483e-06	1.093936e-08	5.298223e+01	7.149652e+02
1.860000e-06	7.284443e-06	1.083834e-08	5.257774e+01	7.128218e+02
1.870000e-06	7.225725e-06	1.085072e-08	5.215392e+01	7.105306e+02
1.880000e-06	7.164425e-06	1.077765e-08	5.171147e+01	7.080920e+02
1.890000e-06	7.100367e-06	1.078431e-08	5.124911e+01	7.055070e+02
1.900000e-06	7.033520e-06	1.075055e-08	5.076662e+01	7.027775e+02
1.910000e-06	6.963977e-06	1.064309e-08	5.026468e+01	6.999062e+02
1.920000e-06	6.891697e-06	1.062762e-08	4.974297e+01	6.968966e+02
1.930000e-06	6.816803e-06	1.056499e-08	4.920240e+01	6.937529e+02
1.940000e-06	6.739172e-06	1.056588e-08	4.864207e+01	6.904802e+02
1.950000e-06	6.658865e-06	1.051112e-08	4.806244e+01	6.870833e+02
1.960000e-06	6.576158e-06	1.044613e-08	4.746547e+01	6.835671e+02
1.970000e-06	6.491059e-06	1.038568e-08	4.685124e+01	6.799349e+02
1.980000e-06	6.403502e-06	1.028240e-08	4.621927e+01	6.761881e+02
1.990000e-06	6.313615e-06	1.024697e-08	4.557049e+01	6.723256e+02
2.000000e-06	6.221646e-06	1.018824e-08	4.490667e+01	6.683430e+02
2.010000e-06	6.127413e-06	1.014949e-08	4.422651e+01	6.642328e+02
2.020000e-06	6.030883e-06	1.006813e-08	4.352978e+01	6.599849e+02
2.030000e-06	5.932267e-06	9.992295e-09	4.281798e+01	6.555871e+02
2.040000e-06	5.831639e-06	9.925221e-09	4.209167e+01	6.510266e+02
2.050000e-06	5.728917e-06	9.855726e-09	4.135024e+01	6.462915e+02
2.060000e-06	5.624138e-06	9.788586e-09	4.059397e+01	6.413718e+02
2.070000e-06	5.517480e-06	9.691303e-09	3.982413e+01	6.362606e+02
2.080000e-06	5.408945e-06	9.618667e-09	3.904074e+01	6.309554e+02
2.090000e-06	5.298464e-06	9.534641e-09	3.824332e+01	6.254572e+02
2.100000e-06	5.185988e-06	9.455895e-09	3.743148e+01	6.197709e+02
2.110000e-06	5.071565e-06	9.374473e-09	3.660560e+01	6.139033e+02
2.120000e-06	4.955187e-06	9.287562e-09	3.576560e+01	6.078621e+02
2.130000e-06	4.836873e-06	9.174606e-09	3.491164e+01	6.016534e+02
2.140000e-06	4.716649e-06	9.068515e-09	3.404388e+01	5.952803e+02
2.150000e-06	4.594642e-06	8.981253e-09	3.316326e+01	5.887408e+02
2.160000e-06	4.471013e-06	8.892616e-09	3.227093e+01	5.820277e+02
2.170000e-06	4.345844e-06	8.785385e-09	3.136748e+01	5.751279e+02
2.180000e-06	4.219047e-06	8.663680e-09	3.045228e+01	5.680235e+02
2.190000e-06	4.090579e-06	8.551924e-09	2.952503e+01	5.606931e+02
2.200000e-06	3.960666e-06	8.433783e-09	2.858734e+01	5.531141e+02
2.210000e-06	3.829311e-06	8.318144e-09	2.763925e+01	5.452653e+02
2.220000e-06	3.696505e-06	8.202507e-09	2.668068e+01	5.371285e+02
2.230000e-06	3.562351e-06	8.077220e-09	2.571238e+01	5.286909e+02
2.240000e-06	3.426822e-06	7.934115e-09	2.473415e+01	5.199455e+02
2.250000e-06	3.289935e-06	7.794044e-09	2.374613e+01	5.108912e+02
2.260000e-06	3.151862e-06	7.660586e-09	2.274955e+01	5.015315e+02
2.270000e-06	3.012587e-06	7.521724e-09	2.174429e+01	4.918726e+02
2.280000e-06	2.872086e-06	7.366860e-09	2.073017e+01	4.819203e+02
2.290000e-06	2.730502e-06	7.208081e-09	1.970825e+01	4.716773e+02
2.300000e-06	2.587897e-06	7.049205e-09	1.867895e+01	4.611405e+02
2.310000e-06	2.444317e-06	6.884984e-09	1.764262e+01	4.502994e+02
2.320000e-06	2.299851e-06	6.717657e-09	1.659989e+01	4.391346e+02
2.330000e-06	2.154624e-06	6.539597e-09	1.555167e+01	4.276192e+02
2.340000e-06	2.008742e-06	6.350361e-09	1.449872e+01	4.157201e+02
2.350000e-06	1.862222e-06	6.157657e-09	1.344117e+01	4.034010e+02
2.360000e-06	1.715035e-06	5.967631e-09	1.237880e+01	3.906262e+02
2.370000e-06	1.567278e-06	5.772313e-09	1.131232e+01	3.773638e+02
2.380000e-06	1.419024e-06	5.564270e-09	1.024225e+01	3.635893e+02
2.390000e-06	1.270266e-06	5.343242e-09	9.168544e+00	3.492869e+02
2.400000e-06	1.121125e-06	5.113207e-09	8.092069e+00	3.344500e+02
2.410000e-06	9.716981e-07	4.878048e-09	7.013534e+00	3.190794e+02
2.420000e-06	8.220136e-07	4.639868e-09	5.933139e+00	3.031798e+02
2.430000e-06	6.720782e-07	4.394563e-09	4.850934e+00	2.867549e+02
2.440000e-06	5.219020e-07	4.135869e-09	3.766991e+00	2.698014e+02
2.450000e-06	3.715602e-07	3.865711e-09	2.681852e+00	2.523032e+02
2.460000e-06	2.211095e-07	3.588596e-09	1.595927e+00	2.342271e+02
2.470000e-06	7.053431e-08	3.303276e-09	5.091034e-01	2.155196e+02
2.480000e-06	-8.016043e-08	3.005847e-09	-5.785829e-01	1.961072e+02
2.490000e-06	-2.308439e-07	2.695228e-09	-1.666188e+00	1.758993e+02
2.500000e-06	-3.814214e-07	2.370388e-09	-2.753028e+00	1.547953e+02
2.510000e-06	-5.319014e-07	2.031613e-09	-3.839164e+00	1.326934e+02
2.520000e-06	-6.822614e-07	1.678615e-09	-4.924434e+00	1.095029e+02
2.530000e-06	-8.324352e-07	1.310573e-09	-6.008361e+00	8.515706e+01
2.540000e-06	-9.823371e-07	9.263108e-10	-7.090325e+00	5.962498e+01
2.550000e-06	-1.131913e-06	5.228291e-10	-8.169935e+00	3.292294e+01
2.560000e-06	-1.281103e-06	1.040727e-10	-9.246759e+00	5.121757e+00
2.570000e-06	-1.429787e-06	-3.295441e-10	-1.031994e+01	-2.364977e+01
2.580000e-06	-1.577947e-06	-7.809333e-10	-1.138933e+01	-5.320630e+01
2.590000e-06	-1.725596e-06	-1.246099e-09	-1.245503e+01	-8.331252e+01
2.600000e-06	-1.872662e-06	-1.717796e-09	-1.351652e+01	-1.136943e+02
2.610000e-06	-2.019049e-06	-2.188281e-09	-1.457312e+01	-1.440536e+02
2.620000e-06	-2.164671e-06	-2.653292e-09	-1.562419e+01	-1.740858e+02
2.630000e-06	-2.309529e-06	-3.104943e-09	-1.666975e+01	-2.034978e+02
2.640000e-06	-2.453499e-06	-3.538055e-09	-1.770889e+01	-2.320250e+02
2.650000e-06	-2.596368e-06	-3.954156e-09	-1.874010e+01	-2.594462e+02
2.660000e-06	-2.738125e-06	-4.350721e-09	-1.976327e+01	-2.855939e+02
2.670000e-06	-2.878742e-06	-4.724243e-09	-2.077822e+01	-3.103603e+02
2.680000e-06	-3.018238e-06	-5.073813e-09	-2.178508e+01	-3.336979e+02
2.690000e-06	-3.156596e-06	-5.404007e-09	-2.278372e+01	-3.556153e+02
2.700000e-06	-3.293798e-06	-5.719218e-09	-2.377401e+01	-3.761688e+02
2.710000e-06	-3.429807e-06	-6.017709e-09	-2.475570e+01	-3.954506e+02
2.720000e-06	-3.564472e-06	-6.298474e-09	-2.572768e+01	-4.135755e+02
2.730000e-06	-3.697754e-06	-6.561385e-09	-2.668969e+01	-4.306672e+02
2.740000e-06	-3.829752e-06	-6.809658e-09	-2.764243e+01	-4.468464e+02
2.750000e-06	-3.960437e-06	-7.048019e-09	-2.858569e+01	-4.622208e+02
2.760000e-06	-4.089776e-06	-7.277923e-09	-2.951923e+01	-4.768780e+02
2.770000e-06	-4.217725e-06	-7.497500e-09	-3.044274e+01	-4.908830e+02
2.780000e-06	-4.344088e-06	-7.702977e-09	-3.135481e+01	-5.042778e+02
2.790000e-06	-4.468970e-06	-7.896019e-09	-3.225619e+01	-5.170851e+02
2.800000e-06	-4.592414e-06	-8.077972e-09	-3.314718e+01	-5.293133e+02
2.810000e-06	-4.714213e-06	-8.249226e-09	-3.402630e+01	-5.409626e+02
2.820000e-06	-4.834245e-06	-8.413320e-09	-3.489267e+01	-5.520319e+02
2.830000e-06	-4.952374e-06	-8.571605e-09	-3.574531e+01	-5.625242e+02
2.840000e-06	-5.068533e-06	-8.724767e-09	-3.658371e+01	-5.724500e+02
2.850000e-06	-5.182628e-06	-8.872485e-09	-3.740723e+01	-5.818299e+02
2.860000e-06	-5.294538e-06	-9.013555e-09	-3.821498e+01	-5.906944e+02
2.870000e-06	-5.404484e-06	-9.145548e-09	-3.900855e+01	-5.990818e+02
2.880000e-06	-5.512612e-06	-9.267812e-09	-3.978900e+01	-6.070353e+02
2.890000e-06	-5.618844e-06	-9.383848e-09	-4.055576e+01	-6.145990e+02
2.900000e-06	-5.723068e-06	-9.494471e-09	-4.130803e+01	-6.218141e+02
2.910000e-06	-5.825099e-06	-9.599274e-09	-4.204447e+01	-6.287156e+02
2.920000e-06	-5.924982e-06	-9.698777e-09	-4.276541e+01	-6.353304e+02
2.930000e-06	-6.022817e-06	-9.794911e-09	-4.347156e+01	-6.416764e+02
2.940000e-06	-6.118472e-06	-9.888068e-09	-4.416198e+01	-6.477632e+02
