# Temperatura_=_72.22
# Concentracion g/m^3_=_10000.0
# C_Vs_to_Am_M_A/Vsm_=_65563218390.804596
# pendiente_HvsI_1/m_=_3716.3
# ordenada_HvsI_A/m_=_1297.0
# frecuencia_Hz_=_302551.89931991993

Tiempo_(s)	Campo_(V.s)	Magnetizacion_(V.s)	Campo_(kA/m)	Magnetizacion_(A/m)
0.000000e+00	-7.940630e-06	-1.241535e-08	-5.684338e+01	-8.138341e+02
1.000000e-08	-7.936941e-06	-1.240949e-08	-5.681697e+01	-8.133991e+02
2.000000e-08	-7.930696e-06	-1.240309e-08	-5.677227e+01	-8.128334e+02
3.000000e-08	-7.921759e-06	-1.239610e-08	-5.670830e+01	-8.121503e+02
4.000000e-08	-7.909960e-06	-1.238581e-08	-5.662383e+01	-8.113621e+02
5.000000e-08	-7.895265e-06	-1.237320e-08	-5.651863e+01	-8.104786e+02
6.000000e-08	-7.877784e-06	-1.236175e-08	-5.639350e+01	-8.095064e+02
7.000000e-08	-7.857933e-06	-1.234690e-08	-5.625139e+01	-8.084485e+02
8.000000e-08	-7.835717e-06	-1.235125e-08	-5.609236e+01	-8.073046e+02
9.000000e-08	-7.810557e-06	-1.236544e-08	-5.591225e+01	-8.060716e+02
1.000000e-07	-7.782198e-06	-1.232278e-08	-5.570924e+01	-8.047452e+02
1.100000e-07	-7.750920e-06	-1.226907e-08	-5.548534e+01	-8.033201e+02
1.200000e-07	-7.716849e-06	-1.223734e-08	-5.524144e+01	-8.017917e+02
1.300000e-07	-7.680158e-06	-1.221231e-08	-5.497879e+01	-8.001558e+02
1.400000e-07	-7.641193e-06	-1.217152e-08	-5.469985e+01	-7.984094e+02
1.500000e-07	-7.600035e-06	-1.211104e-08	-5.440522e+01	-7.965495e+02
1.600000e-07	-7.556491e-06	-1.210624e-08	-5.409351e+01	-7.945731e+02
1.700000e-07	-7.510288e-06	-1.205250e-08	-5.376276e+01	-7.924760e+02
1.800000e-07	-7.461341e-06	-1.200275e-08	-5.341237e+01	-7.902521e+02
1.900000e-07	-7.409498e-06	-1.202748e-08	-5.304125e+01	-7.878928e+02
2.000000e-07	-7.354659e-06	-1.197713e-08	-5.264868e+01	-7.853873e+02
2.100000e-07	-7.297023e-06	-1.194085e-08	-5.223609e+01	-7.827229e+02
2.200000e-07	-7.236781e-06	-1.190178e-08	-5.180485e+01	-7.798865e+02
2.300000e-07	-7.174012e-06	-1.183307e-08	-5.135551e+01	-7.768655e+02
2.400000e-07	-7.108538e-06	-1.177029e-08	-5.088681e+01	-7.736500e+02
2.500000e-07	-7.040332e-06	-1.171095e-08	-5.039856e+01	-7.702339e+02
2.600000e-07	-6.969405e-06	-1.166965e-08	-4.989082e+01	-7.666164e+02
2.700000e-07	-6.895693e-06	-1.160678e-08	-4.936315e+01	-7.628022e+02
2.800000e-07	-6.819245e-06	-1.154913e-08	-4.881590e+01	-7.588013e+02
2.900000e-07	-6.740002e-06	-1.148113e-08	-4.824863e+01	-7.546277e+02
3.000000e-07	-6.658168e-06	-1.142664e-08	-4.766282e+01	-7.502977e+02
3.100000e-07	-6.574043e-06	-1.136892e-08	-4.706060e+01	-7.458276e+02
3.200000e-07	-6.487647e-06	-1.128401e-08	-4.644213e+01	-7.412308e+02
3.300000e-07	-6.398901e-06	-1.122465e-08	-4.580684e+01	-7.365162e+02
3.400000e-07	-6.307874e-06	-1.116526e-08	-4.515522e+01	-7.316865e+02
3.500000e-07	-6.214637e-06	-1.108909e-08	-4.448778e+01	-7.267370e+02
3.600000e-07	-6.119099e-06	-1.100423e-08	-4.380387e+01	-7.216566e+02
3.700000e-07	-6.021248e-06	-1.092731e-08	-4.310340e+01	-7.164285e+02
3.800000e-07	-5.921193e-06	-1.084053e-08	-4.238715e+01	-7.110331e+02
3.900000e-07	-5.819071e-06	-1.074200e-08	-4.165610e+01	-7.054500e+02
4.000000e-07	-5.714890e-06	-1.065440e-08	-4.091032e+01	-6.996611e+02
4.100000e-07	-5.608701e-06	-1.056943e-08	-4.015016e+01	-6.936533e+02
4.200000e-07	-5.500553e-06	-1.048023e-08	-3.937598e+01	-6.874196e+02
4.300000e-07	-5.390425e-06	-1.037369e-08	-3.858762e+01	-6.809603e+02
4.400000e-07	-5.278330e-06	-1.027329e-08	-3.778518e+01	-6.742820e+02
4.500000e-07	-5.164208e-06	-1.017645e-08	-3.696824e+01	-6.673961e+02
4.600000e-07	-5.048094e-06	-1.006849e-08	-3.613702e+01	-6.603163e+02
4.700000e-07	-4.930079e-06	-9.954990e-09	-3.529221e+01	-6.530554e+02
4.800000e-07	-4.810211e-06	-9.848534e-09	-3.443413e+01	-6.456224e+02
4.900000e-07	-4.688608e-06	-9.737741e-09	-3.356363e+01	-6.380197e+02
5.000000e-07	-4.565336e-06	-9.609830e-09	-3.268118e+01	-6.302419e+02
5.100000e-07	-4.440355e-06	-9.481257e-09	-3.178650e+01	-6.222752e+02
5.200000e-07	-4.313749e-06	-9.354149e-09	-3.088018e+01	-6.140984e+02
5.300000e-07	-4.185555e-06	-9.220933e-09	-2.996250e+01	-6.056852e+02
5.400000e-07	-4.055838e-06	-9.080938e-09	-2.903391e+01	-5.970075e+02
5.500000e-07	-3.924608e-06	-8.946869e-09	-2.809450e+01	-5.880385e+02
5.600000e-07	-3.791849e-06	-8.814801e-09	-2.714414e+01	-5.787568e+02
5.700000e-07	-3.657746e-06	-8.672344e-09	-2.618415e+01	-5.691479e+02
5.800000e-07	-3.522261e-06	-8.517368e-09	-2.521428e+01	-5.592067e+02
5.900000e-07	-3.385344e-06	-8.361185e-09	-2.423415e+01	-5.489366e+02
6.000000e-07	-3.247062e-06	-8.203793e-09	-2.324425e+01	-5.383480e+02
6.100000e-07	-3.107475e-06	-8.035113e-09	-2.224501e+01	-5.274553e+02
6.200000e-07	-2.966560e-06	-7.862241e-09	-2.123627e+01	-5.162730e+02
6.300000e-07	-2.824321e-06	-7.686012e-09	-2.021804e+01	-5.048112e+02
6.400000e-07	-2.680949e-06	-7.503380e-09	-1.919170e+01	-4.930720e+02
6.500000e-07	-2.536539e-06	-7.314391e-09	-1.815794e+01	-4.810467e+02
6.600000e-07	-2.391260e-06	-7.124082e-09	-1.711795e+01	-4.687146e+02
6.700000e-07	-2.245292e-06	-6.932525e-09	-1.607303e+01	-4.560439e+02
6.800000e-07	-2.098588e-06	-6.734827e-09	-1.502284e+01	-4.429938e+02
6.900000e-07	-1.951151e-06	-6.531875e-09	-1.396741e+01	-4.295194e+02
7.000000e-07	-1.803056e-06	-6.318882e-09	-1.290726e+01	-4.155756e+02
7.100000e-07	-1.654383e-06	-6.095950e-09	-1.184298e+01	-4.011231e+02
7.200000e-07	-1.505235e-06	-5.865491e-09	-1.077530e+01	-3.861321e+02
7.300000e-07	-1.355658e-06	-5.629511e-09	-9.704541e+00	-3.705849e+02
7.400000e-07	-1.205686e-06	-5.384219e-09	-8.630965e+00	-3.544762e+02
7.500000e-07	-1.055336e-06	-5.130581e-09	-7.554671e+00	-3.378107e+02
7.600000e-07	-9.045912e-07	-4.873636e-09	-6.475560e+00	-3.205988e+02
7.700000e-07	-7.535025e-07	-4.608429e-09	-5.393984e+00	-3.028491e+02
7.800000e-07	-6.021843e-07	-4.331023e-09	-4.310765e+00	-2.845615e+02
7.900000e-07	-4.506032e-07	-4.042237e-09	-3.225665e+00	-2.657192e+02
8.000000e-07	-2.987183e-07	-3.745808e-09	-2.138389e+00	-2.462822e+02
8.100000e-07	-1.467535e-07	-3.435857e-09	-1.050542e+00	-2.261842e+02
8.200000e-07	5.234378e-09	-3.108993e-09	3.747055e-02	-2.053327e+02
8.300000e-07	1.573252e-07	-2.768915e-09	1.126220e+00	-1.836126e+02
8.400000e-07	3.094120e-07	-2.418192e-09	2.214941e+00	-1.608953e+02
8.500000e-07	4.614266e-07	-2.054275e-09	3.303144e+00	-1.370507e+02
8.600000e-07	6.132504e-07	-1.673354e-09	4.389983e+00	-1.119620e+02
8.700000e-07	7.648269e-07	-1.274604e-09	5.475050e+00	-8.554204e+01
8.800000e-07	9.161672e-07	-8.582484e-10	6.558427e+00	-5.774835e+01
8.900000e-07	1.067198e-06	-4.230517e-10	7.639585e+00	-2.859656e+01
9.000000e-07	1.217847e-06	3.471104e-11	8.718014e+00	1.830788e+00
9.100000e-07	1.368043e-06	5.146039e-10	9.793205e+00	3.338071e+01
9.200000e-07	1.517711e-06	1.012794e-09	1.086461e+01	6.583231e+01
9.300000e-07	1.666856e-06	1.522107e-09	1.193227e+01	9.890565e+01
9.400000e-07	1.815418e-06	2.036471e-09	1.299575e+01	1.322760e+02
9.500000e-07	1.963342e-06	2.548383e-09	1.405468e+01	1.655928e+02
9.600000e-07	2.110664e-06	3.052066e-09	1.510929e+01	1.985006e+02
9.700000e-07	2.257282e-06	3.543212e-09	1.615886e+01	2.306610e+02
9.800000e-07	2.403047e-06	4.013900e-09	1.720233e+01	2.617733e+02
9.900000e-07	2.547905e-06	4.461232e-09	1.823930e+01	2.915907e+02
1.000000e-06	2.691812e-06	4.883830e-09	1.926947e+01	3.199321e+02
1.010000e-06	2.834630e-06	5.283425e-09	2.029184e+01	3.466883e+02
1.020000e-06	2.976303e-06	5.662287e-09	2.130601e+01	3.718209e+02
1.030000e-06	3.116768e-06	6.020233e-09	2.231153e+01	3.953565e+02
1.040000e-06	3.255942e-06	6.356709e-09	2.330782e+01	4.173754e+02
1.050000e-06	3.393809e-06	6.672265e-09	2.429475e+01	4.379970e+02
1.060000e-06	3.530353e-06	6.970098e-09	2.527220e+01	4.573638e+02
1.070000e-06	3.665518e-06	7.252404e-09	2.623979e+01	4.756255e+02
1.080000e-06	3.799372e-06	7.518676e-09	2.719799e+01	4.929252e+02
1.090000e-06	3.931961e-06	7.769087e-09	2.814713e+01	5.093881e+02
1.100000e-06	4.063181e-06	8.009319e-09	2.908648e+01	5.251150e+02
1.110000e-06	4.192949e-06	8.241013e-09	3.001543e+01	5.401789e+02
1.120000e-06	4.321137e-06	8.462322e-09	3.093307e+01	5.546265e+02
1.130000e-06	4.447771e-06	8.671204e-09	3.183958e+01	5.684823e+02
1.140000e-06	4.572997e-06	8.868152e-09	3.273602e+01	5.817549e+02
1.150000e-06	4.696670e-06	9.055189e-09	3.362134e+01	5.944442e+02
1.160000e-06	4.818643e-06	9.234536e-09	3.449449e+01	6.065487e+02
1.170000e-06	4.938885e-06	9.407842e-09	3.535525e+01	6.180711e+02
1.180000e-06	5.057334e-06	9.573902e-09	3.620317e+01	6.290223e+02
1.190000e-06	5.173921e-06	9.733608e-09	3.703777e+01	6.394231e+02
1.200000e-06	5.288486e-06	9.887263e-09	3.785788e+01	6.493035e+02
1.210000e-06	5.400951e-06	1.003566e-08	3.866297e+01	6.587005e+02
1.220000e-06	5.511442e-06	1.017826e-08	3.945392e+01	6.676548e+02
1.230000e-06	5.620115e-06	1.031259e-08	4.023186e+01	6.762064e+02
1.240000e-06	5.726824e-06	1.043784e-08	4.099575e+01	6.843913e+02
1.250000e-06	5.831296e-06	1.055624e-08	4.174362e+01	6.922384e+02
1.260000e-06	5.933605e-06	1.067089e-08	4.247600e+01	6.997688e+02
1.270000e-06	6.033838e-06	1.078136e-08	4.319352e+01	7.069949e+02
1.280000e-06	6.131758e-06	1.088625e-08	4.389448e+01	7.139224e+02
1.290000e-06	6.227264e-06	1.098550e-08	4.457817e+01	7.205526e+02
1.300000e-06	6.320573e-06	1.107891e-08	4.524613e+01	7.268854e+02
1.310000e-06	6.411801e-06	1.116952e-08	4.589919e+01	7.329217e+02
1.320000e-06	6.500671e-06	1.125778e-08	4.653537e+01	7.386662e+02
1.330000e-06	6.587136e-06	1.134163e-08	4.715433e+01	7.441288e+02
1.340000e-06	6.671378e-06	1.142151e-08	4.775738e+01	7.493243e+02
1.350000e-06	6.753267e-06	1.149697e-08	4.834359e+01	7.542720e+02
1.360000e-06	6.832627e-06	1.156961e-08	4.891169e+01	7.589932e+02
1.370000e-06	6.909445e-06	1.164006e-08	4.946160e+01	7.635093e+02
1.380000e-06	6.983638e-06	1.170705e-08	4.999271e+01	7.678387e+02
1.390000e-06	7.055234e-06	1.177041e-08	5.050523e+01	7.719949e+02
1.400000e-06	7.124406e-06	1.183108e-08	5.100040e+01	7.759846e+02
1.410000e-06	7.191026e-06	1.189089e-08	5.147731e+01	7.798072e+02
1.420000e-06	7.255003e-06	1.194816e-08	5.193529e+01	7.834559e+02
1.430000e-06	7.316533e-06	1.199918e-08	5.237576e+01	7.869187e+02
1.440000e-06	7.375581e-06	1.204651e-08	5.279845e+01	7.901812e+02
1.450000e-06	7.431986e-06	1.209140e-08	5.320223e+01	7.932292e+02
1.460000e-06	7.485703e-06	1.213252e-08	5.358677e+01	7.960514e+02
1.470000e-06	7.536358e-06	1.216931e-08	5.394938e+01	7.986419e+02
1.480000e-06	7.583933e-06	1.220241e-08	5.428995e+01	8.010010e+02
1.490000e-06	7.628892e-06	1.223489e-08	5.461180e+01	8.031363e+02
1.500000e-06	7.671216e-06	1.226663e-08	5.491477e+01	8.050613e+02
1.510000e-06	7.710714e-06	1.229574e-08	5.519752e+01	8.067942e+02
1.520000e-06	7.747523e-06	1.232213e-08	5.546102e+01	8.083552e+02
1.530000e-06	7.781604e-06	1.234625e-08	5.570499e+01	8.097644e+02
1.540000e-06	7.812868e-06	1.236789e-08	5.592880e+01	8.110388e+02
1.550000e-06	7.841454e-06	1.238677e-08	5.613343e+01	8.121910e+02
1.560000e-06	7.867135e-06	1.240228e-08	5.631727e+01	8.132275e+02
1.570000e-06	7.889819e-06	1.241471e-08	5.647965e+01	8.141486e+02
1.580000e-06	7.909832e-06	1.242465e-08	5.662292e+01	8.149494e+02
1.590000e-06	7.927105e-06	1.243226e-08	5.674656e+01	8.156210e+02
1.600000e-06	7.941397e-06	1.243880e-08	5.684887e+01	8.161530e+02
1.610000e-06	7.952605e-06	1.244680e-08	5.692911e+01	8.165348e+02
1.620000e-06	7.960693e-06	1.245475e-08	5.698700e+01	8.167588e+02
1.630000e-06	7.965909e-06	1.246002e-08	5.702435e+01	8.168207e+02
1.640000e-06	7.968305e-06	1.246202e-08	5.704150e+01	8.167214e+02
1.650000e-06	7.967859e-06	1.245931e-08	5.703830e+01	8.164664e+02
1.660000e-06	7.964847e-06	1.244928e-08	5.701674e+01	8.160652e+02
1.670000e-06	7.959195e-06	1.243947e-08	5.697628e+01	8.155299e+02
1.680000e-06	7.950840e-06	1.242901e-08	5.691647e+01	8.148739e+02
1.690000e-06	7.939845e-06	1.241631e-08	5.683776e+01	8.141100e+02
1.700000e-06	7.926016e-06	1.240492e-08	5.673877e+01	8.132485e+02
1.710000e-06	7.909512e-06	1.239317e-08	5.662062e+01	8.122971e+02
1.720000e-06	7.890697e-06	1.237593e-08	5.648593e+01	8.112595e+02
1.730000e-06	7.869486e-06	1.231076e-08	5.633410e+01	8.101363e+02
1.740000e-06	7.845337e-06	1.227024e-08	5.616123e+01	8.089250e+02
1.750000e-06	7.817676e-06	1.228331e-08	5.596321e+01	8.076214e+02
1.760000e-06	7.786481e-06	1.227533e-08	5.573990e+01	8.062204e+02
1.770000e-06	7.752451e-06	1.224838e-08	5.549629e+01	8.047173e+02
1.780000e-06	7.716038e-06	1.224264e-08	5.523563e+01	8.031076e+02
1.790000e-06	7.677321e-06	1.225552e-08	5.495847e+01	8.013880e+02
1.800000e-06	7.636623e-06	1.218280e-08	5.466714e+01	7.995558e+02
1.810000e-06	7.593747e-06	1.219545e-08	5.436020e+01	7.976079e+02
1.820000e-06	7.548227e-06	1.219087e-08	5.403435e+01	7.955405e+02
1.830000e-06	7.500060e-06	1.211204e-08	5.368954e+01	7.933479e+02
1.840000e-06	7.448958e-06	1.211085e-08	5.332372e+01	7.910224e+02
1.850000e-06	7.394844e-06	1.200113e-08	5.293635e+01	7.885536e+02
1.860000e-06	7.338029e-06	1.197527e-08	5.252964e+01	7.859292e+02
1.870000e-06	7.278556e-06	1.195241e-08	5.210389e+01	7.831360e+02
1.880000e-06	7.216431e-06	1.189534e-08	5.165917e+01	7.801612e+02
1.890000e-06	7.151573e-06	1.189922e-08	5.119488e+01	7.769941e+02
1.900000e-06	7.083983e-06	1.179815e-08	5.071104e+01	7.736274e+02
1.910000e-06	7.013577e-06	1.173878e-08	5.020703e+01	7.700590e+02
1.920000e-06	6.940386e-06	1.168155e-08	4.968309e+01	7.662923e+02
1.930000e-06	6.864543e-06	1.165044e-08	4.914016e+01	7.623359e+02
1.940000e-06	6.785903e-06	1.159460e-08	4.857722e+01	7.582030e+02
1.950000e-06	6.704702e-06	1.150259e-08	4.799593e+01	7.539095e+02
1.960000e-06	6.621111e-06	1.146252e-08	4.739754e+01	7.494720e+02
1.970000e-06	6.535040e-06	1.136260e-08	4.678140e+01	7.449048e+02
1.980000e-06	6.446532e-06	1.128427e-08	4.614781e+01	7.402182e+02
1.990000e-06	6.355781e-06	1.121299e-08	4.549816e+01	7.354164e+02
2.000000e-06	6.262845e-06	1.114660e-08	4.483288e+01	7.304967e+02
2.010000e-06	6.167585e-06	1.105755e-08	4.415095e+01	7.254494e+02
2.020000e-06	6.070120e-06	1.097186e-08	4.345325e+01	7.202590e+02
2.030000e-06	5.970499e-06	1.090766e-08	4.274010e+01	7.149063e+02
2.040000e-06	5.868698e-06	1.082265e-08	4.201136e+01	7.093710e+02
2.050000e-06	5.764829e-06	1.072560e-08	4.126781e+01	7.036340e+02
2.060000e-06	5.659031e-06	1.061699e-08	4.051044e+01	6.976809e+02
2.070000e-06	5.551306e-06	1.053739e-08	3.973929e+01	6.915029e+02
2.080000e-06	5.441581e-06	1.044177e-08	3.895382e+01	6.850986e+02
2.090000e-06	5.329895e-06	1.034355e-08	3.815431e+01	6.784731e+02
2.100000e-06	5.216293e-06	1.024353e-08	3.734109e+01	6.716368e+02
2.110000e-06	5.100679e-06	1.013921e-08	3.651346e+01	6.646032e+02
2.120000e-06	4.983016e-06	1.001616e-08	3.567116e+01	6.573856e+02
2.130000e-06	4.863446e-06	9.896261e-09	3.481522e+01	6.499940e+02
2.140000e-06	4.742083e-06	9.794876e-09	3.394643e+01	6.424330e+02
2.150000e-06	4.619006e-06	9.686615e-09	3.306538e+01	6.346990e+02
2.160000e-06	4.494220e-06	9.564124e-09	3.217209e+01	6.267802e+02
2.170000e-06	4.367783e-06	9.433510e-09	3.126699e+01	6.186572e+02
2.180000e-06	4.239763e-06	9.309130e-09	3.035055e+01	6.103048e+02
2.190000e-06	4.110176e-06	9.173653e-09	2.942290e+01	6.016948e+02
2.200000e-06	3.979087e-06	9.034004e-09	2.848449e+01	5.927999e+02
2.210000e-06	3.846525e-06	8.892540e-09	2.753553e+01	5.835970e+02
2.220000e-06	3.712490e-06	8.751689e-09	2.657604e+01	5.740698e+02
2.230000e-06	3.577038e-06	8.600843e-09	2.560640e+01	5.642107e+02
2.240000e-06	3.440285e-06	8.446221e-09	2.462744e+01	5.540210e+02
2.250000e-06	3.302279e-06	8.291764e-09	2.363953e+01	5.435098e+02
2.260000e-06	3.162996e-06	8.128748e-09	2.264246e+01	5.326907e+02
2.270000e-06	3.022414e-06	7.958528e-09	2.163610e+01	5.215786e+02
2.280000e-06	2.880632e-06	7.785728e-09	2.062114e+01	5.101851e+02
2.290000e-06	2.737698e-06	7.614414e-09	1.959794e+01	4.985146e+02
2.300000e-06	2.593772e-06	7.438486e-09	1.856764e+01	4.865613e+02
2.310000e-06	2.449014e-06	7.252672e-09	1.753138e+01	4.743076e+02
2.320000e-06	2.303361e-06	7.055071e-09	1.648872e+01	4.617240e+02
2.330000e-06	2.156929e-06	6.848922e-09	1.544048e+01	4.487719e+02
2.340000e-06	2.009860e-06	6.639121e-09	1.438768e+01	4.354069e+02
2.350000e-06	1.862108e-06	6.426994e-09	1.332999e+01	4.215834e+02
2.360000e-06	1.713649e-06	6.209879e-09	1.226724e+01	4.072603e+02
2.370000e-06	1.564613e-06	5.982807e-09	1.120036e+01	3.924051e+02
2.380000e-06	1.415115e-06	5.749006e-09	1.013017e+01	3.769970e+02
2.390000e-06	1.265162e-06	5.508379e-09	9.056721e+00	3.610275e+02
2.400000e-06	1.114743e-06	5.258470e-09	7.979940e+00	3.444993e+02
2.410000e-06	9.639683e-07	5.002598e-09	6.900614e+00	3.274220e+02
2.420000e-06	8.129488e-07	4.740857e-09	5.819533e+00	3.098053e+02
2.430000e-06	6.616712e-07	4.466620e-09	4.736605e+00	2.916520e+02
2.440000e-06	5.101178e-07	4.178593e-09	3.651703e+00	2.729501e+02
2.450000e-06	3.584083e-07	3.881566e-09	2.565683e+00	2.536659e+02
2.460000e-06	2.066192e-07	3.574310e-09	1.479094e+00	2.337399e+02
2.470000e-06	5.472263e-08	3.253247e-09	3.917346e-01	2.130858e+02
2.480000e-06	-9.725847e-08	2.917666e-09	-6.962295e-01	1.915935e+02
2.490000e-06	-2.492807e-07	2.571791e-09	-1.784488e+00	1.691369e+02
2.500000e-06	-4.012536e-07	2.213602e-09	-2.872393e+00	1.455849e+02
2.510000e-06	-5.530842e-07	1.837778e-09	-3.959280e+00	1.208158e+02
2.520000e-06	-7.046810e-07	1.446555e-09	-5.044493e+00	9.473366e+01
2.530000e-06	-8.560475e-07	1.037908e-09	-6.128058e+00	6.728338e+01
2.540000e-06	-1.007223e-06	6.052907e-10	-7.210253e+00	3.846510e+01
2.550000e-06	-1.158067e-06	1.491497e-10	-8.290078e+00	8.344057e+00
2.560000e-06	-1.308435e-06	-3.264122e-10	-9.366499e+00	-2.294438e+01
2.570000e-06	-1.458306e-06	-8.187776e-10	-1.043935e+01	-5.519571e+01
2.580000e-06	-1.607639e-06	-1.327477e-09	-1.150836e+01	-8.814359e+01
2.590000e-06	-1.756418e-06	-1.847591e-09	-1.257340e+01	-1.214729e+02
2.600000e-06	-1.904556e-06	-2.368622e-09	-1.363386e+01	-1.548376e+02
2.610000e-06	-2.051924e-06	-2.880827e-09	-1.468880e+01	-1.878814e+02
2.620000e-06	-2.198459e-06	-3.377817e-09	-1.573777e+01	-2.202596e+02
2.630000e-06	-2.344222e-06	-3.855352e-09	-1.678122e+01	-2.516605e+02
2.640000e-06	-2.489177e-06	-4.312110e-09	-1.781890e+01	-2.818223e+02
2.650000e-06	-2.633139e-06	-4.746322e-09	-1.884945e+01	-3.105468e+02
2.660000e-06	-2.776077e-06	-5.156382e-09	-1.987268e+01	-3.377065e+02
2.670000e-06	-2.917906e-06	-5.543491e-09	-2.088797e+01	-3.632459e+02
2.680000e-06	-3.058571e-06	-5.906899e-09	-2.189493e+01	-3.871761e+02
2.690000e-06	-3.197950e-06	-6.248818e-09	-2.289268e+01	-4.095653e+02
2.700000e-06	-3.336050e-06	-6.572514e-09	-2.388127e+01	-4.305245e+02
2.710000e-06	-3.472964e-06	-6.875666e-09	-2.486138e+01	-4.501919e+02
2.720000e-06	-3.608578e-06	-7.158629e-09	-2.583218e+01	-4.687170e+02
2.730000e-06	-3.742900e-06	-7.425717e-09	-2.679373e+01	-4.862456e+02
2.740000e-06	-3.875869e-06	-7.681172e-09	-2.774560e+01	-5.029083e+02
2.750000e-06	-4.007359e-06	-7.927201e-09	-2.868687e+01	-5.188122e+02
2.760000e-06	-4.137491e-06	-8.164116e-09	-2.961843e+01	-5.340375e+02
2.770000e-06	-4.266272e-06	-8.391705e-09	-3.054031e+01	-5.486371e+02
2.780000e-06	-4.393544e-06	-8.607586e-09	-3.145140e+01	-5.626406e+02
2.790000e-06	-4.519308e-06	-8.810734e-09	-3.235168e+01	-5.760597e+02
2.800000e-06	-4.643448e-06	-9.000937e-09	-3.324035e+01	-5.888960e+02
2.810000e-06	-4.765916e-06	-9.181873e-09	-3.411704e+01	-6.011477e+02
2.820000e-06	-4.886703e-06	-9.356197e-09	-3.498170e+01	-6.128160e+02
2.830000e-06	-5.005679e-06	-9.521640e-09	-3.583339e+01	-6.239095e+02
2.840000e-06	-5.122674e-06	-9.680792e-09	-3.667091e+01	-6.344464e+02
2.850000e-06	-5.237547e-06	-9.836941e-09	-3.749323e+01	-6.444546e+02
2.860000e-06	-5.350292e-06	-9.990597e-09	-3.830033e+01	-6.539698e+02
2.870000e-06	-5.460976e-06	-1.013555e-08	-3.909266e+01	-6.630319e+02
2.880000e-06	-5.569692e-06	-1.026844e-08	-3.987091e+01	-6.716816e+02
2.890000e-06	-5.676535e-06	-1.039345e-08	-4.063575e+01	-6.799561e+02
2.900000e-06	-5.781425e-06	-1.051246e-08	-4.138661e+01	-6.878864e+02
2.910000e-06	-5.884138e-06	-1.062588e-08	-4.212189e+01	-6.954955e+02
2.920000e-06	-5.984621e-06	-1.073507e-08	-4.284120e+01	-7.027978e+02
2.930000e-06	-6.082967e-06	-1.084116e-08	-4.354521e+01	-7.098008e+02
2.940000e-06	-6.179250e-06	-1.094270e-08	-4.423446e+01	-7.165064e+02
