# Temperatura_=_70.23
# Concentracion g/m^3_=_10000.0
# C_Vs_to_Am_M_A/Vsm_=_65563218390.804596
# pendiente_HvsI_1/m_=_3716.3
# ordenada_HvsI_A/m_=_1297.0
# frecuencia_Hz_=_302548.34900283674

Tiempo_(s)	Campo_(V.s)	Magnetizacion_(V.s)	Campo_(kA/m)	Magnetizacion_(A/m)
0.000000e+00	-7.848207e-06	-1.227689e-08	-5.685140e+01	-8.043202e+02
1.000000e-08	-7.844671e-06	-1.227706e-08	-5.682579e+01	-8.039102e+02
2.000000e-08	-7.838562e-06	-1.227150e-08	-5.678153e+01	-8.033484e+02
3.000000e-08	-7.829902e-06	-1.226566e-08	-5.671880e+01	-8.026479e+02
4.000000e-08	-7.818460e-06	-1.225803e-08	-5.663592e+01	-8.018240e+02
5.000000e-08	-7.804066e-06	-1.224609e-08	-5.653165e+01	-8.008934e+02
6.000000e-08	-7.786905e-06	-1.223032e-08	-5.640733e+01	-7.998725e+02
7.000000e-08	-7.767460e-06	-1.221061e-08	-5.626648e+01	-7.987763e+02
8.000000e-08	-7.745734e-06	-1.218846e-08	-5.610910e+01	-7.976174e+02
9.000000e-08	-7.721142e-06	-1.223204e-08	-5.593096e+01	-7.964054e+02
1.000000e-07	-7.693366e-06	-1.222615e-08	-5.572975e+01	-7.951464e+02
1.100000e-07	-7.662628e-06	-1.214783e-08	-5.550708e+01	-7.938426e+02
1.200000e-07	-7.629088e-06	-1.210766e-08	-5.526413e+01	-7.924924e+02
1.300000e-07	-7.592885e-06	-1.209072e-08	-5.500188e+01	-7.910901e+02
1.400000e-07	-7.554406e-06	-1.205313e-08	-5.472314e+01	-7.896265e+02
1.500000e-07	-7.513878e-06	-1.197246e-08	-5.442956e+01	-7.880881e+02
1.600000e-07	-7.471004e-06	-1.199226e-08	-5.411899e+01	-7.864583e+02
1.700000e-07	-7.425482e-06	-1.197045e-08	-5.378923e+01	-7.847174e+02
1.800000e-07	-7.377401e-06	-1.183385e-08	-5.344094e+01	-7.828434e+02
1.900000e-07	-7.326396e-06	-1.189987e-08	-5.307147e+01	-7.808132e+02
2.000000e-07	-7.272356e-06	-1.187474e-08	-5.268000e+01	-7.786038e+02
2.100000e-07	-7.215668e-06	-1.181458e-08	-5.226937e+01	-7.761940e+02
2.200000e-07	-7.156349e-06	-1.182216e-08	-5.183967e+01	-7.735663e+02
2.300000e-07	-7.094454e-06	-1.171505e-08	-5.139131e+01	-7.707081e+02
2.400000e-07	-7.029954e-06	-1.167006e-08	-5.092408e+01	-7.676132e+02
2.500000e-07	-6.962722e-06	-1.158766e-08	-5.043706e+01	-7.642828e+02
2.600000e-07	-6.892872e-06	-1.155310e-08	-4.993108e+01	-7.607253e+02
2.700000e-07	-6.820331e-06	-1.151009e-08	-4.940560e+01	-7.569555e+02
2.800000e-07	-6.745036e-06	-1.143439e-08	-4.886017e+01	-7.529934e+02
2.900000e-07	-6.667062e-06	-1.135718e-08	-4.829534e+01	-7.488616e+02
3.000000e-07	-6.586348e-06	-1.129166e-08	-4.771065e+01	-7.445831e+02
3.100000e-07	-6.503176e-06	-1.127220e-08	-4.710816e+01	-7.401780e+02
3.200000e-07	-6.417832e-06	-1.118027e-08	-4.648994e+01	-7.356613e+02
3.300000e-07	-6.330321e-06	-1.111597e-08	-4.585603e+01	-7.310406e+02
3.400000e-07	-6.240527e-06	-1.107375e-08	-4.520557e+01	-7.263156e+02
3.500000e-07	-6.148434e-06	-1.099370e-08	-4.453846e+01	-7.214772e+02
3.600000e-07	-6.054116e-06	-1.090858e-08	-4.385523e+01	-7.165094e+02
3.700000e-07	-5.957588e-06	-1.083087e-08	-4.315599e+01	-7.113910e+02
3.800000e-07	-5.858831e-06	-1.075729e-08	-4.244062e+01	-7.060983e+02
3.900000e-07	-5.757935e-06	-1.065400e-08	-4.170974e+01	-7.006085e+02
4.000000e-07	-5.655097e-06	-1.056020e-08	-4.096479e+01	-6.949028e+02
4.100000e-07	-5.550333e-06	-1.048142e-08	-4.020590e+01	-6.889684e+02
4.200000e-07	-5.443540e-06	-1.040346e-08	-3.943230e+01	-6.828003e+02
4.300000e-07	-5.334792e-06	-1.029704e-08	-3.864454e+01	-6.764016e+02
4.400000e-07	-5.224186e-06	-1.018461e-08	-3.784333e+01	-6.697824e+02
4.500000e-07	-5.111665e-06	-1.008999e-08	-3.702824e+01	-6.629579e+02
4.600000e-07	-4.997109e-06	-9.989059e-09	-3.619841e+01	-6.559451e+02
4.700000e-07	-4.880536e-06	-9.879611e-09	-3.535397e+01	-6.487594e+02
4.800000e-07	-4.762130e-06	-9.776340e-09	-3.449625e+01	-6.414117e+02
4.900000e-07	-4.642037e-06	-9.668319e-09	-3.362631e+01	-6.339056e+02
5.000000e-07	-4.520272e-06	-9.538453e-09	-3.274427e+01	-6.262355e+02
5.100000e-07	-4.396782e-06	-9.410655e-09	-3.184972e+01	-6.183869e+02
5.200000e-07	-4.271708e-06	-9.291887e-09	-3.094370e+01	-6.103371e+02
5.300000e-07	-4.145087e-06	-9.167974e-09	-3.002647e+01	-6.020581e+02
5.400000e-07	-4.017095e-06	-9.026478e-09	-2.909932e+01	-5.935196e+02
5.500000e-07	-3.887705e-06	-8.888754e-09	-2.816203e+01	-5.846927e+02
5.600000e-07	-3.756630e-06	-8.758025e-09	-2.721254e+01	-5.755540e+02
5.700000e-07	-3.624034e-06	-8.620266e-09	-2.625203e+01	-5.660877e+02
5.800000e-07	-3.490175e-06	-8.468596e-09	-2.528237e+01	-5.562877e+02
5.900000e-07	-3.355046e-06	-8.315586e-09	-2.430352e+01	-5.461569e+02
6.000000e-07	-3.218706e-06	-8.160668e-09	-2.331589e+01	-5.357063e+02
6.100000e-07	-3.081120e-06	-7.995275e-09	-2.231923e+01	-5.249513e+02
6.200000e-07	-2.942098e-06	-7.826858e-09	-2.131218e+01	-5.139081e+02
6.300000e-07	-2.801755e-06	-7.653156e-09	-2.029555e+01	-5.025893e+02
6.400000e-07	-2.660317e-06	-7.472180e-09	-1.927099e+01	-4.909997e+02
6.500000e-07	-2.517919e-06	-7.281807e-09	-1.823948e+01	-4.791334e+02
6.600000e-07	-2.374540e-06	-7.093621e-09	-1.720086e+01	-4.669726e+02
6.700000e-07	-2.230101e-06	-6.904852e-09	-1.615457e+01	-4.544876e+02
6.800000e-07	-2.084823e-06	-6.711080e-09	-1.510219e+01	-4.416395e+02
6.900000e-07	-1.938880e-06	-6.512294e-09	-1.404500e+01	-4.283836e+02
7.000000e-07	-1.792351e-06	-6.303787e-09	-1.298356e+01	-4.146748e+02
7.100000e-07	-1.645302e-06	-6.085204e-09	-1.191836e+01	-4.004720e+02
7.200000e-07	-1.497760e-06	-5.859471e-09	-1.084958e+01	-3.857431e+02
7.300000e-07	-1.349749e-06	-5.630000e-09	-9.777404e+00	-3.704672e+02
7.400000e-07	-1.201345e-06	-5.388362e-09	-8.702391e+00	-3.546361e+02
7.500000e-07	-1.052669e-06	-5.137736e-09	-7.625401e+00	-3.382520e+02
7.600000e-07	-9.037171e-07	-4.883281e-09	-6.546410e+00	-3.213238e+02
7.700000e-07	-7.544826e-07	-4.622001e-09	-5.465374e+00	-3.038607e+02
7.800000e-07	-6.049943e-07	-4.347558e-09	-4.382501e+00	-2.858651e+02
7.900000e-07	-4.553045e-07	-4.064446e-09	-3.298167e+00	-2.673250e+02
8.000000e-07	-3.054558e-07	-3.776660e-09	-2.212682e+00	-2.482078e+02
8.100000e-07	-1.554997e-07	-3.475131e-09	-1.126420e+00	-2.284562e+02
8.200000e-07	-5.451089e-09	-3.156520e-09	-3.948699e-02	-2.079876e+02
8.300000e-07	1.446646e-07	-2.823671e-09	1.047932e+00	-1.866968e+02
8.400000e-07	2.947578e-07	-2.479921e-09	2.135188e+00	-1.644641e+02
8.500000e-07	4.448018e-07	-2.120294e-09	3.222087e+00	-1.411654e+02
8.600000e-07	5.947352e-07	-1.745837e-09	4.308185e+00	-1.166863e+02
8.700000e-07	7.444764e-07	-1.357748e-09	5.392891e+00	-9.093714e+01
8.800000e-07	8.940127e-07	-9.542720e-10	6.476113e+00	-6.386793e+01
8.900000e-07	1.043313e-06	-5.324699e-10	7.557625e+00	-3.548142e+01
9.000000e-07	1.192298e-06	-8.855051e-11	8.636856e+00	-5.842488e+00
9.100000e-07	1.340890e-06	3.764581e-10	9.713234e+00	2.491728e+01
9.200000e-07	1.489054e-06	8.604653e-10	1.078651e+01	5.660069e+01
9.300000e-07	1.636772e-06	1.358440e-09	1.185657e+01	8.895193e+01
9.400000e-07	1.783935e-06	1.864670e-09	1.292259e+01	1.216690e+02
9.500000e-07	1.930379e-06	2.370659e-09	1.398342e+01	1.544207e+02
9.600000e-07	2.076101e-06	2.870364e-09	1.503901e+01	1.868660e+02
9.700000e-07	2.221077e-06	3.355243e-09	1.608919e+01	2.186750e+02
9.800000e-07	2.365165e-06	3.819969e-09	1.713295e+01	2.495487e+02
9.900000e-07	2.508322e-06	4.263828e-09	1.816996e+01	2.792353e+02
1.000000e-06	2.650516e-06	4.685911e-09	1.920000e+01	3.075430e+02
1.010000e-06	2.791671e-06	5.086623e-09	2.022251e+01	3.343470e+02
1.020000e-06	2.931726e-06	5.466267e-09	2.123705e+01	3.595902e+02
1.030000e-06	3.070539e-06	5.827348e-09	2.224259e+01	3.832791e+02
1.040000e-06	3.208045e-06	6.166825e-09	2.323867e+01	4.054744e+02
1.050000e-06	3.344305e-06	6.485252e-09	2.422572e+01	4.262782e+02
1.060000e-06	3.479304e-06	6.784270e-09	2.520363e+01	4.458188e+02
1.070000e-06	3.612993e-06	7.067681e-09	2.617205e+01	4.642362e+02
1.080000e-06	3.745462e-06	7.335728e-09	2.713165e+01	4.816680e+02
1.090000e-06	3.876644e-06	7.587803e-09	2.808191e+01	4.982383e+02
1.100000e-06	4.006347e-06	7.828611e-09	2.902146e+01	5.140499e+02
1.110000e-06	4.134616e-06	8.060278e-09	2.995062e+01	5.291808e+02
1.120000e-06	4.261515e-06	8.282537e-09	3.086986e+01	5.436835e+02
1.130000e-06	4.386968e-06	8.492842e-09	3.177863e+01	5.575888e+02
1.140000e-06	4.510917e-06	8.691665e-09	3.267650e+01	5.709106e+02
1.150000e-06	4.633246e-06	8.880806e-09	3.356264e+01	5.836525e+02
1.160000e-06	4.753872e-06	9.061489e-09	3.443644e+01	5.958150e+02
1.170000e-06	4.872811e-06	9.233359e-09	3.529801e+01	6.074006e+02
1.180000e-06	4.990033e-06	9.397651e-09	3.614715e+01	6.184186e+02
1.190000e-06	5.105295e-06	9.557203e-09	3.698210e+01	6.288871e+02
1.200000e-06	5.218476e-06	9.712462e-09	3.780197e+01	6.388331e+02
1.210000e-06	5.329729e-06	9.862503e-09	3.860787e+01	6.482908e+02
1.220000e-06	5.439165e-06	1.000588e-08	3.940061e+01	6.572990e+02
1.230000e-06	5.546771e-06	1.014270e-08	4.018009e+01	6.658968e+02
1.240000e-06	5.652301e-06	1.027111e-08	4.094454e+01	6.741210e+02
1.250000e-06	5.755683e-06	1.039089e-08	4.169342e+01	6.820021e+02
1.260000e-06	5.857011e-06	1.050449e-08	4.242743e+01	6.895635e+02
1.270000e-06	5.956151e-06	1.061312e-08	4.314559e+01	6.968203e+02
1.280000e-06	6.052958e-06	1.071559e-08	4.384685e+01	7.037807e+02
1.290000e-06	6.147545e-06	1.081154e-08	4.453202e+01	7.104476e+02
1.300000e-06	6.240035e-06	1.090511e-08	4.520200e+01	7.168213e+02
1.310000e-06	6.330321e-06	1.099768e-08	4.585602e+01	7.229020e+02
1.320000e-06	6.418266e-06	1.108885e-08	4.649309e+01	7.286927e+02
1.330000e-06	6.503925e-06	1.117497e-08	4.711359e+01	7.342004e+02
1.340000e-06	6.587378e-06	1.125426e-08	4.771811e+01	7.394371e+02
1.350000e-06	6.668528e-06	1.132893e-08	4.830595e+01	7.444190e+02
1.360000e-06	6.747197e-06	1.140136e-08	4.887582e+01	7.491656e+02
1.370000e-06	6.823313e-06	1.147220e-08	4.942720e+01	7.536971e+02
1.380000e-06	6.896841e-06	1.153995e-08	4.995982e+01	7.580322e+02
1.390000e-06	6.967814e-06	1.160223e-08	5.047394e+01	7.621858e+02
1.400000e-06	7.036323e-06	1.165989e-08	5.097022e+01	7.661673e+02
1.410000e-06	7.102247e-06	1.171743e-08	5.144776e+01	7.699795e+02
1.420000e-06	7.165606e-06	1.177450e-08	5.190672e+01	7.736188e+02
1.430000e-06	7.226591e-06	1.182788e-08	5.234849e+01	7.770762e+02
1.440000e-06	7.285062e-06	1.187618e-08	5.277205e+01	7.803392e+02
1.450000e-06	7.340905e-06	1.192067e-08	5.317657e+01	7.833942e+02
1.460000e-06	7.394075e-06	1.196082e-08	5.356172e+01	7.862292e+02
1.470000e-06	7.444231e-06	1.199594e-08	5.392505e+01	7.888361e+02
1.480000e-06	7.491435e-06	1.202919e-08	5.426699e+01	7.912123e+02
1.490000e-06	7.536085e-06	1.206125e-08	5.459043e+01	7.933620e+02
1.500000e-06	7.578110e-06	1.209134e-08	5.489485e+01	7.952956e+02
1.510000e-06	7.617334e-06	1.211962e-08	5.517899e+01	7.970289e+02
1.520000e-06	7.653900e-06	1.214572e-08	5.544386e+01	7.985815e+02
1.530000e-06	7.687770e-06	1.217101e-08	5.568921e+01	7.999742e+02
1.540000e-06	7.718836e-06	1.219421e-08	5.591425e+01	8.012267e+02
1.550000e-06	7.747255e-06	1.221170e-08	5.612011e+01	8.023554e+02
1.560000e-06	7.772842e-06	1.222458e-08	5.630546e+01	8.033715e+02
1.570000e-06	7.795522e-06	1.223535e-08	5.646975e+01	8.042803e+02
1.580000e-06	7.815559e-06	1.224595e-08	5.661490e+01	8.050811e+02
1.590000e-06	7.832816e-06	1.225505e-08	5.673991e+01	8.057678e+02
1.600000e-06	7.847105e-06	1.226397e-08	5.684342e+01	8.063305e+02
1.610000e-06	7.858323e-06	1.227340e-08	5.692467e+01	8.067571e+02
1.620000e-06	7.866478e-06	1.228038e-08	5.698375e+01	8.070359e+02
1.630000e-06	7.871838e-06	1.228406e-08	5.702258e+01	8.071568e+02
1.640000e-06	7.874450e-06	1.228378e-08	5.704150e+01	8.071136e+02
1.650000e-06	7.874254e-06	1.228268e-08	5.704008e+01	8.069047e+02
1.660000e-06	7.871458e-06	1.227065e-08	5.701982e+01	8.065333e+02
1.670000e-06	7.866051e-06	1.225910e-08	5.698066e+01	8.060075e+02
1.680000e-06	7.857940e-06	1.224919e-08	5.692190e+01	8.053394e+02
1.690000e-06	7.847227e-06	1.223788e-08	5.684430e+01	8.045440e+02
1.700000e-06	7.833699e-06	1.222832e-08	5.674630e+01	8.036376e+02
1.710000e-06	7.817493e-06	1.222057e-08	5.662891e+01	8.026369e+02
1.720000e-06	7.799034e-06	1.221441e-08	5.649519e+01	8.015574e+02
1.730000e-06	7.778323e-06	1.217336e-08	5.634517e+01	8.004122e+02
1.740000e-06	7.754792e-06	1.206761e-08	5.617471e+01	7.992119e+02
1.750000e-06	7.727764e-06	1.208084e-08	5.597893e+01	7.979634e+02
1.760000e-06	7.697184e-06	1.210516e-08	5.575741e+01	7.966699e+02
1.770000e-06	7.663699e-06	1.206235e-08	5.551484e+01	7.953308e+02
1.780000e-06	7.627977e-06	1.204762e-08	5.525608e+01	7.939414e+02
1.790000e-06	7.589940e-06	1.211641e-08	5.498054e+01	7.924933e+02
1.800000e-06	7.549829e-06	1.204684e-08	5.468999e+01	7.909742e+02
1.810000e-06	7.507665e-06	1.200321e-08	5.438455e+01	7.893681e+02
1.820000e-06	7.462885e-06	1.213315e-08	5.406018e+01	7.876561e+02
1.830000e-06	7.415485e-06	1.200624e-08	5.371681e+01	7.858166e+02
1.840000e-06	7.365332e-06	1.204145e-08	5.335351e+01	7.838268e+02
1.850000e-06	7.312240e-06	1.195092e-08	5.296892e+01	7.816634e+02
1.860000e-06	7.256313e-06	1.183133e-08	5.256380e+01	7.793047e+02
1.870000e-06	7.197714e-06	1.190713e-08	5.213931e+01	7.767320e+02
1.880000e-06	7.136614e-06	1.178314e-08	5.169671e+01	7.739313e+02
1.890000e-06	7.072774e-06	1.184502e-08	5.123426e+01	7.708949e+02
1.900000e-06	7.006163e-06	1.177640e-08	5.075174e+01	7.676220e+02
1.910000e-06	6.936827e-06	1.165199e-08	5.024948e+01	7.641192e+02
1.920000e-06	6.864685e-06	1.163717e-08	4.972689e+01	7.603999e+02
1.930000e-06	6.789975e-06	1.156191e-08	4.918570e+01	7.564829e+02
1.940000e-06	6.712470e-06	1.156855e-08	4.862426e+01	7.523905e+02
1.950000e-06	6.632297e-06	1.144000e-08	4.804350e+01	7.481458e+02
1.960000e-06	6.549806e-06	1.140346e-08	4.744595e+01	7.437698e+02
1.970000e-06	6.464942e-06	1.132493e-08	4.683121e+01	7.392790e+02
1.980000e-06	6.377609e-06	1.119536e-08	4.619857e+01	7.346832e+02
1.990000e-06	6.287947e-06	1.116960e-08	4.554907e+01	7.299839e+02
2.000000e-06	6.196226e-06	1.109009e-08	4.488466e+01	7.251742e+02
2.010000e-06	6.102244e-06	1.103778e-08	4.420387e+01	7.202397e+02
2.020000e-06	6.005979e-06	1.091992e-08	4.350653e+01	7.151603e+02
2.030000e-06	5.907568e-06	1.085319e-08	4.279366e+01	7.099125e+02
2.040000e-06	5.807202e-06	1.077568e-08	4.206662e+01	7.044731e+02
2.050000e-06	5.704768e-06	1.067606e-08	4.132461e+01	6.988220e+02
2.060000e-06	5.600228e-06	1.057333e-08	4.056733e+01	6.929446e+02
2.070000e-06	5.493817e-06	1.047839e-08	3.979650e+01	6.868340e+02
2.080000e-06	5.385593e-06	1.040195e-08	3.901254e+01	6.804914e+02
2.090000e-06	5.275505e-06	1.029275e-08	3.821508e+01	6.739252e+02
2.100000e-06	5.163404e-06	1.021347e-08	3.740303e+01	6.671496e+02
2.110000e-06	5.049365e-06	1.011046e-08	3.657695e+01	6.601814e+02
2.120000e-06	4.933404e-06	9.990934e-09	3.573694e+01	6.530368e+02
2.130000e-06	4.815424e-06	9.853866e-09	3.488231e+01	6.457281e+02
2.140000e-06	4.695457e-06	9.750332e-09	3.401328e+01	6.382608e+02
2.150000e-06	4.573774e-06	9.648304e-09	3.313183e+01	6.306319e+02
2.160000e-06	4.450539e-06	9.528877e-09	3.223913e+01	6.228289e+02
2.170000e-06	4.325775e-06	9.400596e-09	3.133535e+01	6.148310e+02
2.180000e-06	4.199305e-06	9.271971e-09	3.041923e+01	6.066112e+02
2.190000e-06	4.071172e-06	9.140832e-09	2.949104e+01	5.981395e+02
2.200000e-06	3.941627e-06	9.002045e-09	2.855264e+01	5.893863e+02
2.210000e-06	3.810607e-06	8.873122e-09	2.760355e+01	5.803265e+02
2.220000e-06	3.678221e-06	8.731917e-09	2.664456e+01	5.709422e+02
2.230000e-06	3.544516e-06	8.577139e-09	2.567602e+01	5.612248e+02
2.240000e-06	3.409388e-06	8.413642e-09	2.469717e+01	5.511750e+02
2.250000e-06	3.272884e-06	8.261693e-09	2.370835e+01	5.408021e+02
2.260000e-06	3.135251e-06	8.104637e-09	2.271135e+01	5.301208e+02
2.270000e-06	2.996554e-06	7.941645e-09	2.170665e+01	5.191474e+02
2.280000e-06	2.856702e-06	7.771931e-09	2.069358e+01	5.078958e+02
2.290000e-06	2.715736e-06	7.602323e-09	1.967244e+01	4.963731e+02
2.300000e-06	2.573652e-06	7.425702e-09	1.864320e+01	4.845764e+02
2.310000e-06	2.430538e-06	7.241573e-09	1.760650e+01	4.724906e+02
2.320000e-06	2.286534e-06	7.051737e-09	1.656335e+01	4.600891e+02
2.330000e-06	2.141759e-06	6.847443e-09	1.551462e+01	4.473349e+02
2.340000e-06	1.996269e-06	6.635933e-09	1.446071e+01	4.341844e+02
2.350000e-06	1.850123e-06	6.424368e-09	1.340205e+01	4.205920e+02
2.360000e-06	1.703396e-06	6.214838e-09	1.233918e+01	4.065153e+02
2.370000e-06	1.556127e-06	5.994808e-09	1.127238e+01	3.919195e+02
2.380000e-06	1.408392e-06	5.763784e-09	1.020221e+01	3.767807e+02
2.390000e-06	1.260254e-06	5.525286e-09	9.129119e+00	3.610876e+02
2.400000e-06	1.111777e-06	5.279208e-09	8.053571e+00	3.448402e+02
2.410000e-06	9.630010e-07	5.028253e-09	6.975855e+00	3.280462e+02
2.420000e-06	8.139244e-07	4.771731e-09	5.895963e+00	3.107154e+02
2.430000e-06	6.645594e-07	4.500393e-09	4.813983e+00	2.928525e+02
2.440000e-06	5.149367e-07	4.212808e-09	3.730135e+00	2.744498e+02
2.450000e-06	3.651171e-07	3.916295e-09	2.644861e+00	2.554803e+02
2.460000e-06	2.151175e-07	3.615842e-09	1.558284e+00	2.358933e+02
2.470000e-06	6.493781e-08	3.306672e-09	4.704011e-01	2.156120e+02
2.480000e-06	-8.529842e-08	2.981727e-09	-6.178907e-01	1.945368e+02
2.490000e-06	-2.354789e-07	2.643183e-09	-1.705779e+00	1.725504e+02
2.500000e-06	-3.855739e-07	2.290048e-09	-2.793047e+00	1.495286e+02
2.510000e-06	-5.355659e-07	1.920175e-09	-3.879570e+00	1.253534e+02
2.520000e-06	-6.853979e-07	1.534277e-09	-4.964934e+00	9.992731e+01
2.530000e-06	-8.349637e-07	1.132007e-09	-6.048369e+00	7.318923e+01
2.540000e-06	-9.842706e-07	7.084594e-10	-7.129929e+00	4.512763e+01
2.550000e-06	-1.133282e-06	2.634075e-10	-8.209349e+00	1.579122e+01
2.560000e-06	-1.281879e-06	-1.974156e-10	-9.285768e+00	-1.470522e+01
2.570000e-06	-1.430045e-06	-6.731195e-10	-1.035906e+01	-4.618047e+01
2.580000e-06	-1.577781e-06	-1.165519e-09	-1.142924e+01	-7.839240e+01
2.590000e-06	-1.724995e-06	-1.673175e-09	-1.249564e+01	-1.110491e+02
2.600000e-06	-1.871518e-06	-2.186822e-09	-1.355703e+01	-1.438250e+02
2.610000e-06	-2.017303e-06	-2.694852e-09	-1.461308e+01	-1.763794e+02
2.620000e-06	-2.162414e-06	-3.188784e-09	-1.566425e+01	-2.083780e+02
2.630000e-06	-2.306777e-06	-3.664329e-09	-1.671000e+01	-2.395121e+02
2.640000e-06	-2.450162e-06	-4.121696e-09	-1.774866e+01	-2.695168e+02
2.650000e-06	-2.592418e-06	-4.558314e-09	-1.877914e+01	-2.981845e+02
2.660000e-06	-2.733563e-06	-4.968749e-09	-1.980157e+01	-3.253733e+02
2.670000e-06	-2.873590e-06	-5.353718e-09	-2.081591e+01	-3.510093e+02
2.680000e-06	-3.012466e-06	-5.715079e-09	-2.182191e+01	-3.750839e+02
2.690000e-06	-3.150197e-06	-6.056421e-09	-2.281962e+01	-3.976453e+02
2.700000e-06	-3.286830e-06	-6.382338e-09	-2.380937e+01	-4.187866e+02
2.710000e-06	-3.422258e-06	-6.690302e-09	-2.479039e+01	-4.386309e+02
2.720000e-06	-3.556353e-06	-6.980027e-09	-2.576176e+01	-4.573168e+02
2.730000e-06	-3.689124e-06	-7.252309e-09	-2.672354e+01	-4.749836e+02
2.740000e-06	-3.820602e-06	-7.509451e-09	-2.767595e+01	-4.917595e+02
2.750000e-06	-3.950771e-06	-7.757098e-09	-2.861888e+01	-5.077534e+02
2.760000e-06	-4.079646e-06	-7.995984e-09	-2.955243e+01	-5.230494e+02
2.770000e-06	-4.207115e-06	-8.224038e-09	-3.047580e+01	-5.377065e+02
2.780000e-06	-4.333003e-06	-8.439547e-09	-3.138771e+01	-5.517602e+02
2.790000e-06	-4.457405e-06	-8.642206e-09	-3.228887e+01	-5.652281e+02
2.800000e-06	-4.580296e-06	-8.833017e-09	-3.317907e+01	-5.781158e+02
2.810000e-06	-4.701545e-06	-9.016835e-09	-3.405738e+01	-5.904239e+02
2.820000e-06	-4.821073e-06	-9.195724e-09	-3.492323e+01	-6.021541e+02
2.830000e-06	-4.938677e-06	-9.364655e-09	-3.577514e+01	-6.133135e+02
2.840000e-06	-5.054273e-06	-9.525654e-09	-3.661250e+01	-6.239181e+02
2.850000e-06	-5.167820e-06	-9.681577e-09	-3.743502e+01	-6.339926e+02
2.860000e-06	-5.279296e-06	-9.833306e-09	-3.824253e+01	-6.435697e+02
2.870000e-06	-5.388830e-06	-9.975296e-09	-3.903599e+01	-6.526874e+02
2.880000e-06	-5.496573e-06	-1.010583e-08	-3.981647e+01	-6.613852e+02
2.890000e-06	-5.602478e-06	-1.023063e-08	-4.058363e+01	-6.697005e+02
2.900000e-06	-5.706286e-06	-1.035173e-08	-4.133560e+01	-6.776657e+02
2.910000e-06	-5.807921e-06	-1.046982e-08	-4.207183e+01	-6.853062e+02
2.920000e-06	-5.907445e-06	-1.058298e-08	-4.279277e+01	-6.926390e+02
2.930000e-06	-6.004858e-06	-1.069107e-08	-4.349842e+01	-6.996740e+02
2.940000e-06	-6.100107e-06	-1.079215e-08	-4.418839e+01	-7.064151e+02
