# Temperatura_=_66.71
# Concentracion g/m^3_=_10000.0
# C_Vs_to_Am_M_A/Vsm_=_65563218390.804596
# pendiente_HvsI_1/m_=_3716.3
# ordenada_HvsI_A/m_=_1297.0
# frecuencia_Hz_=_302548.11489158886

Tiempo_(s)	Campo_(V.s)	Magnetizacion_(V.s)	Campo_(kA/m)	Magnetizacion_(A/m)
0.000000e+00	-7.850779e-06	-1.210314e-08	-5.685032e+01	-7.928283e+02
1.000000e-08	-7.846807e-06	-1.209916e-08	-5.682156e+01	-7.924039e+02
2.000000e-08	-7.840359e-06	-1.209328e-08	-5.677487e+01	-7.918400e+02
3.000000e-08	-7.831333e-06	-1.208823e-08	-5.670950e+01	-7.911517e+02
4.000000e-08	-7.819483e-06	-1.207971e-08	-5.662370e+01	-7.903553e+02
5.000000e-08	-7.804688e-06	-1.206745e-08	-5.651656e+01	-7.894664e+02
6.000000e-08	-7.787089e-06	-1.205243e-08	-5.638912e+01	-7.884984e+02
7.000000e-08	-7.767172e-06	-1.202849e-08	-5.624489e+01	-7.874615e+02
8.000000e-08	-7.744946e-06	-1.203112e-08	-5.608395e+01	-7.863616e+02
9.000000e-08	-7.719844e-06	-1.206503e-08	-5.590217e+01	-7.852007e+02
1.000000e-07	-7.691513e-06	-1.202544e-08	-5.569702e+01	-7.839770e+02
1.100000e-07	-7.660255e-06	-1.196269e-08	-5.547067e+01	-7.826855e+02
1.200000e-07	-7.626301e-06	-1.193284e-08	-5.522480e+01	-7.813188e+02
1.300000e-07	-7.589797e-06	-1.190592e-08	-5.496046e+01	-7.798679e+02
1.400000e-07	-7.551059e-06	-1.185279e-08	-5.467994e+01	-7.783227e+02
1.500000e-07	-7.510199e-06	-1.180642e-08	-5.438406e+01	-7.766725e+02
1.600000e-07	-7.466948e-06	-1.184338e-08	-5.407087e+01	-7.749062e+02
1.700000e-07	-7.421010e-06	-1.176151e-08	-5.373821e+01	-7.730121e+02
1.800000e-07	-7.372368e-06	-1.171069e-08	-5.338597e+01	-7.709785e+02
1.900000e-07	-7.320766e-06	-1.175356e-08	-5.301230e+01	-7.687930e+02
2.000000e-07	-7.266252e-06	-1.166578e-08	-5.261755e+01	-7.664434e+02
2.100000e-07	-7.209098e-06	-1.164275e-08	-5.220368e+01	-7.639183e+02
2.200000e-07	-7.149269e-06	-1.160863e-08	-5.177043e+01	-7.612071e+02
2.300000e-07	-7.086849e-06	-1.152569e-08	-5.131843e+01	-7.583020e+02
2.400000e-07	-7.021793e-06	-1.147626e-08	-5.084733e+01	-7.551980e+02
2.500000e-07	-6.954068e-06	-1.142595e-08	-5.035692e+01	-7.518943e+02
2.600000e-07	-6.883738e-06	-1.139553e-08	-4.984763e+01	-7.483946e+02
2.700000e-07	-6.810688e-06	-1.133714e-08	-4.931865e+01	-7.447070e+02
2.800000e-07	-6.734951e-06	-1.127685e-08	-4.877021e+01	-7.408433e+02
2.900000e-07	-6.656408e-06	-1.119840e-08	-4.820145e+01	-7.368182e+02
3.000000e-07	-6.575104e-06	-1.114671e-08	-4.761270e+01	-7.326470e+02
3.100000e-07	-6.491544e-06	-1.109976e-08	-4.700761e+01	-7.283442e+02
3.200000e-07	-6.405855e-06	-1.100586e-08	-4.638710e+01	-7.239211e+02
3.300000e-07	-6.317933e-06	-1.095398e-08	-4.575043e+01	-7.193844e+02
3.400000e-07	-6.227695e-06	-1.089955e-08	-4.509698e+01	-7.147348e+02
3.500000e-07	-6.135183e-06	-1.082132e-08	-4.442707e+01	-7.099667e+02
3.600000e-07	-6.040496e-06	-1.074035e-08	-4.374141e+01	-7.050686e+02
3.700000e-07	-5.943533e-06	-1.066783e-08	-4.303927e+01	-7.000247e+02
3.800000e-07	-5.844339e-06	-1.058591e-08	-4.232096e+01	-6.948163e+02
3.900000e-07	-5.743092e-06	-1.048492e-08	-4.158780e+01	-6.894248e+02
4.000000e-07	-5.639900e-06	-1.040259e-08	-4.084055e+01	-6.838339e+02
4.100000e-07	-5.534677e-06	-1.032340e-08	-4.007860e+01	-6.780314e+02
4.200000e-07	-5.427387e-06	-1.023904e-08	-3.930167e+01	-6.720115e+02
4.300000e-07	-5.318222e-06	-1.013156e-08	-3.851117e+01	-6.657744e+02
4.400000e-07	-5.207238e-06	-1.003198e-08	-3.770749e+01	-6.593262e+02
4.500000e-07	-5.094278e-06	-9.945124e-09	-3.688951e+01	-6.526775e+02
4.600000e-07	-4.979280e-06	-9.844900e-09	-3.605677e+01	-6.458408e+02
4.700000e-07	-4.862346e-06	-9.734851e-09	-3.521000e+01	-6.388281e+02
4.800000e-07	-4.743643e-06	-9.628558e-09	-3.435043e+01	-6.316476e+02
4.900000e-07	-4.623262e-06	-9.516459e-09	-3.347871e+01	-6.243018e+02
5.000000e-07	-4.501181e-06	-9.386421e-09	-3.259468e+01	-6.167859e+02
5.100000e-07	-4.377421e-06	-9.263702e-09	-3.169848e+01	-6.090873e+02
5.200000e-07	-4.252049e-06	-9.149281e-09	-3.079062e+01	-6.011866e+02
5.300000e-07	-4.125197e-06	-9.027809e-09	-2.987204e+01	-5.930589e+02
5.400000e-07	-3.996897e-06	-8.893016e-09	-2.894298e+01	-5.846775e+02
5.500000e-07	-3.867065e-06	-8.762360e-09	-2.800281e+01	-5.760164e+02
5.600000e-07	-3.735672e-06	-8.634726e-09	-2.705135e+01	-5.670534e+02
5.700000e-07	-3.602839e-06	-8.492862e-09	-2.608946e+01	-5.577731e+02
5.800000e-07	-3.468675e-06	-8.338602e-09	-2.511793e+01	-5.481676e+02
5.900000e-07	-3.333269e-06	-8.185386e-09	-2.413740e+01	-5.382374e+02
6.000000e-07	-3.196620e-06	-8.031932e-09	-2.314788e+01	-5.279894e+02
6.100000e-07	-3.058658e-06	-7.869817e-09	-2.214885e+01	-5.174348e+02
6.200000e-07	-2.919414e-06	-7.705916e-09	-2.114053e+01	-5.065855e+02
6.300000e-07	-2.778938e-06	-7.539696e-09	-2.012329e+01	-4.954504e+02
6.400000e-07	-2.637307e-06	-7.364560e-09	-1.909769e+01	-4.840316e+02
6.500000e-07	-2.494588e-06	-7.181100e-09	-1.806421e+01	-4.723223e+02
6.600000e-07	-2.350927e-06	-6.996651e-09	-1.702391e+01	-4.603047e+02
6.700000e-07	-2.206367e-06	-6.808440e-09	-1.597710e+01	-4.479511e+02
6.800000e-07	-2.060956e-06	-6.612129e-09	-1.492413e+01	-4.352254e+02
6.900000e-07	-1.914851e-06	-6.411083e-09	-1.386613e+01	-4.220869e+02
7.000000e-07	-1.768135e-06	-6.201364e-09	-1.280370e+01	-4.084941e+02
7.100000e-07	-1.620923e-06	-5.982933e-09	-1.173769e+01	-3.944097e+02
7.200000e-07	-1.473264e-06	-5.759953e-09	-1.066844e+01	-3.798043e+02
7.300000e-07	-1.325201e-06	-5.535474e-09	-9.596257e+00	-3.646589e+02
7.400000e-07	-1.176762e-06	-5.302235e-09	-8.521358e+00	-3.489656e+02
7.500000e-07	-1.027974e-06	-5.057487e-09	-7.443930e+00	-3.327259e+02
7.600000e-07	-8.788928e-07	-4.805273e-09	-6.364380e+00	-3.159468e+02
7.700000e-07	-7.295645e-07	-4.543369e-09	-5.283040e+00	-2.986350e+02
7.800000e-07	-5.800339e-07	-4.270131e-09	-4.200235e+00	-2.807902e+02
7.900000e-07	-4.302904e-07	-3.987316e-09	-3.115888e+00	-2.623982e+02
8.000000e-07	-2.803622e-07	-3.698172e-09	-2.030204e+00	-2.434249e+02
8.100000e-07	-1.303192e-07	-3.395874e-09	-9.436884e-01	-2.238128e+02
8.200000e-07	1.981723e-08	-3.079031e-09	1.435037e-01	-2.034804e+02
8.300000e-07	1.699820e-07	-2.751169e-09	1.230901e+00	-1.823258e+02
8.400000e-07	3.200886e-07	-2.413118e-09	2.317877e+00	-1.602331e+02
8.500000e-07	4.701278e-07	-2.059844e-09	3.404365e+00	-1.370840e+02
8.600000e-07	6.200632e-07	-1.688054e-09	4.490101e+00	-1.127699e+02
8.700000e-07	7.698029e-07	-1.300320e-09	5.574421e+00	-8.720761e+01
8.800000e-07	9.193069e-07	-8.967461e-10	6.657033e+00	-6.035283e+01
8.900000e-07	1.068550e-06	-4.769414e-10	7.737757e+00	-3.221306e+01
9.000000e-07	1.217511e-06	-3.632703e-11	8.816436e+00	-2.856372e+00
9.100000e-07	1.366115e-06	4.240375e-10	9.892529e+00	2.758427e+01
9.200000e-07	1.514249e-06	9.014369e-10	1.096522e+01	5.891239e+01
9.300000e-07	1.661919e-06	1.393098e-09	1.203455e+01	9.087496e+01
9.400000e-07	1.809008e-06	1.891898e-09	1.309968e+01	1.231747e+02
9.500000e-07	1.955334e-06	2.390372e-09	1.415928e+01	1.554867e+02
9.600000e-07	2.100923e-06	2.882570e-09	1.521354e+01	1.874776e+02
9.700000e-07	2.245786e-06	3.362412e-09	1.626255e+01	2.188258e+02
9.800000e-07	2.389796e-06	3.822986e-09	1.730538e+01	2.492404e+02
9.900000e-07	2.532769e-06	4.261928e-09	1.834069e+01	2.784778e+02
1.000000e-06	2.674735e-06	4.678134e-09	1.936872e+01	3.063533e+02
1.010000e-06	2.815728e-06	5.071746e-09	2.038970e+01	3.327478e+02
1.020000e-06	2.955569e-06	5.445001e-09	2.140234e+01	3.576085e+02
1.030000e-06	3.094159e-06	5.799368e-09	2.240592e+01	3.809444e+02
1.040000e-06	3.231450e-06	6.132492e-09	2.340010e+01	4.028168e+02
1.050000e-06	3.367485e-06	6.444756e-09	2.438517e+01	4.233266e+02
1.060000e-06	3.502304e-06	6.739592e-09	2.536145e+01	4.425996e+02
1.070000e-06	3.635841e-06	7.020152e-09	2.632844e+01	4.607719e+02
1.080000e-06	3.768191e-06	7.285083e-09	2.728683e+01	4.779764e+02
1.090000e-06	3.899257e-06	7.535679e-09	2.823593e+01	4.943321e+02
1.100000e-06	4.028796e-06	7.775696e-09	2.917396e+01	5.099368e+02
1.110000e-06	4.156857e-06	8.003972e-09	3.010130e+01	5.248636e+02
1.120000e-06	4.283514e-06	8.220805e-09	3.101847e+01	5.391612e+02
1.130000e-06	4.408765e-06	8.425169e-09	3.192546e+01	5.528575e+02
1.140000e-06	4.532524e-06	8.618716e-09	3.282164e+01	5.659646e+02
1.150000e-06	4.654606e-06	8.804101e-09	3.370568e+01	5.784858e+02
1.160000e-06	4.774969e-06	8.982437e-09	3.457728e+01	5.904221e+02
1.170000e-06	4.893666e-06	9.154448e-09	3.543680e+01	6.017778e+02
1.180000e-06	5.010602e-06	9.320000e-09	3.628357e+01	6.125644e+02
1.190000e-06	5.125571e-06	9.479046e-09	3.711611e+01	6.228027e+02
1.200000e-06	5.238516e-06	9.629929e-09	3.793398e+01	6.325223e+02
1.210000e-06	5.349553e-06	9.772986e-09	3.873804e+01	6.417600e+02
1.220000e-06	5.458749e-06	9.910200e-09	3.952877e+01	6.505560e+02
1.230000e-06	5.566045e-06	1.004231e-08	4.030574e+01	6.589506e+02
1.240000e-06	5.671278e-06	1.016704e-08	4.106777e+01	6.669804e+02
1.250000e-06	5.774386e-06	1.028329e-08	4.181441e+01	6.746754e+02
1.260000e-06	5.875449e-06	1.039455e-08	4.254625e+01	6.820574e+02
1.270000e-06	5.974325e-06	1.050196e-08	4.326224e+01	6.891399e+02
1.280000e-06	6.070868e-06	1.060548e-08	4.396134e+01	6.959290e+02
1.290000e-06	6.165197e-06	1.070240e-08	4.464442e+01	7.024259e+02
1.300000e-06	6.257394e-06	1.079267e-08	4.531204e+01	7.086294e+02
1.310000e-06	6.347330e-06	1.088019e-08	4.596331e+01	7.145393e+02
1.320000e-06	6.434910e-06	1.096548e-08	4.659750e+01	7.201585e+02
1.330000e-06	6.520254e-06	1.104669e-08	4.721551e+01	7.254950e+02
1.340000e-06	6.603357e-06	1.112313e-08	4.781729e+01	7.305620e+02
1.350000e-06	6.684025e-06	1.119631e-08	4.840143e+01	7.353777e+02
1.360000e-06	6.762169e-06	1.126759e-08	4.896731e+01	7.399633e+02
1.370000e-06	6.837790e-06	1.133776e-08	4.951490e+01	7.443408e+02
1.380000e-06	6.910827e-06	1.140506e-08	5.004379e+01	7.485303e+02
1.390000e-06	6.981358e-06	1.146787e-08	5.055453e+01	7.525474e+02
1.400000e-06	7.049517e-06	1.152609e-08	5.104810e+01	7.564013e+02
1.410000e-06	7.115162e-06	1.157993e-08	5.152346e+01	7.600942e+02
1.420000e-06	7.178221e-06	1.163080e-08	5.198009e+01	7.636210e+02
1.430000e-06	7.238877e-06	1.167905e-08	5.241932e+01	7.669710e+02
1.440000e-06	7.296992e-06	1.172588e-08	5.284015e+01	7.701300e+02
1.450000e-06	7.352476e-06	1.177034e-08	5.324193e+01	7.730828e+02
1.460000e-06	7.405222e-06	1.180934e-08	5.362388e+01	7.758165e+02
1.470000e-06	7.454885e-06	1.184341e-08	5.398351e+01	7.783225e+02
1.480000e-06	7.501664e-06	1.187666e-08	5.432225e+01	7.805986e+02
1.490000e-06	7.545911e-06	1.190958e-08	5.464266e+01	7.826500e+02
1.500000e-06	7.587442e-06	1.193885e-08	5.494340e+01	7.844887e+02
1.510000e-06	7.626151e-06	1.196403e-08	5.522371e+01	7.861325e+02
1.520000e-06	7.662244e-06	1.198727e-08	5.548507e+01	7.876026e+02
1.530000e-06	7.695636e-06	1.201076e-08	5.572687e+01	7.889213e+02
1.540000e-06	7.726291e-06	1.203224e-08	5.594886e+01	7.901090e+02
1.550000e-06	7.754309e-06	1.205008e-08	5.615175e+01	7.911820e+02
1.560000e-06	7.779414e-06	1.206442e-08	5.633354e+01	7.921508e+02
1.570000e-06	7.801611e-06	1.207507e-08	5.649428e+01	7.930192e+02
1.580000e-06	7.821216e-06	1.208410e-08	5.663625e+01	7.937843e+02
1.590000e-06	7.838021e-06	1.209281e-08	5.675794e+01	7.944380e+02
1.600000e-06	7.851779e-06	1.210176e-08	5.685757e+01	7.949685e+02
1.610000e-06	7.862436e-06	1.210909e-08	5.693473e+01	7.953627e+02
1.620000e-06	7.870095e-06	1.211259e-08	5.699019e+01	7.956083e+02
1.630000e-06	7.875034e-06	1.211429e-08	5.702596e+01	7.956966e+02
1.640000e-06	7.877180e-06	1.211649e-08	5.704150e+01	7.956230e+02
1.650000e-06	7.876506e-06	1.211558e-08	5.703662e+01	7.953887e+02
1.660000e-06	7.873247e-06	1.210637e-08	5.701302e+01	7.950003e+02
1.670000e-06	7.867380e-06	1.209857e-08	5.697054e+01	7.944690e+02
1.680000e-06	7.858837e-06	1.208958e-08	5.690867e+01	7.938093e+02
1.690000e-06	7.847646e-06	1.207809e-08	5.682764e+01	7.930375e+02
1.700000e-06	7.833686e-06	1.206950e-08	5.672655e+01	7.921694e+02
1.710000e-06	7.817138e-06	1.206378e-08	5.660672e+01	7.912192e+02
1.720000e-06	7.798331e-06	1.205432e-08	5.647053e+01	7.901978e+02
1.730000e-06	7.777173e-06	1.198188e-08	5.631731e+01	7.891123e+02
1.740000e-06	7.753039e-06	1.192097e-08	5.614255e+01	7.879658e+02
1.750000e-06	7.725397e-06	1.194454e-08	5.594239e+01	7.867572e+02
1.760000e-06	7.694345e-06	1.194194e-08	5.571753e+01	7.854823e+02
1.770000e-06	7.660514e-06	1.191167e-08	5.547254e+01	7.841343e+02
1.780000e-06	7.624399e-06	1.193277e-08	5.521102e+01	7.827044e+02
1.790000e-06	7.586037e-06	1.195059e-08	5.493323e+01	7.811828e+02
1.800000e-06	7.545625e-06	1.183998e-08	5.464059e+01	7.795589e+02
1.810000e-06	7.502954e-06	1.187933e-08	5.433160e+01	7.778217e+02
1.820000e-06	7.457659e-06	1.189097e-08	5.400360e+01	7.759598e+02
1.830000e-06	7.409817e-06	1.180513e-08	5.365716e+01	7.739612e+02
1.840000e-06	7.359177e-06	1.184875e-08	5.329046e+01	7.718139e+02
1.850000e-06	7.305556e-06	1.171396e-08	5.290217e+01	7.695055e+02
1.860000e-06	7.249118e-06	1.168950e-08	5.249348e+01	7.670244e+02
1.870000e-06	7.190082e-06	1.168891e-08	5.206598e+01	7.643596e+02
1.880000e-06	7.128500e-06	1.162026e-08	5.162004e+01	7.615026e+02
1.890000e-06	7.064129e-06	1.164291e-08	5.115391e+01	7.584476e+02
1.900000e-06	6.997068e-06	1.152609e-08	5.066829e+01	7.551928e+02
1.910000e-06	6.927256e-06	1.146335e-08	5.016276e+01	7.517405e+02
1.920000e-06	6.854669e-06	1.140564e-08	4.963713e+01	7.480979e+02
1.930000e-06	6.779524e-06	1.137215e-08	4.909298e+01	7.442761e+02
1.940000e-06	6.701636e-06	1.134157e-08	4.852896e+01	7.402889e+02
1.950000e-06	6.621083e-06	1.124065e-08	4.794565e+01	7.361519e+02
1.960000e-06	6.538136e-06	1.121397e-08	4.734500e+01	7.318798e+02
1.970000e-06	6.452811e-06	1.110400e-08	4.672713e+01	7.274850e+02
1.980000e-06	6.365046e-06	1.102606e-08	4.609159e+01	7.229755e+02
1.990000e-06	6.275051e-06	1.097488e-08	4.543991e+01	7.183534e+02
2.000000e-06	6.183035e-06	1.090582e-08	4.477358e+01	7.136148e+02
2.010000e-06	6.088756e-06	1.082816e-08	4.409088e+01	7.087497e+02
2.020000e-06	5.992165e-06	1.073295e-08	4.339143e+01	7.037429e+02
2.030000e-06	5.893496e-06	1.067306e-08	4.267693e+01	6.985765e+02
2.040000e-06	5.792808e-06	1.058650e-08	4.194781e+01	6.932315e+02
2.050000e-06	5.690011e-06	1.049530e-08	4.120342e+01	6.876908e+02
2.060000e-06	5.585145e-06	1.038978e-08	4.044405e+01	6.819411e+02
2.070000e-06	5.478405e-06	1.031054e-08	3.967111e+01	6.759748e+02
2.080000e-06	5.369808e-06	1.022323e-08	3.888472e+01	6.697907e+02
2.090000e-06	5.259207e-06	1.012697e-08	3.808382e+01	6.633935e+02
2.100000e-06	5.146590e-06	1.003838e-08	3.726831e+01	6.567928e+02
2.110000e-06	5.032112e-06	9.934838e-09	3.643934e+01	6.500010e+02
2.120000e-06	4.915751e-06	9.814900e-09	3.559672e+01	6.430304e+02
2.130000e-06	4.797390e-06	9.693840e-09	3.473963e+01	6.358903e+02
2.140000e-06	4.677136e-06	9.599049e-09	3.386883e+01	6.285851e+02
2.150000e-06	4.555252e-06	9.495430e-09	3.298622e+01	6.211116e+02
2.160000e-06	4.431819e-06	9.374220e-09	3.209240e+01	6.134594e+02
2.170000e-06	4.306740e-06	9.243811e-09	3.118666e+01	6.056104e+02
2.180000e-06	4.179952e-06	9.121028e-09	3.026854e+01	5.975410e+02
2.190000e-06	4.051538e-06	8.991322e-09	2.933864e+01	5.892246e+02
2.200000e-06	3.921740e-06	8.858720e-09	2.839873e+01	5.806347e+02
2.210000e-06	3.790587e-06	8.728111e-09	2.744901e+01	5.717480e+02
2.220000e-06	3.657983e-06	8.592950e-09	2.648877e+01	5.625471e+02
2.230000e-06	3.523966e-06	8.444572e-09	2.551831e+01	5.530223e+02
2.240000e-06	3.388611e-06	8.291681e-09	2.453816e+01	5.431719e+02
2.250000e-06	3.251969e-06	8.143735e-09	2.354868e+01	5.330014e+02
2.260000e-06	3.114183e-06	7.985688e-09	2.255092e+01	5.225214e+02
2.270000e-06	2.975230e-06	7.818655e-09	2.154471e+01	5.117438e+02
2.280000e-06	2.835053e-06	7.650166e-09	2.052964e+01	5.006787e+02
2.290000e-06	2.693719e-06	7.484483e-09	1.950619e+01	4.893301e+02
2.300000e-06	2.551373e-06	7.310887e-09	1.847541e+01	4.776937e+02
2.310000e-06	2.408064e-06	7.128512e-09	1.743766e+01	4.657544e+02
2.320000e-06	2.263839e-06	6.936429e-09	1.639327e+01	4.534870e+02
2.330000e-06	2.118925e-06	6.734274e-09	1.534390e+01	4.408571e+02
2.340000e-06	1.973335e-06	6.528464e-09	1.428963e+01	4.278248e+02
2.350000e-06	1.827077e-06	6.324395e-09	1.323052e+01	4.143483e+02
2.360000e-06	1.680252e-06	6.119071e-09	1.216731e+01	4.003890e+02
2.370000e-06	1.532984e-06	5.901084e-09	1.110089e+01	3.859152e+02
2.380000e-06	1.385327e-06	5.671755e-09	1.003165e+01	3.709050e+02
2.390000e-06	1.237158e-06	5.433948e-09	8.958711e+00	3.553479e+02
2.400000e-06	1.088452e-06	5.187803e-09	7.881870e+00	3.392433e+02
2.410000e-06	9.393790e-07	4.936642e-09	6.802382e+00	3.225973e+02
2.420000e-06	7.900201e-07	4.679489e-09	5.720821e+00	3.054174e+02
2.430000e-06	6.403850e-07	4.409474e-09	4.637259e+00	2.877056e+02
2.440000e-06	4.905810e-07	4.126841e-09	3.552474e+00	2.694518e+02
2.450000e-06	3.406743e-07	3.838582e-09	2.466946e+00	2.506273e+02
2.460000e-06	1.906395e-07	3.543403e-09	1.380489e+00	2.311807e+02
2.470000e-06	4.047214e-08	3.234693e-09	2.930734e-01	2.110363e+02
2.480000e-06	-1.097765e-07	2.910059e-09	-7.949313e-01	1.900967e+02
2.490000e-06	-2.600513e-07	2.572853e-09	-1.883126e+00	1.682488e+02
2.500000e-06	-4.102602e-07	2.222551e-09	-2.970842e+00	1.453737e+02
2.510000e-06	-5.603290e-07	1.856328e-09	-4.057545e+00	1.213589e+02
2.520000e-06	-7.101901e-07	1.474684e-09	-5.142743e+00	9.611366e+01
2.530000e-06	-8.598054e-07	1.076014e-09	-6.226161e+00	6.958256e+01
2.540000e-06	-1.009164e-06	6.553632e-10	-7.307723e+00	4.175918e+01
2.550000e-06	-1.158195e-06	2.150451e-10	-8.386904e+00	1.269587e+01
2.560000e-06	-1.306810e-06	-2.399360e-10	-9.463085e+00	-1.749075e+01
2.570000e-06	-1.454920e-06	-7.113249e-10	-1.053560e+01	-4.861963e+01
2.580000e-06	-1.602514e-06	-1.200466e-09	-1.160438e+01	-8.045093e+01
2.590000e-06	-1.749524e-06	-1.702733e-09	-1.266894e+01	-1.126970e+02
2.600000e-06	-1.895902e-06	-2.208289e-09	-1.372891e+01	-1.450382e+02
2.610000e-06	-2.041627e-06	-2.706849e-09	-1.478416e+01	-1.771413e+02
2.620000e-06	-2.186650e-06	-3.191625e-09	-1.583432e+01	-2.086798e+02
2.630000e-06	-2.330905e-06	-3.659375e-09	-1.687892e+01	-2.393537e+02
2.640000e-06	-2.474171e-06	-4.108847e-09	-1.791637e+01	-2.689061e+02
2.650000e-06	-2.616296e-06	-4.537730e-09	-1.894554e+01	-2.971369e+02
2.660000e-06	-2.757330e-06	-4.941598e-09	-1.996682e+01	-3.239100e+02
2.670000e-06	-2.897221e-06	-5.321278e-09	-2.097983e+01	-3.491566e+02
2.680000e-06	-3.035902e-06	-5.679798e-09	-2.198406e+01	-3.728708e+02
2.690000e-06	-3.173452e-06	-6.018842e-09	-2.298011e+01	-3.951018e+02
2.700000e-06	-3.309917e-06	-6.341189e-09	-2.396830e+01	-4.159421e+02
2.710000e-06	-3.445199e-06	-6.645368e-09	-2.494793e+01	-4.355127e+02
2.720000e-06	-3.579184e-06	-6.930129e-09	-2.591816e+01	-4.539483e+02
2.730000e-06	-3.711865e-06	-7.197101e-09	-2.687895e+01	-4.713839e+02
2.740000e-06	-3.843191e-06	-7.450860e-09	-2.782993e+01	-4.879426e+02
2.750000e-06	-3.973180e-06	-7.695794e-09	-2.877123e+01	-5.037282e+02
2.760000e-06	-4.101909e-06	-7.932334e-09	-2.970340e+01	-5.188199e+02
2.770000e-06	-4.229208e-06	-8.157242e-09	-3.062522e+01	-5.332724e+02
2.780000e-06	-4.354901e-06	-8.368993e-09	-3.153541e+01	-5.471184e+02
2.790000e-06	-4.479120e-06	-8.568281e-09	-3.243492e+01	-5.603732e+02
2.800000e-06	-4.601833e-06	-8.756155e-09	-3.332354e+01	-5.730417e+02
2.810000e-06	-4.722890e-06	-8.936798e-09	-3.420015e+01	-5.851250e+02
2.820000e-06	-4.842146e-06	-9.109916e-09	-3.506373e+01	-5.966260e+02
2.830000e-06	-4.959428e-06	-9.274541e-09	-3.591301e+01	-6.075542e+02
2.840000e-06	-5.074737e-06	-9.433346e-09	-3.674800e+01	-6.179281e+02
2.850000e-06	-5.188066e-06	-9.586660e-09	-3.756866e+01	-6.277751e+02
2.860000e-06	-5.299320e-06	-9.734232e-09	-3.837429e+01	-6.371305e+02
2.870000e-06	-5.408611e-06	-9.873136e-09	-3.916570e+01	-6.460341e+02
2.880000e-06	-5.516095e-06	-1.000377e-08	-3.994403e+01	-6.545263e+02
2.890000e-06	-5.621721e-06	-1.012793e-08	-4.070891e+01	-6.626452e+02
2.900000e-06	-5.725270e-06	-1.024618e-08	-4.145875e+01	-6.704224e+02
2.910000e-06	-5.826614e-06	-1.035961e-08	-4.219262e+01	-6.778821e+02
2.920000e-06	-5.925863e-06	-1.046766e-08	-4.291131e+01	-6.850396e+02
2.930000e-06	-6.023076e-06	-1.057213e-08	-4.361527e+01	-6.919027e+02
2.940000e-06	-6.118099e-06	-1.067191e-08	-4.430336e+01	-6.984736e+02
