# Temperatura_=_40.64
# Concentracion g/m^3_=_10000.0
# C_Vs_to_Am_M_A/Vsm_=_65563218390.804596
# pendiente_HvsI_1/m_=_3716.3
# ordenada_HvsI_A/m_=_1297.0
# frecuencia_Hz_=_302550.8067900702

Tiempo_(s)	Campo_(V.s)	Magnetizacion_(V.s)	Campo_(kA/m)	Magnetizacion_(A/m)
0.000000e+00	-7.903147e-06	-1.111592e-08	-5.685697e+01	-7.287114e+02
1.000000e-08	-7.899933e-06	-1.111829e-08	-5.683385e+01	-7.283815e+02
2.000000e-08	-7.894160e-06	-1.111171e-08	-5.679231e+01	-7.279308e+02
3.000000e-08	-7.885850e-06	-1.110539e-08	-5.673253e+01	-7.273736e+02
4.000000e-08	-7.874709e-06	-1.110121e-08	-5.665238e+01	-7.267265e+02
5.000000e-08	-7.860553e-06	-1.109312e-08	-5.655054e+01	-7.260055e+02
6.000000e-08	-7.843491e-06	-1.108074e-08	-5.642779e+01	-7.252253e+02
7.000000e-08	-7.824079e-06	-1.106721e-08	-5.628813e+01	-7.243969e+02
8.000000e-08	-7.802434e-06	-1.105014e-08	-5.613241e+01	-7.235272e+02
9.000000e-08	-7.778001e-06	-1.109171e-08	-5.595664e+01	-7.226184e+02
1.000000e-07	-7.750412e-06	-1.110382e-08	-5.575816e+01	-7.216681e+02
1.100000e-07	-7.719789e-06	-1.102438e-08	-5.553785e+01	-7.206700e+02
1.200000e-07	-7.686367e-06	-1.098154e-08	-5.529740e+01	-7.196145e+02
1.300000e-07	-7.650286e-06	-1.096772e-08	-5.503783e+01	-7.184906e+02
1.400000e-07	-7.611898e-06	-1.093197e-08	-5.476166e+01	-7.172860e+02
1.500000e-07	-7.571403e-06	-1.086383e-08	-5.447033e+01	-7.159888e+02
1.600000e-07	-7.528576e-06	-1.087541e-08	-5.416223e+01	-7.145877e+02
1.700000e-07	-7.483103e-06	-1.091466e-08	-5.383508e+01	-7.130727e+02
1.800000e-07	-7.434911e-06	-1.075068e-08	-5.348838e+01	-7.114351e+02
1.900000e-07	-7.383836e-06	-1.078378e-08	-5.312094e+01	-7.096670e+02
2.000000e-07	-7.329791e-06	-1.082158e-08	-5.273212e+01	-7.077619e+02
2.100000e-07	-7.272966e-06	-1.073622e-08	-5.232331e+01	-7.057141e+02
2.200000e-07	-7.213464e-06	-1.077584e-08	-5.189524e+01	-7.035189e+02
2.300000e-07	-7.151396e-06	-1.070310e-08	-5.144871e+01	-7.011724e+02
2.400000e-07	-7.086709e-06	-1.064086e-08	-5.098334e+01	-6.986724e+02
2.500000e-07	-7.019298e-06	-1.056231e-08	-5.049836e+01	-6.960181e+02
2.600000e-07	-6.949239e-06	-1.054376e-08	-4.999434e+01	-6.932109e+02
2.700000e-07	-6.876451e-06	-1.052521e-08	-4.947069e+01	-6.902543e+02
2.800000e-07	-6.800860e-06	-1.044605e-08	-4.892687e+01	-6.871539e+02
2.900000e-07	-6.722483e-06	-1.038330e-08	-4.836301e+01	-6.839169e+02
3.000000e-07	-6.641411e-06	-1.032320e-08	-4.777976e+01	-6.805512e+02
3.100000e-07	-6.558043e-06	-1.031600e-08	-4.718000e+01	-6.770647e+02
3.200000e-07	-6.472548e-06	-1.026184e-08	-4.656493e+01	-6.734639e+02
3.300000e-07	-6.384701e-06	-1.019584e-08	-4.593293e+01	-6.697526e+02
3.400000e-07	-6.294487e-06	-1.016130e-08	-4.528391e+01	-6.659311e+02
3.500000e-07	-6.202005e-06	-1.009948e-08	-4.461858e+01	-6.619957e+02
3.600000e-07	-6.107311e-06	-1.003372e-08	-4.393733e+01	-6.579385e+02
3.700000e-07	-6.010379e-06	-9.965153e-09	-4.323998e+01	-6.537482e+02
3.800000e-07	-5.911204e-06	-9.907001e-09	-4.252649e+01	-6.494108e+02
3.900000e-07	-5.809951e-06	-9.827778e-09	-4.179806e+01	-6.449115e+02
4.000000e-07	-5.706681e-06	-9.736343e-09	-4.105511e+01	-6.402364e+02
4.100000e-07	-5.601388e-06	-9.664970e-09	-4.029761e+01	-6.353739e+02
4.200000e-07	-5.494078e-06	-9.605262e-09	-3.952560e+01	-6.303166e+02
4.300000e-07	-5.384862e-06	-9.535534e-09	-3.873988e+01	-6.250614e+02
4.400000e-07	-5.273769e-06	-9.432423e-09	-3.794065e+01	-6.196101e+02
4.500000e-07	-5.160653e-06	-9.338328e-09	-3.712687e+01	-6.139683e+02
4.600000e-07	-5.045418e-06	-9.263593e-09	-3.629784e+01	-6.081446e+02
4.700000e-07	-4.928238e-06	-9.178840e-09	-3.545482e+01	-6.021477e+02
4.800000e-07	-4.809311e-06	-9.083626e-09	-3.459924e+01	-5.959851e+02
4.900000e-07	-4.688605e-06	-8.996010e-09	-3.373085e+01	-5.896606e+02
5.000000e-07	-4.566154e-06	-8.897438e-09	-3.284991e+01	-5.831727e+02
5.100000e-07	-4.442060e-06	-8.777524e-09	-3.195716e+01	-5.765136e+02
5.200000e-07	-4.316387e-06	-8.668150e-09	-3.105303e+01	-5.696696e+02
5.300000e-07	-4.189132e-06	-8.573212e-09	-3.013753e+01	-5.626214e+02
5.400000e-07	-4.060391e-06	-8.462192e-09	-2.921134e+01	-5.553465e+02
5.500000e-07	-3.930170e-06	-8.332683e-09	-2.827450e+01	-5.478210e+02
5.600000e-07	-3.798400e-06	-8.214699e-09	-2.732652e+01	-5.400226e+02
5.700000e-07	-3.665186e-06	-8.107062e-09	-2.636815e+01	-5.319326e+02
5.800000e-07	-3.530614e-06	-7.978334e-09	-2.540001e+01	-5.235379e+02
5.900000e-07	-3.394706e-06	-7.839808e-09	-2.442226e+01	-5.148321e+02
6.000000e-07	-3.257492e-06	-7.706424e-09	-2.343511e+01	-5.058144e+02
6.100000e-07	-3.118972e-06	-7.566370e-09	-2.243857e+01	-4.964892e+02
6.200000e-07	-2.979084e-06	-7.413471e-09	-2.143218e+01	-4.868633e+02
6.300000e-07	-2.837848e-06	-7.259793e-09	-2.041610e+01	-4.769428e+02
6.400000e-07	-2.695447e-06	-7.107212e-09	-1.939163e+01	-4.667306e+02
6.500000e-07	-2.552064e-06	-6.940952e-09	-1.836010e+01	-4.562232e+02
6.600000e-07	-2.407777e-06	-6.767190e-09	-1.732208e+01	-4.454092e+02
6.700000e-07	-2.262579e-06	-6.595299e-09	-1.627749e+01	-4.342682e+02
6.800000e-07	-2.116534e-06	-6.423952e-09	-1.522681e+01	-4.227720e+02
6.900000e-07	-1.969786e-06	-6.245347e-09	-1.417107e+01	-4.108865e+02
7.000000e-07	-1.822457e-06	-6.059099e-09	-1.311116e+01	-3.985747e+02
7.100000e-07	-1.674600e-06	-5.863523e-09	-1.204744e+01	-3.858005e+02
7.200000e-07	-1.526253e-06	-5.659355e-09	-1.098020e+01	-3.725325e+02
7.300000e-07	-1.377488e-06	-5.451066e-09	-9.909947e+00	-3.587470e+02
7.400000e-07	-1.228294e-06	-5.234911e-09	-8.836618e+00	-3.444297e+02
7.500000e-07	-1.078694e-06	-5.009126e-09	-7.760360e+00	-3.295755e+02
7.600000e-07	-9.287141e-07	-4.775309e-09	-6.681373e+00	-3.141870e+02
7.700000e-07	-7.783788e-07	-4.535462e-09	-5.599828e+00	-2.982703e+02
7.800000e-07	-6.277795e-07	-4.284590e-09	-4.516383e+00	-2.818298e+02
7.900000e-07	-4.769726e-07	-4.025345e-09	-3.431446e+00	-2.648627e+02
8.000000e-07	-3.260071e-07	-3.761362e-09	-2.345367e+00	-2.473525e+02
8.100000e-07	-1.749034e-07	-3.487685e-09	-1.258294e+00	-2.292650e+02
8.200000e-07	-2.373650e-08	-3.197510e-09	-1.707656e-01	-2.105458e+02
8.300000e-07	1.274705e-07	-2.894852e-09	9.170510e-01	-1.911200e+02
8.400000e-07	2.787080e-07	-2.584603e-09	2.005087e+00	-1.708968e+02
8.500000e-07	4.298663e-07	-2.260569e-09	3.092552e+00	-1.497755e+02
8.600000e-07	5.808951e-07	-1.920663e-09	4.179086e+00	-1.276562e+02
8.700000e-07	7.318143e-07	-1.566853e-09	5.264833e+00	-1.044510e+02
8.800000e-07	8.825433e-07	-1.200739e-09	6.349209e+00	-8.009716e+01
8.900000e-07	1.032967e-06	-8.157843e-10	7.431393e+00	-5.456943e+01
9.000000e-07	1.183045e-06	-4.103389e-10	8.511083e+00	-2.789019e+01
9.100000e-07	1.332671e-06	9.820364e-12	9.587526e+00	-1.365991e-01
9.200000e-07	1.481788e-06	4.441636e-10	1.066031e+01	2.855665e+01
9.300000e-07	1.630411e-06	8.945320e-10	1.172953e+01	5.799952e+01
9.400000e-07	1.778559e-06	1.357038e-09	1.279535e+01	8.795378e+01
9.500000e-07	1.926109e-06	1.820395e-09	1.385685e+01	1.181446e+02
9.600000e-07	2.072921e-06	2.280742e-09	1.491305e+01	1.482758e+02
9.700000e-07	2.218939e-06	2.735594e-09	1.596354e+01	1.780471e+02
9.800000e-07	2.364119e-06	3.178987e-09	1.700799e+01	2.071717e+02
9.900000e-07	2.508425e-06	3.605308e-09	1.804616e+01	2.353935e+02
1.000000e-06	2.651749e-06	4.013935e-09	1.907726e+01	2.625001e+02
1.010000e-06	2.794039e-06	4.402105e-09	2.010093e+01	2.883334e+02
1.020000e-06	2.935216e-06	4.770877e-09	2.111659e+01	3.127942e+02
1.030000e-06	3.075211e-06	5.121317e-09	2.212374e+01	3.358421e+02
1.040000e-06	3.213895e-06	5.451002e-09	2.312146e+01	3.574912e+02
1.050000e-06	3.351218e-06	5.759657e-09	2.410940e+01	3.778007e+02
1.060000e-06	3.487272e-06	6.047905e-09	2.508820e+01	3.968632e+02
1.070000e-06	3.622002e-06	6.322637e-09	2.605748e+01	4.147922e+02
1.080000e-06	3.755440e-06	6.582796e-09	2.701746e+01	4.317082e+02
1.090000e-06	3.887625e-06	6.828422e-09	2.796843e+01	4.477276e+02
1.100000e-06	4.018404e-06	7.061187e-09	2.890928e+01	4.629533e+02
1.110000e-06	4.147708e-06	7.282223e-09	2.983952e+01	4.774684e+02
1.120000e-06	4.275570e-06	7.493346e-09	3.075938e+01	4.913340e+02
1.130000e-06	4.401971e-06	7.693299e-09	3.166874e+01	5.045897e+02
1.140000e-06	4.526905e-06	7.882867e-09	3.256755e+01	5.172568e+02
1.150000e-06	4.650282e-06	8.063969e-09	3.345515e+01	5.293435e+02
1.160000e-06	4.771971e-06	8.236743e-09	3.433060e+01	5.408516e+02
1.170000e-06	4.891967e-06	8.400933e-09	3.519388e+01	5.517818e+02
1.180000e-06	5.010199e-06	8.557472e-09	3.604447e+01	5.621392e+02
1.190000e-06	5.126535e-06	8.707596e-09	3.688141e+01	5.719367e+02
1.200000e-06	5.240833e-06	8.850179e-09	3.770370e+01	5.811967e+02
1.210000e-06	5.353098e-06	8.985166e-09	3.851136e+01	5.899507e+02
1.220000e-06	5.463457e-06	9.113404e-09	3.930530e+01	5.982371e+02
1.230000e-06	5.571959e-06	9.235775e-09	4.008589e+01	6.060985e+02
1.240000e-06	5.678477e-06	9.351988e-09	4.085220e+01	6.135776e+02
1.250000e-06	5.782880e-06	9.462150e-09	4.160331e+01	6.207139e+02
1.260000e-06	5.885157e-06	9.566654e-09	4.233911e+01	6.275408e+02
1.270000e-06	5.985303e-06	9.664962e-09	4.305958e+01	6.340834e+02
1.280000e-06	6.083192e-06	9.757330e-09	4.376381e+01	6.403587e+02
1.290000e-06	6.178702e-06	9.845785e-09	4.445093e+01	6.463754e+02
1.300000e-06	6.272031e-06	9.931362e-09	4.512237e+01	6.521366e+02
1.310000e-06	6.363233e-06	1.001501e-08	4.577849e+01	6.576415e+02
1.320000e-06	6.452107e-06	1.009640e-08	4.641787e+01	6.628885e+02
1.330000e-06	6.538627e-06	1.017177e-08	4.704031e+01	6.678775e+02
1.340000e-06	6.622886e-06	1.024209e-08	4.764649e+01	6.726115e+02
1.350000e-06	6.704843e-06	1.030905e-08	4.823611e+01	6.770976e+02
1.360000e-06	6.784338e-06	1.037400e-08	4.880801e+01	6.813468e+02
1.370000e-06	6.861250e-06	1.043729e-08	4.936133e+01	6.853732e+02
1.380000e-06	6.935515e-06	1.049814e-08	4.989561e+01	6.891922e+02
1.390000e-06	7.007207e-06	1.055565e-08	5.041138e+01	6.928189e+02
1.400000e-06	7.076491e-06	1.060963e-08	5.090982e+01	6.962656e+02
1.410000e-06	7.143261e-06	1.065959e-08	5.139018e+01	6.995410e+02
1.420000e-06	7.207396e-06	1.070526e-08	5.185158e+01	7.026490e+02
1.430000e-06	7.269050e-06	1.074701e-08	5.229513e+01	7.055890e+02
1.440000e-06	7.328266e-06	1.078578e-08	5.272115e+01	7.083566e+02
1.450000e-06	7.384864e-06	1.082404e-08	5.312833e+01	7.109453e+02
1.460000e-06	7.438751e-06	1.085945e-08	5.351600e+01	7.133481e+02
1.470000e-06	7.489701e-06	1.089119e-08	5.388254e+01	7.155599e+02
1.480000e-06	7.537659e-06	1.092078e-08	5.422757e+01	7.175790e+02
1.490000e-06	7.582913e-06	1.094809e-08	5.455314e+01	7.194080e+02
1.500000e-06	7.625492e-06	1.097408e-08	5.485945e+01	7.210550e+02
1.510000e-06	7.665275e-06	1.099667e-08	5.514567e+01	7.225323e+02
1.520000e-06	7.702367e-06	1.101624e-08	5.541251e+01	7.238556e+02
1.530000e-06	7.736776e-06	1.103494e-08	5.566006e+01	7.250423e+02
1.540000e-06	7.768382e-06	1.105203e-08	5.588744e+01	7.261096e+02
1.550000e-06	7.797306e-06	1.106826e-08	5.609552e+01	7.270718e+02
1.560000e-06	7.823462e-06	1.108318e-08	5.628370e+01	7.279395e+02
1.570000e-06	7.846693e-06	1.109580e-08	5.645083e+01	7.287177e+02
1.580000e-06	7.867204e-06	1.110605e-08	5.659839e+01	7.294061e+02
1.590000e-06	7.884964e-06	1.111312e-08	5.672615e+01	7.299995e+02
1.600000e-06	7.899750e-06	1.111932e-08	5.683253e+01	7.304889e+02
1.610000e-06	7.911421e-06	1.112645e-08	5.691650e+01	7.308633e+02
1.620000e-06	7.919987e-06	1.113201e-08	5.697812e+01	7.311120e+02
1.630000e-06	7.925688e-06	1.113537e-08	5.701913e+01	7.312263e+02
1.640000e-06	7.928632e-06	1.113661e-08	5.704031e+01	7.312013e+02
1.650000e-06	7.928797e-06	1.113834e-08	5.704150e+01	7.310370e+02
1.660000e-06	7.926336e-06	1.113085e-08	5.702380e+01	7.307386e+02
1.670000e-06	7.921264e-06	1.112009e-08	5.698731e+01	7.303161e+02
1.680000e-06	7.913461e-06	1.111310e-08	5.693117e+01	7.297834e+02
1.690000e-06	7.903016e-06	1.110291e-08	5.685602e+01	7.291564e+02
1.700000e-06	7.889794e-06	1.109293e-08	5.676090e+01	7.284518e+02
1.710000e-06	7.873853e-06	1.108796e-08	5.664622e+01	7.276845e+02
1.720000e-06	7.855541e-06	1.108220e-08	5.651448e+01	7.268666e+02
1.730000e-06	7.834901e-06	1.105330e-08	5.636599e+01	7.260061e+02
1.740000e-06	7.811513e-06	1.094761e-08	5.619773e+01	7.251065e+02
1.750000e-06	7.784753e-06	1.095783e-08	5.600522e+01	7.241663e+02
1.760000e-06	7.754419e-06	1.100429e-08	5.578699e+01	7.231802e+02
1.770000e-06	7.721087e-06	1.096974e-08	5.554719e+01	7.221394e+02
1.780000e-06	7.685437e-06	1.095600e-08	5.529071e+01	7.210330e+02
1.790000e-06	7.647446e-06	1.103168e-08	5.501740e+01	7.198490e+02
1.800000e-06	7.607318e-06	1.099802e-08	5.472871e+01	7.185753e+02
1.810000e-06	7.565140e-06	1.086841e-08	5.442527e+01	7.172005e+02
1.820000e-06	7.520391e-06	1.100605e-08	5.410334e+01	7.157142e+02
1.830000e-06	7.473026e-06	1.091659e-08	5.376258e+01	7.141072e+02
1.840000e-06	7.422839e-06	1.088652e-08	5.340153e+01	7.123717e+02
1.850000e-06	7.369568e-06	1.089098e-08	5.301828e+01	7.105007e+02
1.860000e-06	7.313519e-06	1.072539e-08	5.261506e+01	7.084884e+02
1.870000e-06	7.254894e-06	1.078109e-08	5.219330e+01	7.063297e+02
1.880000e-06	7.193644e-06	1.069799e-08	5.175265e+01	7.040206e+02
1.890000e-06	7.129590e-06	1.074018e-08	5.129183e+01	7.015584e+02
1.900000e-06	7.062783e-06	1.074122e-08	5.081121e+01	6.989419e+02
1.910000e-06	6.993238e-06	1.059872e-08	5.031089e+01	6.961720e+02
1.920000e-06	6.920906e-06	1.058451e-08	4.979051e+01	6.932517e+02
1.930000e-06	6.845975e-06	1.050194e-08	4.925144e+01	6.901859e+02
1.940000e-06	6.768293e-06	1.052883e-08	4.869258e+01	6.869815e+02
1.950000e-06	6.687930e-06	1.045926e-08	4.811443e+01	6.836465e+02
1.960000e-06	6.605203e-06	1.039559e-08	4.751928e+01	6.801889e+02
1.970000e-06	6.520120e-06	1.035704e-08	4.690717e+01	6.766155e+02
1.980000e-06	6.432583e-06	1.023357e-08	4.627741e+01	6.729309e+02
1.990000e-06	6.342669e-06	1.020768e-08	4.563055e+01	6.691364e+02
2.000000e-06	6.250567e-06	1.015007e-08	4.496795e+01	6.652294e+02
2.010000e-06	6.156227e-06	1.012260e-08	4.428924e+01	6.612029e+02
2.020000e-06	6.059666e-06	1.002103e-08	4.359457e+01	6.570464e+02
2.030000e-06	5.960968e-06	9.940466e-09	4.288451e+01	6.527464e+02
2.040000e-06	5.860179e-06	9.883295e-09	4.215941e+01	6.482883e+02
2.050000e-06	5.757264e-06	9.818640e-09	4.141902e+01	6.436576e+02
2.060000e-06	5.652290e-06	9.752138e-09	4.066381e+01	6.388422e+02
2.070000e-06	5.545409e-06	9.649285e-09	3.989488e+01	6.338333e+02
2.080000e-06	5.436652e-06	9.587062e-09	3.911247e+01	6.286269e+02
2.090000e-06	5.325986e-06	9.503971e-09	3.831631e+01	6.232235e+02
2.100000e-06	5.213354e-06	9.431190e-09	3.750601e+01	6.176279e+02
2.110000e-06	5.098762e-06	9.354645e-09	3.668161e+01	6.118481e+02
2.120000e-06	4.982146e-06	9.269918e-09	3.584265e+01	6.058930e+02
2.130000e-06	4.863534e-06	9.143012e-09	3.498933e+01	5.997706e+02
2.140000e-06	4.743083e-06	9.028272e-09	3.412278e+01	5.934858e+02
2.150000e-06	4.620939e-06	8.946019e-09	3.324404e+01	5.870385e+02
2.160000e-06	4.497081e-06	8.869140e-09	3.235298e+01	5.804226e+02
2.170000e-06	4.371593e-06	8.768712e-09	3.145020e+01	5.736258e+02
2.180000e-06	4.244511e-06	8.648097e-09	3.053594e+01	5.666300e+02
2.190000e-06	4.115826e-06	8.538129e-09	2.961016e+01	5.594132e+02
2.200000e-06	3.985718e-06	8.418546e-09	2.867412e+01	5.519519e+02
2.210000e-06	3.854125e-06	8.303716e-09	2.772742e+01	5.442229e+02
2.220000e-06	3.721027e-06	8.188262e-09	2.676989e+01	5.362065e+02
2.230000e-06	3.586500e-06	8.063163e-09	2.580206e+01	5.278882e+02
2.240000e-06	3.450631e-06	7.913377e-09	2.482459e+01	5.192597e+02
2.250000e-06	3.313501e-06	7.768713e-09	2.383805e+01	5.103191e+02
2.260000e-06	3.175133e-06	7.640148e-09	2.284260e+01	5.010695e+02
2.270000e-06	3.035518e-06	7.511693e-09	2.183818e+01	4.915174e+02
2.280000e-06	2.894737e-06	7.364070e-09	2.082537e+01	4.816694e+02
2.290000e-06	2.752862e-06	7.207535e-09	1.980469e+01	4.715294e+02
2.300000e-06	2.609886e-06	7.051614e-09	1.877609e+01	4.610959e+02
2.310000e-06	2.465936e-06	6.891309e-09	1.774048e+01	4.503594e+02
2.320000e-06	2.321118e-06	6.726532e-09	1.669863e+01	4.393018e+02
2.330000e-06	2.175486e-06	6.546746e-09	1.565092e+01	4.278967e+02
2.340000e-06	2.029123e-06	6.351574e-09	1.459795e+01	4.161113e+02
2.350000e-06	1.882113e-06	6.152744e-09	1.354033e+01	4.039088e+02
2.360000e-06	1.734486e-06	5.962327e-09	1.247827e+01	3.912527e+02
2.370000e-06	1.586287e-06	5.775103e-09	1.141210e+01	3.781100e+02
2.380000e-06	1.437612e-06	5.576825e-09	1.034249e+01	3.644549e+02
2.390000e-06	1.288537e-06	5.359932e-09	9.270016e+00	3.502706e+02
2.400000e-06	1.139014e-06	5.129078e-09	8.194318e+00	3.355499e+02
2.410000e-06	9.890642e-07	4.893332e-09	7.115544e+00	3.202938e+02
2.420000e-06	8.387864e-07	4.657791e-09	6.034413e+00	3.045079e+02
2.430000e-06	6.882366e-07	4.415290e-09	4.951325e+00	2.881975e+02
2.440000e-06	5.374914e-07	4.155895e-09	3.866831e+00	2.713623e+02
2.450000e-06	3.865290e-07	3.882541e-09	2.780774e+00	2.539896e+02
2.460000e-06	2.353589e-07	3.605822e-09	1.693223e+00	2.360500e+02
2.470000e-06	8.404554e-08	3.325816e-09	6.046420e-01	2.174943e+02
2.480000e-06	-6.733277e-08	3.034925e-09	-4.844067e-01	1.982524e+02
2.490000e-06	-2.187229e-07	2.729647e-09	-1.573540e+00	1.782370e+02
2.500000e-06	-3.700645e-07	2.408120e-09	-2.662325e+00	1.573492e+02
2.510000e-06	-5.212585e-07	2.069532e-09	-3.750048e+00	1.354876e+02
2.520000e-06	-6.722678e-07	1.717041e-09	-4.836441e+00	1.125602e+02
2.530000e-06	-8.230925e-07	1.353920e-09	-5.921508e+00	8.849689e+01
2.540000e-06	-9.736844e-07	9.754143e-10	-7.004898e+00	6.326185e+01
2.550000e-06	-1.123867e-06	5.752039e-10	-8.085343e+00	3.686476e+01
2.560000e-06	-1.273557e-06	1.579384e-10	-9.162249e+00	9.368682e+00
2.570000e-06	-1.422751e-06	-2.687154e-10	-1.023558e+01	-1.910609e+01
2.580000e-06	-1.571436e-06	-7.088322e-10	-1.130525e+01	-4.838288e+01
2.590000e-06	-1.719588e-06	-1.165985e-09	-1.237109e+01	-7.823457e+01
2.600000e-06	-1.867122e-06	-1.635118e-09	-1.343249e+01	-1.083942e+02
2.610000e-06	-2.014000e-06	-2.106733e-09	-1.448915e+01	-1.385693e+02
2.620000e-06	-2.160120e-06	-2.572562e-09	-1.554038e+01	-1.684590e+02
2.630000e-06	-2.305400e-06	-3.025251e-09	-1.658555e+01	-1.977715e+02
2.640000e-06	-2.449835e-06	-3.458571e-09	-1.762465e+01	-2.262415e+02
2.650000e-06	-2.593332e-06	-3.874506e-09	-1.865699e+01	-2.536446e+02
2.660000e-06	-2.735756e-06	-4.271452e-09	-1.968163e+01	-2.798086e+02
2.670000e-06	-2.877051e-06	-4.644150e-09	-2.069813e+01	-3.046192e+02
2.680000e-06	-3.017123e-06	-4.992405e-09	-2.170584e+01	-3.280218e+02
2.690000e-06	-3.156007e-06	-5.321516e-09	-2.270500e+01	-3.500174e+02
2.700000e-06	-3.293717e-06	-5.637095e-09	-2.369572e+01	-3.706548e+02
2.710000e-06	-3.430204e-06	-5.937585e-09	-2.467764e+01	-3.900197e+02
2.720000e-06	-3.565421e-06	-6.221695e-09	-2.565042e+01	-4.082216e+02
2.730000e-06	-3.699262e-06	-6.488920e-09	-2.661330e+01	-4.253802e+02
2.740000e-06	-3.831767e-06	-6.740232e-09	-2.756657e+01	-4.416142e+02
2.750000e-06	-3.962945e-06	-6.979178e-09	-2.851030e+01	-4.570304e+02
2.760000e-06	-4.092716e-06	-7.207839e-09	-2.944390e+01	-4.717172e+02
2.770000e-06	-4.221127e-06	-7.425757e-09	-3.036771e+01	-4.857415e+02
2.780000e-06	-4.348135e-06	-7.629671e-09	-3.128143e+01	-4.991477e+02
2.790000e-06	-4.473593e-06	-7.821239e-09	-3.218400e+01	-5.119614e+02
2.800000e-06	-4.597552e-06	-8.002564e-09	-3.307579e+01	-5.241937e+02
2.810000e-06	-4.719915e-06	-8.176200e-09	-3.395610e+01	-5.358471e+02
2.820000e-06	-4.840543e-06	-8.344317e-09	-3.482393e+01	-5.469222e+02
2.830000e-06	-4.959341e-06	-8.504231e-09	-3.567859e+01	-5.574227e+02
2.840000e-06	-5.076131e-06	-8.655179e-09	-3.651880e+01	-5.673591e+02
2.850000e-06	-5.190789e-06	-8.799528e-09	-3.734367e+01	-5.767516e+02
2.860000e-06	-5.303330e-06	-8.939675e-09	-3.815331e+01	-5.856294e+02
2.870000e-06	-5.413842e-06	-9.072462e-09	-3.894836e+01	-5.940295e+02
2.880000e-06	-5.522417e-06	-9.195316e-09	-3.972948e+01	-6.019938e+02
2.890000e-06	-5.629124e-06	-9.308581e-09	-4.049715e+01	-6.095653e+02
2.900000e-06	-5.733926e-06	-9.415709e-09	-4.125112e+01	-6.167846e+02
2.910000e-06	-5.836573e-06	-9.519770e-09	-4.198959e+01	-6.236869e+02
2.920000e-06	-5.936974e-06	-9.621020e-09	-4.271189e+01	-6.302994e+02
2.930000e-06	-6.035261e-06	-9.719883e-09	-4.341899e+01	-6.366410e+02
2.940000e-06	-6.131425e-06	-9.814310e-09	-4.411081e+01	-6.427226e+02
