# Temperatura_=_60.25
# Concentracion g/m^3_=_10000.0
# C_Vs_to_Am_M_A/Vsm_=_65563218390.804596
# pendiente_HvsI_1/m_=_3716.3
# ordenada_HvsI_A/m_=_1297.0
# frecuencia_Hz_=_302548.99649175873

Tiempo_(s)	Campo_(V.s)	Magnetizacion_(V.s)	Campo_(kA/m)	Magnetizacion_(A/m)
0.000000e+00	-7.917806e-06	-1.180282e-08	-5.685178e+01	-7.736023e+02
1.000000e-08	-7.914162e-06	-1.179988e-08	-5.682562e+01	-7.732219e+02
2.000000e-08	-7.907893e-06	-1.179477e-08	-5.678061e+01	-7.727049e+02
3.000000e-08	-7.899006e-06	-1.178894e-08	-5.671679e+01	-7.720656e+02
4.000000e-08	-7.887322e-06	-1.178050e-08	-5.663290e+01	-7.713200e+02
5.000000e-08	-7.872686e-06	-1.176938e-08	-5.652781e+01	-7.704849e+02
6.000000e-08	-7.855228e-06	-1.175795e-08	-5.640246e+01	-7.695757e+02
7.000000e-08	-7.835427e-06	-1.174462e-08	-5.626028e+01	-7.686051e+02
8.000000e-08	-7.813314e-06	-1.173985e-08	-5.610151e+01	-7.675819e+02
9.000000e-08	-7.788298e-06	-1.175831e-08	-5.592188e+01	-7.665109e+02
1.000000e-07	-7.760065e-06	-1.173794e-08	-5.571917e+01	-7.653922e+02
1.100000e-07	-7.728877e-06	-1.168534e-08	-5.549523e+01	-7.642220e+02
1.200000e-07	-7.694932e-06	-1.164752e-08	-5.525150e+01	-7.629928e+02
1.300000e-07	-7.658367e-06	-1.161793e-08	-5.498895e+01	-7.616943e+02
1.400000e-07	-7.619468e-06	-1.158192e-08	-5.470964e+01	-7.603142e+02
1.500000e-07	-7.578428e-06	-1.153625e-08	-5.441497e+01	-7.588387e+02
1.600000e-07	-7.535023e-06	-1.153757e-08	-5.410331e+01	-7.572534e+02
1.700000e-07	-7.488949e-06	-1.151247e-08	-5.377249e+01	-7.555435e+02
1.800000e-07	-7.440096e-06	-1.144723e-08	-5.342171e+01	-7.536947e+02
1.900000e-07	-7.388291e-06	-1.145432e-08	-5.304974e+01	-7.516932e+02
2.000000e-07	-7.333593e-06	-1.140848e-08	-5.265700e+01	-7.495264e+02
2.100000e-07	-7.276192e-06	-1.136086e-08	-5.224484e+01	-7.471838e+02
2.200000e-07	-7.216135e-06	-1.134234e-08	-5.181362e+01	-7.446570e+02
2.300000e-07	-7.153524e-06	-1.127855e-08	-5.136406e+01	-7.419406e+02
2.400000e-07	-7.088279e-06	-1.123732e-08	-5.089558e+01	-7.390331e+02
2.500000e-07	-7.020284e-06	-1.118533e-08	-5.040736e+01	-7.359365e+02
2.600000e-07	-6.949649e-06	-1.114642e-08	-4.990018e+01	-7.326569e+02
2.700000e-07	-6.876250e-06	-1.109994e-08	-4.937316e+01	-7.292040e+02
2.800000e-07	-6.800044e-06	-1.104077e-08	-4.882598e+01	-7.255898e+02
2.900000e-07	-6.721045e-06	-1.097523e-08	-4.825875e+01	-7.218279e+02
3.000000e-07	-6.639411e-06	-1.091817e-08	-4.767259e+01	-7.179318e+02
3.100000e-07	-6.555538e-06	-1.087219e-08	-4.707037e+01	-7.139130e+02
3.200000e-07	-6.469488e-06	-1.079645e-08	-4.645251e+01	-7.097796e+02
3.300000e-07	-6.381125e-06	-1.073987e-08	-4.581804e+01	-7.055350e+02
3.400000e-07	-6.290424e-06	-1.068930e-08	-4.516678e+01	-7.011770e+02
3.500000e-07	-6.197446e-06	-1.061378e-08	-4.449918e+01	-6.966981e+02
3.600000e-07	-6.102251e-06	-1.053675e-08	-4.381566e+01	-6.920860e+02
3.700000e-07	-6.004787e-06	-1.046724e-08	-4.311584e+01	-6.873247e+02
3.800000e-07	-5.905011e-06	-1.039493e-08	-4.239942e+01	-6.823967e+02
3.900000e-07	-5.803165e-06	-1.030845e-08	-4.166815e+01	-6.772853e+02
4.000000e-07	-5.699320e-06	-1.022496e-08	-4.092252e+01	-6.719763e+02
4.100000e-07	-5.593423e-06	-1.014230e-08	-4.016215e+01	-6.664599e+02
4.200000e-07	-5.485512e-06	-1.005759e-08	-3.938732e+01	-6.607320e+02
4.300000e-07	-5.375736e-06	-9.965813e-09	-3.859910e+01	-6.547941e+02
4.400000e-07	-5.264092e-06	-9.877265e-09	-3.779747e+01	-6.486526e+02
4.500000e-07	-5.150357e-06	-9.791600e-09	-3.698083e+01	-6.423177e+02
4.600000e-07	-5.034595e-06	-9.691853e-09	-3.614963e+01	-6.358006e+02
4.700000e-07	-4.916939e-06	-9.584484e-09	-3.530483e+01	-6.291114e+02
4.800000e-07	-4.797464e-06	-9.482113e-09	-3.444697e+01	-6.222563e+02
4.900000e-07	-4.676223e-06	-9.376219e-09	-3.357642e+01	-6.152360e+02
5.000000e-07	-4.553326e-06	-9.257504e-09	-3.269399e+01	-6.080442e+02
5.100000e-07	-4.428806e-06	-9.140662e-09	-3.179991e+01	-6.006674e+02
5.200000e-07	-4.302655e-06	-9.029535e-09	-3.089411e+01	-5.930863e+02
5.300000e-07	-4.174883e-06	-8.913508e-09	-2.997668e+01	-5.852769e+02
5.400000e-07	-4.045529e-06	-8.786088e-09	-2.904789e+01	-5.772139e+02
5.500000e-07	-3.914691e-06	-8.658486e-09	-2.810844e+01	-5.688733e+02
5.600000e-07	-3.782358e-06	-8.529787e-09	-2.715826e+01	-5.602352e+02
5.700000e-07	-3.648643e-06	-8.391176e-09	-2.619815e+01	-5.512862e+02
5.800000e-07	-3.513624e-06	-8.245128e-09	-2.522868e+01	-5.420201e+02
5.900000e-07	-3.377187e-06	-8.101195e-09	-2.424903e+01	-5.324382e+02
6.000000e-07	-3.239332e-06	-7.957456e-09	-2.325919e+01	-5.225478e+02
6.100000e-07	-3.100193e-06	-7.803222e-09	-2.226014e+01	-5.123597e+02
6.200000e-07	-2.959816e-06	-7.641756e-09	-2.125220e+01	-5.018846e+02
6.300000e-07	-2.818128e-06	-7.477231e-09	-2.023485e+01	-4.911297e+02
6.400000e-07	-2.675209e-06	-7.307835e-09	-1.920866e+01	-4.800954e+02
6.500000e-07	-2.531291e-06	-7.131840e-09	-1.817529e+01	-4.687728e+02
6.600000e-07	-2.386512e-06	-6.952930e-09	-1.713574e+01	-4.571427e+02
6.700000e-07	-2.240939e-06	-6.770701e-09	-1.609049e+01	-4.451760e+02
6.800000e-07	-2.094567e-06	-6.582496e-09	-1.503950e+01	-4.328357e+02
6.900000e-07	-1.947462e-06	-6.388677e-09	-1.398325e+01	-4.200807e+02
7.000000e-07	-1.799783e-06	-6.185771e-09	-1.292288e+01	-4.068696e+02
7.100000e-07	-1.651586e-06	-5.974013e-09	-1.185879e+01	-3.931654e+02
7.200000e-07	-1.502893e-06	-5.756528e-09	-1.079114e+01	-3.789392e+02
7.300000e-07	-1.353746e-06	-5.535024e-09	-9.720225e+00	-3.641730e+02
7.400000e-07	-1.204157e-06	-5.304537e-09	-8.646144e+00	-3.488596e+02
7.500000e-07	-1.054158e-06	-5.064423e-09	-7.569109e+00	-3.330017e+02
7.600000e-07	-9.037767e-07	-4.817044e-09	-6.489338e+00	-3.166074e+02
7.700000e-07	-7.531039e-07	-4.560599e-09	-5.407470e+00	-2.996853e+02
7.800000e-07	-6.022116e-07	-4.294277e-09	-4.324027e+00	-2.822371e+02
7.900000e-07	-4.511023e-07	-4.019498e-09	-3.239025e+00	-2.642508e+02
8.000000e-07	-2.998362e-07	-3.738933e-09	-2.152898e+00	-2.456954e+02
8.100000e-07	-1.484447e-07	-3.445278e-09	-1.065869e+00	-2.265165e+02
8.200000e-07	3.053501e-09	-3.135347e-09	2.192489e-02	-2.066357e+02
8.300000e-07	1.545624e-07	-2.814280e-09	1.109796e+00	-1.859537e+02
8.400000e-07	3.060242e-07	-2.480918e-09	2.197329e+00	-1.643569e+02
8.500000e-07	4.574084e-07	-2.131018e-09	3.284304e+00	-1.417273e+02
8.600000e-07	6.086869e-07	-1.765378e-09	4.370521e+00	-1.179556e+02
8.700000e-07	7.598557e-07	-1.387273e-09	5.455950e+00	-9.295556e+01
8.800000e-07	9.108915e-07	-9.951109e-10	6.540424e+00	-6.667792e+01
8.900000e-07	1.061622e-06	-5.846136e-10	7.622707e+00	-3.912315e+01
9.000000e-07	1.211923e-06	-1.536572e-10	8.701901e+00	-1.035065e+01
9.100000e-07	1.361781e-06	2.974934e-10	9.777924e+00	1.951652e+01
9.200000e-07	1.511096e-06	7.659297e-10	1.085004e+01	5.029214e+01
9.300000e-07	1.659827e-06	1.249740e-09	1.191796e+01	8.173311e+01
9.400000e-07	1.808002e-06	1.744312e-09	1.298190e+01	1.135509e+02
9.500000e-07	1.955559e-06	2.238414e-09	1.404139e+01	1.454271e+02
9.600000e-07	2.102438e-06	2.725472e-09	1.509602e+01	1.770327e+02
9.700000e-07	2.248607e-06	3.198653e-09	1.614555e+01	2.080471e+02
9.800000e-07	2.393918e-06	3.652828e-09	1.718892e+01	2.381777e+02
9.900000e-07	2.538263e-06	4.087264e-09	1.822535e+01	2.671763e+02
1.000000e-06	2.681667e-06	4.500920e-09	1.925502e+01	2.948514e+02
1.010000e-06	2.824071e-06	4.893928e-09	2.027752e+01	3.210756e+02
1.020000e-06	2.965324e-06	5.266960e-09	2.129175e+01	3.457873e+02
1.030000e-06	3.105344e-06	5.619563e-09	2.229713e+01	3.689867e+02
1.040000e-06	3.244132e-06	5.949575e-09	2.329366e+01	3.907275e+02
1.050000e-06	3.381636e-06	6.258446e-09	2.428097e+01	4.111045e+02
1.060000e-06	3.517764e-06	6.550869e-09	2.525841e+01	4.302396e+02
1.070000e-06	3.652565e-06	6.829925e-09	2.622631e+01	4.482667e+02
1.080000e-06	3.786076e-06	7.093372e-09	2.718495e+01	4.653187e+02
1.090000e-06	3.918201e-06	7.340337e-09	2.813364e+01	4.815157e+02
1.100000e-06	4.048990e-06	7.575795e-09	2.907274e+01	4.969578e+02
1.110000e-06	4.178374e-06	7.802918e-09	3.000175e+01	5.117202e+02
1.120000e-06	4.306241e-06	8.020549e-09	3.091986e+01	5.258539e+02
1.130000e-06	4.432621e-06	8.224083e-09	3.182731e+01	5.393875e+02
1.140000e-06	4.557489e-06	8.413563e-09	3.272388e+01	5.523331e+02
1.150000e-06	4.680802e-06	8.594811e-09	3.360930e+01	5.646930e+02
1.160000e-06	4.802411e-06	8.770366e-09	3.448248e+01	5.764658e+02
1.170000e-06	4.922275e-06	8.939400e-09	3.534314e+01	5.876531e+02
1.180000e-06	5.040318e-06	9.101135e-09	3.619071e+01	5.982639e+02
1.190000e-06	5.156443e-06	9.256521e-09	3.702453e+01	6.083165e+02
1.200000e-06	5.270612e-06	9.405645e-09	3.784429e+01	6.178394e+02
1.210000e-06	5.382806e-06	9.547148e-09	3.864986e+01	6.268696e+02
1.220000e-06	5.493093e-06	9.679919e-09	3.944175e+01	6.354490e+02
1.230000e-06	5.601478e-06	9.805380e-09	4.021998e+01	6.436213e+02
1.240000e-06	5.707847e-06	9.924367e-09	4.098374e+01	6.514273e+02
1.250000e-06	5.812064e-06	1.003709e-08	4.173205e+01	6.589022e+02
1.260000e-06	5.914146e-06	1.014500e-08	4.246502e+01	6.660729e+02
1.270000e-06	6.014098e-06	1.024937e-08	4.318269e+01	6.729574e+02
1.280000e-06	6.111788e-06	1.035017e-08	4.388413e+01	6.795649e+02
1.290000e-06	6.207187e-06	1.044651e-08	4.456912e+01	6.858983e+02
1.300000e-06	6.300377e-06	1.053696e-08	4.523825e+01	6.919562e+02
1.310000e-06	6.391298e-06	1.062342e-08	4.589109e+01	6.977364e+02
1.320000e-06	6.479859e-06	1.070732e-08	4.652697e+01	7.032380e+02
1.330000e-06	6.566129e-06	1.078555e-08	4.714642e+01	7.084643e+02
1.340000e-06	6.650132e-06	1.085769e-08	4.774958e+01	7.134235e+02
1.350000e-06	6.731785e-06	1.092665e-08	4.833586e+01	7.181290e+02
1.360000e-06	6.810998e-06	1.099567e-08	4.890463e+01	7.225981e+02
1.370000e-06	6.887657e-06	1.106468e-08	4.945506e+01	7.268504e+02
1.380000e-06	6.961695e-06	1.113035e-08	4.998667e+01	7.309050e+02
1.390000e-06	7.033162e-06	1.119176e-08	5.049982e+01	7.347787e+02
1.400000e-06	7.102145e-06	1.124877e-08	5.099514e+01	7.384833e+02
1.410000e-06	7.168562e-06	1.130149e-08	5.147203e+01	7.420248e+02
1.420000e-06	7.232386e-06	1.135103e-08	5.193030e+01	7.454027e+02
1.430000e-06	7.293748e-06	1.139744e-08	5.237090e+01	7.486106e+02
1.440000e-06	7.352619e-06	1.144226e-08	5.279360e+01	7.516382e+02
1.450000e-06	7.408904e-06	1.148424e-08	5.319774e+01	7.544734e+02
1.460000e-06	7.462473e-06	1.152212e-08	5.358238e+01	7.571043e+02
1.470000e-06	7.513048e-06	1.155710e-08	5.394552e+01	7.595224e+02
1.480000e-06	7.560612e-06	1.159137e-08	5.428704e+01	7.617243e+02
1.490000e-06	7.605476e-06	1.162388e-08	5.460918e+01	7.637124e+02
1.500000e-06	7.647694e-06	1.165206e-08	5.491232e+01	7.654959e+02
1.510000e-06	7.687130e-06	1.167745e-08	5.519548e+01	7.670894e+02
1.520000e-06	7.723855e-06	1.170044e-08	5.545917e+01	7.685115e+02
1.530000e-06	7.757828e-06	1.172210e-08	5.570310e+01	7.697826e+02
1.540000e-06	7.789024e-06	1.174132e-08	5.592710e+01	7.709224e+02
1.550000e-06	7.817538e-06	1.175800e-08	5.613183e+01	7.719478e+02
1.560000e-06	7.843234e-06	1.177279e-08	5.631634e+01	7.728706e+02
1.570000e-06	7.866000e-06	1.178504e-08	5.647980e+01	7.736970e+02
1.580000e-06	7.886033e-06	1.179599e-08	5.662365e+01	7.744267e+02
1.590000e-06	7.903249e-06	1.180425e-08	5.674726e+01	7.750541e+02
1.600000e-06	7.917426e-06	1.181028e-08	5.684906e+01	7.755692e+02
1.610000e-06	7.928527e-06	1.181709e-08	5.692877e+01	7.759601e+02
1.620000e-06	7.936584e-06	1.182392e-08	5.698662e+01	7.762149e+02
1.630000e-06	7.941804e-06	1.182854e-08	5.702410e+01	7.763236e+02
1.640000e-06	7.944228e-06	1.182986e-08	5.704150e+01	7.762803e+02
1.650000e-06	7.943857e-06	1.182754e-08	5.703884e+01	7.760839e+02
1.660000e-06	7.940880e-06	1.181832e-08	5.701746e+01	7.757386e+02
1.670000e-06	7.935212e-06	1.180905e-08	5.697677e+01	7.752538e+02
1.680000e-06	7.926833e-06	1.180166e-08	5.691660e+01	7.746427e+02
1.690000e-06	7.915816e-06	1.179324e-08	5.683749e+01	7.739213e+02
1.700000e-06	7.902025e-06	1.178450e-08	5.673848e+01	7.731062e+02
1.710000e-06	7.885652e-06	1.177376e-08	5.662091e+01	7.722134e+02
1.720000e-06	7.866966e-06	1.175602e-08	5.648674e+01	7.712563e+02
1.730000e-06	7.845903e-06	1.170844e-08	5.633551e+01	7.702448e+02
1.740000e-06	7.821926e-06	1.164745e-08	5.616334e+01	7.691848e+02
1.750000e-06	7.794465e-06	1.165138e-08	5.596617e+01	7.680774e+02
1.760000e-06	7.763518e-06	1.165784e-08	5.574396e+01	7.669198e+02
1.770000e-06	7.729740e-06	1.163968e-08	5.550142e+01	7.657054e+02
1.780000e-06	7.693607e-06	1.164091e-08	5.524198e+01	7.644245e+02
1.790000e-06	7.655127e-06	1.166487e-08	5.496569e+01	7.630653e+02
1.800000e-06	7.614595e-06	1.161971e-08	5.467466e+01	7.616141e+02
1.810000e-06	7.571910e-06	1.158581e-08	5.436817e+01	7.600568e+02
1.820000e-06	7.526617e-06	1.161636e-08	5.404295e+01	7.583786e+02
1.830000e-06	7.478651e-06	1.156277e-08	5.369854e+01	7.565650e+02
1.840000e-06	7.427747e-06	1.156159e-08	5.333304e+01	7.546021e+02
1.850000e-06	7.373811e-06	1.149145e-08	5.294577e+01	7.524769e+02
1.860000e-06	7.317182e-06	1.143074e-08	5.253915e+01	7.501783e+02
1.870000e-06	7.257980e-06	1.143931e-08	5.211407e+01	7.476973e+02
1.880000e-06	7.196141e-06	1.136368e-08	5.167006e+01	7.450279e+02
1.890000e-06	7.131547e-06	1.135899e-08	5.120625e+01	7.421672e+02
1.900000e-06	7.064207e-06	1.128947e-08	5.072273e+01	7.391167e+02
1.910000e-06	6.994110e-06	1.121192e-08	5.021943e+01	7.358813e+02
1.920000e-06	6.921225e-06	1.118432e-08	4.969609e+01	7.324698e+02
1.930000e-06	6.845669e-06	1.113628e-08	4.915358e+01	7.288938e+02
1.940000e-06	6.767344e-06	1.110282e-08	4.859119e+01	7.251667e+02
1.950000e-06	6.686457e-06	1.100893e-08	4.801040e+01	7.213022e+02
1.960000e-06	6.603199e-06	1.096126e-08	4.741259e+01	7.173123e+02
1.970000e-06	6.517475e-06	1.088792e-08	4.679707e+01	7.132062e+02
1.980000e-06	6.429312e-06	1.080465e-08	4.616403e+01	7.089885e+02
1.990000e-06	6.338854e-06	1.076683e-08	4.551453e+01	7.046586e+02
2.000000e-06	6.246196e-06	1.069825e-08	4.484921e+01	7.002101e+02
2.010000e-06	6.151254e-06	1.062700e-08	4.416751e+01	6.956319e+02
2.020000e-06	6.054129e-06	1.053812e-08	4.347012e+01	6.909086e+02
2.030000e-06	5.954878e-06	1.047192e-08	4.275748e+01	6.860231e+02
2.040000e-06	5.853490e-06	1.039502e-08	4.202949e+01	6.809582e+02
2.050000e-06	5.749985e-06	1.030678e-08	4.128630e+01	6.756989e+02
2.060000e-06	5.644475e-06	1.021571e-08	4.052871e+01	6.702342e+02
2.070000e-06	5.537096e-06	1.013467e-08	3.975770e+01	6.645584e+02
2.080000e-06	5.427777e-06	1.005188e-08	3.897277e+01	6.586717e+02
2.090000e-06	5.316479e-06	9.955453e-09	3.817362e+01	6.525795e+02
2.100000e-06	5.203210e-06	9.867786e-09	3.736032e+01	6.462911e+02
2.110000e-06	5.087868e-06	9.769480e-09	3.653214e+01	6.398177e+02
2.120000e-06	4.970476e-06	9.664022e-09	3.568923e+01	6.331699e+02
2.130000e-06	4.851226e-06	9.553993e-09	3.483299e+01	6.263551e+02
2.140000e-06	4.730188e-06	9.457292e-09	3.396391e+01	6.193756e+02
2.150000e-06	4.607518e-06	9.353105e-09	3.308311e+01	6.122268e+02
2.160000e-06	4.483197e-06	9.236702e-09	3.219045e+01	6.048971e+02
2.170000e-06	4.357160e-06	9.116766e-09	3.128548e+01	5.973683e+02
2.180000e-06	4.229499e-06	8.999978e-09	3.036884e+01	5.896175e+02
2.190000e-06	4.100307e-06	8.878708e-09	2.944121e+01	5.816195e+02
2.200000e-06	3.969683e-06	8.749167e-09	2.850330e+01	5.733495e+02
2.210000e-06	3.837551e-06	8.621191e-09	2.755455e+01	5.647866e+02
2.220000e-06	3.703927e-06	8.488194e-09	2.659510e+01	5.559153e+02
2.230000e-06	3.568931e-06	8.346966e-09	2.562580e+01	5.467278e+02
2.240000e-06	3.432622e-06	8.200859e-09	2.464707e+01	5.372235e+02
2.250000e-06	3.294988e-06	8.055851e-09	2.365882e+01	5.274086e+02
2.260000e-06	3.156076e-06	7.903005e-09	2.266140e+01	5.172930e+02
2.270000e-06	3.015900e-06	7.743142e-09	2.165490e+01	5.068879e+02
2.280000e-06	2.874493e-06	7.580933e-09	2.063957e+01	4.962018e+02
2.290000e-06	2.731986e-06	7.418109e-09	1.961633e+01	4.852370e+02
2.300000e-06	2.588519e-06	7.248213e-09	1.858620e+01	4.739870e+02
2.310000e-06	2.444091e-06	7.070903e-09	1.754917e+01	4.624353e+02
2.320000e-06	2.298781e-06	6.887064e-09	1.650581e+01	4.505551e+02
2.330000e-06	2.152811e-06	6.695599e-09	1.545771e+01	4.383112e+02
2.340000e-06	2.006211e-06	6.497684e-09	1.440508e+01	4.256630e+02
2.350000e-06	1.858919e-06	6.296093e-09	1.334750e+01	4.125688e+02
2.360000e-06	1.710944e-06	6.091180e-09	1.228499e+01	3.989901e+02
2.370000e-06	1.562390e-06	5.875693e-09	1.121835e+01	3.848958e+02
2.380000e-06	1.413380e-06	5.652934e-09	1.014842e+01	3.702648e+02
2.390000e-06	1.263909e-06	5.424338e-09	9.075179e+00	3.550875e+02
2.400000e-06	1.113977e-06	5.187219e-09	7.998627e+00	3.393642e+02
2.410000e-06	9.636441e-07	4.940652e-09	6.919201e+00	3.231023e+02
2.420000e-06	8.130203e-07	4.687227e-09	5.837685e+00	3.063108e+02
2.430000e-06	6.622002e-07	4.423974e-09	4.754760e+00	2.889938e+02
2.440000e-06	5.111508e-07	4.148150e-09	3.670188e+00	2.711433e+02
2.450000e-06	3.599268e-07	3.865453e-09	2.584362e+00	2.527335e+02
2.460000e-06	2.085721e-07	3.574794e-09	1.497598e+00	2.337161e+02
2.470000e-06	5.710754e-08	3.273648e-09	4.100461e-01	2.140185e+02
2.480000e-06	-9.440628e-08	2.959020e-09	-6.778602e-01	1.935462e+02
2.490000e-06	-2.458965e-07	2.632388e-09	-1.765597e+00	1.721884e+02
2.500000e-06	-3.972681e-07	2.292808e-09	-2.852482e+00	1.498269e+02
2.510000e-06	-5.485295e-07	1.934418e-09	-3.938576e+00	1.263492e+02
2.520000e-06	-6.996773e-07	1.557121e-09	-5.023854e+00	1.016617e+02
2.530000e-06	-8.506225e-07	1.162736e-09	-6.107678e+00	7.570475e+01
2.540000e-06	-1.001295e-06	7.513304e-10	-7.189545e+00	4.846529e+01
2.550000e-06	-1.151640e-06	3.223780e-10	-8.269056e+00	1.998738e+01
2.560000e-06	-1.301623e-06	-1.257249e-10	-9.345971e+00	-9.621995e+00
2.570000e-06	-1.451160e-06	-5.909487e-10	-1.041969e+01	-4.019205e+01
2.580000e-06	-1.600128e-06	-1.068745e-09	-1.148931e+01	-7.149302e+01
2.590000e-06	-1.748496e-06	-1.556514e-09	-1.255463e+01	-1.032464e+02
2.600000e-06	-1.896187e-06	-2.049669e-09	-1.361508e+01	-1.351396e+02
2.610000e-06	-2.043164e-06	-2.542429e-09	-1.467042e+01	-1.668444e+02
2.620000e-06	-2.189385e-06	-3.025258e-09	-1.572032e+01	-1.980362e+02
2.630000e-06	-2.334795e-06	-3.491022e-09	-1.676440e+01	-2.284138e+02
2.640000e-06	-2.479323e-06	-3.937484e-09	-1.780215e+01	-2.577166e+02
2.650000e-06	-2.622847e-06	-4.363678e-09	-1.883268e+01	-2.857379e+02
2.660000e-06	-2.765350e-06	-4.766077e-09	-1.985589e+01	-3.123340e+02
2.670000e-06	-2.906743e-06	-5.143904e-09	-2.087113e+01	-3.374270e+02
2.680000e-06	-3.046918e-06	-5.499786e-09	-2.187762e+01	-3.610021e+02
2.690000e-06	-3.185906e-06	-5.835277e-09	-2.287558e+01	-3.831009e+02
2.700000e-06	-3.323720e-06	-6.152695e-09	-2.386512e+01	-4.038091e+02
2.710000e-06	-3.460271e-06	-6.452316e-09	-2.484559e+01	-4.232431e+02
2.720000e-06	-3.595510e-06	-6.735557e-09	-2.581664e+01	-4.415353e+02
2.730000e-06	-3.729487e-06	-7.003286e-09	-2.677863e+01	-4.588200e+02
2.740000e-06	-3.862151e-06	-7.255581e-09	-2.773119e+01	-4.752213e+02
2.750000e-06	-3.993386e-06	-7.496996e-09	-2.867349e+01	-4.908449e+02
2.760000e-06	-4.123210e-06	-7.729820e-09	-2.960566e+01	-5.057724e+02
2.770000e-06	-4.251599e-06	-7.952450e-09	-3.052752e+01	-5.200605e+02
2.780000e-06	-4.378546e-06	-8.162053e-09	-3.143903e+01	-5.337433e+02
2.790000e-06	-4.504018e-06	-8.358673e-09	-3.233995e+01	-5.468363e+02
2.800000e-06	-4.627890e-06	-8.543975e-09	-3.322938e+01	-5.593435e+02
2.810000e-06	-4.750144e-06	-8.720132e-09	-3.410719e+01	-5.712639e+02
2.820000e-06	-4.870701e-06	-8.889981e-09	-3.497283e+01	-5.825980e+02
2.830000e-06	-4.989402e-06	-9.052859e-09	-3.582513e+01	-5.933524e+02
2.840000e-06	-5.106102e-06	-9.209613e-09	-3.666306e+01	-6.035430e+02
2.850000e-06	-5.220678e-06	-9.361132e-09	-3.748575e+01	-6.131961e+02
2.860000e-06	-5.333129e-06	-9.507324e-09	-3.829317e+01	-6.223464e+02
2.870000e-06	-5.443497e-06	-9.644878e-09	-3.908564e+01	-6.310353e+02
2.880000e-06	-5.551913e-06	-9.771387e-09	-3.986410e+01	-6.393062e+02
2.890000e-06	-5.658490e-06	-9.890327e-09	-4.062934e+01	-6.472010e+02
2.900000e-06	-5.763118e-06	-1.000398e-08	-4.138060e+01	-6.547567e+02
2.910000e-06	-5.865596e-06	-1.011308e-08	-4.211642e+01	-6.620022e+02
2.920000e-06	-5.965872e-06	-1.021828e-08	-4.283642e+01	-6.689578e+02
2.930000e-06	-6.064025e-06	-1.032068e-08	-4.354118e+01	-6.756349e+02
2.940000e-06	-6.160005e-06	-1.041998e-08	-4.423034e+01	-6.820377e+02
