# Temperatura_=_27.5
# Concentracion g/m^3_=_10000.0
# C_Vs_to_Am_M_A/Vsm_=_65563218390.804596
# pendiente_HvsI_1/m_=_3716.3
# ordenada_HvsI_A/m_=_1297.0
# frecuencia_Hz_=_302551.35378357506

Tiempo_(s)	Campo_(V.s)	Magnetizacion_(V.s)	Campo_(kA/m)	Magnetizacion_(A/m)
0.000000e+00	-7.933954e-06	-1.144006e-08	-5.685140e+01	-7.501966e+02
1.000000e-08	-7.930821e-06	-1.144334e-08	-5.682895e+01	-7.499132e+02
2.000000e-08	-7.925050e-06	-1.143721e-08	-5.678759e+01	-7.495081e+02
3.000000e-08	-7.916753e-06	-1.143096e-08	-5.672814e+01	-7.489913e+02
4.000000e-08	-7.905678e-06	-1.142633e-08	-5.664879e+01	-7.483741e+02
5.000000e-08	-7.891563e-06	-1.141703e-08	-5.654764e+01	-7.476674e+02
6.000000e-08	-7.874535e-06	-1.140223e-08	-5.642563e+01	-7.468810e+02
7.000000e-08	-7.855136e-06	-1.138571e-08	-5.628662e+01	-7.460218e+02
8.000000e-08	-7.833534e-06	-1.136108e-08	-5.613183e+01	-7.450937e+02
9.000000e-08	-7.809123e-06	-1.141712e-08	-5.595691e+01	-7.440971e+02
1.000000e-07	-7.781462e-06	-1.142797e-08	-5.575870e+01	-7.430293e+02
1.100000e-07	-7.750706e-06	-1.133367e-08	-5.553832e+01	-7.418850e+02
1.200000e-07	-7.717124e-06	-1.129097e-08	-5.529768e+01	-7.406576e+02
1.300000e-07	-7.680918e-06	-1.128322e-08	-5.503825e+01	-7.393394e+02
1.400000e-07	-7.642358e-06	-1.125770e-08	-5.476194e+01	-7.379234e+02
1.500000e-07	-7.601671e-06	-1.117358e-08	-5.447040e+01	-7.364031e+02
1.600000e-07	-7.558693e-06	-1.119462e-08	-5.416244e+01	-7.347734e+02
1.700000e-07	-7.513019e-06	-1.124523e-08	-5.383515e+01	-7.330306e+02
1.800000e-07	-7.464621e-06	-1.106344e-08	-5.348836e+01	-7.311718e+02
1.900000e-07	-7.413338e-06	-1.113821e-08	-5.312088e+01	-7.291950e+02
2.000000e-07	-7.359034e-06	-1.114072e-08	-5.273176e+01	-7.270981e+02
2.100000e-07	-7.302032e-06	-1.101395e-08	-5.232331e+01	-7.248787e+02
2.200000e-07	-7.242395e-06	-1.105239e-08	-5.189597e+01	-7.225339e+02
2.300000e-07	-7.180140e-06	-1.097163e-08	-5.144988e+01	-7.200604e+02
2.400000e-07	-7.115274e-06	-1.096653e-08	-5.098508e+01	-7.174542e+02
2.500000e-07	-7.047653e-06	-1.087968e-08	-5.050053e+01	-7.147117e+02
2.600000e-07	-6.977356e-06	-1.084125e-08	-4.999682e+01	-7.118300e+02
2.700000e-07	-6.904355e-06	-1.081616e-08	-4.947372e+01	-7.088072e+02
2.800000e-07	-6.828543e-06	-1.074823e-08	-4.893049e+01	-7.056433e+02
2.900000e-07	-6.749915e-06	-1.068758e-08	-4.836707e+01	-7.023398e+02
3.000000e-07	-6.668572e-06	-1.062712e-08	-4.778420e+01	-6.988999e+02
3.100000e-07	-6.584926e-06	-1.063404e-08	-4.718483e+01	-6.953278e+02
3.200000e-07	-6.499114e-06	-1.054302e-08	-4.656993e+01	-6.916277e+02
3.300000e-07	-6.410990e-06	-1.046610e-08	-4.593847e+01	-6.878031e+02
3.400000e-07	-6.320529e-06	-1.044719e-08	-4.529027e+01	-6.838555e+02
3.500000e-07	-6.227789e-06	-1.038209e-08	-4.462573e+01	-6.797838e+02
3.600000e-07	-6.132800e-06	-1.029844e-08	-4.394508e+01	-6.755836e+02
3.700000e-07	-6.035503e-06	-1.023219e-08	-4.324789e+01	-6.712474e+02
3.800000e-07	-5.935975e-06	-1.018997e-08	-4.253471e+01	-6.667646e+02
3.900000e-07	-5.834326e-06	-1.010326e-08	-4.180634e+01	-6.621229e+02
4.000000e-07	-5.730635e-06	-1.000814e-08	-4.106334e+01	-6.573092e+02
4.100000e-07	-5.624932e-06	-9.942418e-09	-4.030591e+01	-6.523113e+02
4.200000e-07	-5.517236e-06	-9.878204e-09	-3.953421e+01	-6.471187e+02
4.300000e-07	-5.407627e-06	-9.784345e-09	-3.874880e+01	-6.417243e+02
4.400000e-07	-5.296087e-06	-9.684255e-09	-3.794954e+01	-6.361247e+02
4.500000e-07	-5.182489e-06	-9.614818e-09	-3.713555e+01	-6.303200e+02
4.600000e-07	-5.066804e-06	-9.536130e-09	-3.630660e+01	-6.243135e+02
4.700000e-07	-4.949223e-06	-9.430274e-09	-3.546406e+01	-6.181102e+02
4.800000e-07	-4.829904e-06	-9.330800e-09	-3.460907e+01	-6.117156e+02
4.900000e-07	-4.708753e-06	-9.238710e-09	-3.374096e+01	-6.051335e+02
5.000000e-07	-4.585848e-06	-9.129496e-09	-3.286027e+01	-5.983650e+02
5.100000e-07	-4.461365e-06	-9.012954e-09	-3.196828e+01	-5.914067e+02
5.200000e-07	-4.335253e-06	-8.902649e-09	-3.106461e+01	-5.842506e+02
5.300000e-07	-4.207511e-06	-8.793761e-09	-3.014927e+01	-5.768838e+02
5.400000e-07	-4.078274e-06	-8.673027e-09	-2.922321e+01	-5.692899e+02
5.500000e-07	-3.947549e-06	-8.550631e-09	-2.828649e+01	-5.614498e+02
5.600000e-07	-3.815316e-06	-8.429589e-09	-2.733896e+01	-5.533441e+02
5.700000e-07	-3.681623e-06	-8.305562e-09	-2.638097e+01	-5.449547e+02
5.800000e-07	-3.546478e-06	-8.170490e-09	-2.541258e+01	-5.362668e+02
5.900000e-07	-3.410027e-06	-8.032200e-09	-2.443483e+01	-5.272700e+02
6.000000e-07	-3.272232e-06	-7.890238e-09	-2.344745e+01	-5.179586e+02
6.100000e-07	-3.133005e-06	-7.742910e-09	-2.244981e+01	-5.083313e+02
6.200000e-07	-2.992455e-06	-7.591452e-09	-2.144268e+01	-4.983900e+02
6.300000e-07	-2.850674e-06	-7.432215e-09	-2.042674e+01	-4.881377e+02
6.400000e-07	-2.707755e-06	-7.269788e-09	-1.940264e+01	-4.775765e+02
6.500000e-07	-2.563758e-06	-7.101555e-09	-1.837081e+01	-4.667049e+02
6.600000e-07	-2.418812e-06	-6.930313e-09	-1.733220e+01	-4.555162e+02
6.700000e-07	-2.273065e-06	-6.750933e-09	-1.628784e+01	-4.439972e+02
6.800000e-07	-2.126533e-06	-6.567792e-09	-1.523784e+01	-4.321284e+02
6.900000e-07	-1.979286e-06	-6.381954e-09	-1.418274e+01	-4.198844e+02
7.000000e-07	-1.831416e-06	-6.189066e-09	-1.312316e+01	-4.072359e+02
7.100000e-07	-1.682998e-06	-5.986436e-09	-1.205966e+01	-3.941529e+02
7.200000e-07	-1.534168e-06	-5.778621e-09	-1.099321e+01	-3.806069e+02
7.300000e-07	-1.384938e-06	-5.568144e-09	-9.923887e+00	-3.665742e+02
7.400000e-07	-1.235208e-06	-5.346215e-09	-8.850985e+00	-3.520376e+02
7.500000e-07	-1.084944e-06	-5.116240e-09	-7.774259e+00	-3.369877e+02
7.600000e-07	-9.342828e-07	-4.879394e-09	-6.694680e+00	-3.214221e+02
7.700000e-07	-7.833464e-07	-4.634565e-09	-5.613133e+00	-3.053435e+02
7.800000e-07	-6.321451e-07	-4.377925e-09	-4.529688e+00	-2.887566e+02
7.900000e-07	-4.807268e-07	-4.116347e-09	-3.444688e+00	-2.716633e+02
8.000000e-07	-3.291454e-07	-3.852391e-09	-2.358519e+00	-2.540584e+02
8.100000e-07	-1.774284e-07	-3.578225e-09	-1.271378e+00	-2.359252e+02
8.200000e-07	-2.560279e-08	-3.289867e-09	-1.834589e-01	-2.172323e+02
8.300000e-07	1.262792e-07	-2.991826e-09	9.048640e-01	-1.979321e+02
8.400000e-07	2.781161e-07	-2.686901e-09	1.992864e+00	-1.779625e+02
8.500000e-07	4.298535e-07	-2.368293e-09	3.080150e+00	-1.572497e+02
8.600000e-07	5.814719e-07	-2.036739e-09	4.166585e+00	-1.357149e+02
8.700000e-07	7.329978e-07	-1.693045e-09	5.252356e+00	-1.132825e+02
8.800000e-07	8.843319e-07	-1.337575e-09	6.336753e+00	-8.988986e+01
8.900000e-07	1.035371e-06	-9.665459e-10	7.419034e+00	-6.549707e+01
9.000000e-07	1.186044e-06	-5.804118e-10	8.498693e+00	-4.009677e+01
9.100000e-07	1.336181e-06	-1.809377e-10	9.574513e+00	-1.372155e+01
9.200000e-07	1.485807e-06	2.320694e-10	1.064667e+01	1.355121e+01
9.300000e-07	1.635002e-06	6.570751e-10	1.171574e+01	4.159794e+01
9.400000e-07	1.783633e-06	1.091727e-09	1.278077e+01	7.025148e+01
9.500000e-07	1.931622e-06	1.531699e-09	1.384120e+01	9.930733e+01
9.600000e-07	2.078943e-06	1.978098e-09	1.489683e+01	1.285334e+02
9.700000e-07	2.225492e-06	2.424904e-09	1.594694e+01	1.576824e+02
9.800000e-07	2.371221e-06	2.865425e-09	1.699118e+01	1.865052e+02
9.900000e-07	2.516119e-06	3.294317e-09	1.802945e+01	2.147647e+02
1.000000e-06	2.660117e-06	3.709828e-09	1.906129e+01	2.422490e+02
1.010000e-06	2.803042e-06	4.110559e-09	2.008542e+01	2.687811e+02
1.020000e-06	2.944795e-06	4.495099e-09	2.110117e+01	2.942267e+02
1.030000e-06	3.085338e-06	4.864315e-09	2.210824e+01	3.184977e+02
1.040000e-06	3.224638e-06	5.214205e-09	2.310641e+01	3.415518e+02
1.050000e-06	3.362667e-06	5.545555e-09	2.409546e+01	3.633889e+02
1.060000e-06	3.499332e-06	5.858777e-09	2.507475e+01	3.840443e+02
1.070000e-06	3.634597e-06	6.157529e-09	2.604401e+01	4.035803e+02
1.080000e-06	3.768589e-06	6.440072e-09	2.700413e+01	4.220761e+02
1.090000e-06	3.901324e-06	6.706468e-09	2.795526e+01	4.396185e+02
1.100000e-06	4.032662e-06	6.960483e-09	2.889637e+01	4.562931e+02
1.110000e-06	4.162551e-06	7.203110e-09	2.982710e+01	4.721779e+02
1.120000e-06	4.290951e-06	7.437540e-09	3.074716e+01	4.873386e+02
1.130000e-06	4.417821e-06	7.660983e-09	3.165626e+01	5.018263e+02
1.140000e-06	4.543189e-06	7.870444e-09	3.255459e+01	5.156779e+02
1.150000e-06	4.666985e-06	8.067138e-09	3.344166e+01	5.289181e+02
1.160000e-06	4.789189e-06	8.253500e-09	3.431733e+01	5.415627e+02
1.170000e-06	4.909707e-06	8.432559e-09	3.518091e+01	5.536221e+02
1.180000e-06	5.028425e-06	8.604376e-09	3.603159e+01	5.651056e+02
1.190000e-06	5.145331e-06	8.768682e-09	3.686929e+01	5.760241e+02
1.200000e-06	5.260233e-06	8.926221e-09	3.769263e+01	5.863929e+02
1.210000e-06	5.373014e-06	9.078284e-09	3.850077e+01	5.962321e+02
1.220000e-06	5.483789e-06	9.226105e-09	3.929454e+01	6.055668e+02
1.230000e-06	5.592675e-06	9.366963e-09	4.007477e+01	6.144261e+02
1.240000e-06	5.699632e-06	9.498994e-09	4.084118e+01	6.228409e+02
1.250000e-06	5.804532e-06	9.622073e-09	4.159285e+01	6.308425e+02
1.260000e-06	5.907265e-06	9.737131e-09	4.232899e+01	6.384601e+02
1.270000e-06	6.007801e-06	9.845858e-09	4.304939e+01	6.457199e+02
1.280000e-06	6.106100e-06	9.948854e-09	4.375376e+01	6.526436e+02
1.290000e-06	6.202056e-06	1.004631e-08	4.444134e+01	6.592492e+02
1.300000e-06	6.295765e-06	1.013942e-08	4.511282e+01	6.655507e+02
1.310000e-06	6.387285e-06	1.023085e-08	4.576862e+01	6.715594e+02
1.320000e-06	6.476481e-06	1.032006e-08	4.640775e+01	6.772852e+02
1.330000e-06	6.563378e-06	1.040386e-08	4.703042e+01	6.827378e+02
1.340000e-06	6.648040e-06	1.048132e-08	4.763707e+01	6.879272e+02
1.350000e-06	6.730327e-06	1.055343e-08	4.822671e+01	6.928646e+02
1.360000e-06	6.810072e-06	1.062332e-08	4.879813e+01	6.975618e+02
1.370000e-06	6.887308e-06	1.069155e-08	4.935157e+01	7.020313e+02
1.380000e-06	6.961994e-06	1.075734e-08	4.988674e+01	7.062849e+02
1.390000e-06	7.034082e-06	1.082024e-08	5.040329e+01	7.103327e+02
1.400000e-06	7.103682e-06	1.087972e-08	5.090202e+01	7.141821e+02
1.410000e-06	7.170791e-06	1.093633e-08	5.138289e+01	7.178376e+02
1.420000e-06	7.235294e-06	1.098933e-08	5.184509e+01	7.212998e+02
1.430000e-06	7.297211e-06	1.103764e-08	5.228876e+01	7.245665e+02
1.440000e-06	7.356648e-06	1.108176e-08	5.271466e+01	7.276329e+02
1.450000e-06	7.413484e-06	1.112342e-08	5.312193e+01	7.304936e+02
1.460000e-06	7.467663e-06	1.116180e-08	5.351015e+01	7.331436e+02
1.470000e-06	7.518876e-06	1.119644e-08	5.387713e+01	7.355798e+02
1.480000e-06	7.566976e-06	1.122751e-08	5.422179e+01	7.378028e+02
1.490000e-06	7.612386e-06	1.125688e-08	5.454718e+01	7.398171e+02
1.500000e-06	7.655231e-06	1.128571e-08	5.485418e+01	7.416317e+02
1.510000e-06	7.695293e-06	1.131284e-08	5.514125e+01	7.432594e+02
1.520000e-06	7.732611e-06	1.133765e-08	5.540866e+01	7.447159e+02
1.530000e-06	7.767243e-06	1.135846e-08	5.565682e+01	7.460185e+02
1.540000e-06	7.799033e-06	1.137568e-08	5.588461e+01	7.471838e+02
1.550000e-06	7.828085e-06	1.139088e-08	5.609278e+01	7.482268e+02
1.560000e-06	7.854361e-06	1.140474e-08	5.628107e+01	7.491589e+02
1.570000e-06	7.877704e-06	1.141599e-08	5.644833e+01	7.499871e+02
1.580000e-06	7.898309e-06	1.142624e-08	5.659598e+01	7.507138e+02
1.590000e-06	7.916188e-06	1.143636e-08	5.672409e+01	7.513373e+02
1.600000e-06	7.931075e-06	1.144542e-08	5.683077e+01	7.518522e+02
1.610000e-06	7.942879e-06	1.145281e-08	5.691535e+01	7.522514e+02
1.620000e-06	7.951601e-06	1.145876e-08	5.697785e+01	7.525273e+02
1.630000e-06	7.957372e-06	1.146334e-08	5.701920e+01	7.526735e+02
1.640000e-06	7.960350e-06	1.146581e-08	5.704054e+01	7.526860e+02
1.650000e-06	7.960484e-06	1.146870e-08	5.704150e+01	7.525645e+02
1.660000e-06	7.957928e-06	1.145725e-08	5.702318e+01	7.523124e+02
1.670000e-06	7.952841e-06	1.144468e-08	5.698673e+01	7.519363e+02
1.680000e-06	7.945070e-06	1.143867e-08	5.693105e+01	7.514458e+02
1.690000e-06	7.934632e-06	1.143096e-08	5.685625e+01	7.508520e+02
1.700000e-06	7.921394e-06	1.142323e-08	5.676140e+01	7.501662e+02
1.710000e-06	7.905400e-06	1.141979e-08	5.664679e+01	7.493984e+02
1.720000e-06	7.887031e-06	1.141945e-08	5.651517e+01	7.485563e+02
1.730000e-06	7.866409e-06	1.139807e-08	5.636740e+01	7.476447e+02
1.740000e-06	7.843027e-06	1.126954e-08	5.619985e+01	7.466648e+02
1.750000e-06	7.816157e-06	1.128742e-08	5.600732e+01	7.456146e+02
1.760000e-06	7.785642e-06	1.134204e-08	5.578866e+01	7.444895e+02
1.770000e-06	7.752157e-06	1.130215e-08	5.554871e+01	7.432829e+02
1.780000e-06	7.716431e-06	1.127640e-08	5.529272e+01	7.419876e+02
1.790000e-06	7.678404e-06	1.136710e-08	5.502023e+01	7.405961e+02
1.800000e-06	7.638234e-06	1.129843e-08	5.473239e+01	7.391018e+02
1.810000e-06	7.595960e-06	1.112186e-08	5.442947e+01	7.374993e+02
1.820000e-06	7.551031e-06	1.132328e-08	5.410753e+01	7.357845e+02
1.830000e-06	7.503460e-06	1.117764e-08	5.376665e+01	7.339544e+02
1.840000e-06	7.453076e-06	1.116235e-08	5.340563e+01	7.320067e+02
1.850000e-06	7.399597e-06	1.118658e-08	5.302242e+01	7.299394e+02
1.860000e-06	7.343363e-06	1.101854e-08	5.261947e+01	7.277503e+02
1.870000e-06	7.284492e-06	1.112219e-08	5.219762e+01	7.254367e+02
1.880000e-06	7.222960e-06	1.095820e-08	5.175671e+01	7.229951e+02
1.890000e-06	7.158678e-06	1.100100e-08	5.129609e+01	7.204219e+02
1.900000e-06	7.091669e-06	1.099874e-08	5.081594e+01	7.177132e+02
1.910000e-06	7.021877e-06	1.085108e-08	5.031583e+01	7.148660e+02
1.920000e-06	6.949279e-06	1.087979e-08	4.979562e+01	7.118779e+02
1.930000e-06	6.874070e-06	1.080085e-08	4.925671e+01	7.087486e+02
1.940000e-06	6.796139e-06	1.082132e-08	4.869829e+01	7.054792e+02
1.950000e-06	6.715586e-06	1.067899e-08	4.812108e+01	7.020725e+02
1.960000e-06	6.632630e-06	1.063728e-08	4.752666e+01	6.985325e+02
1.970000e-06	6.547193e-06	1.063224e-08	4.691445e+01	6.948635e+02
1.980000e-06	6.459245e-06	1.049582e-08	4.628425e+01	6.910692e+02
1.990000e-06	6.368987e-06	1.048814e-08	4.563749e+01	6.871518e+02
2.000000e-06	6.276634e-06	1.042170e-08	4.497574e+01	6.831108e+02
2.010000e-06	6.182040e-06	1.038543e-08	4.429791e+01	6.789428e+02
2.020000e-06	6.085127e-06	1.026097e-08	4.360348e+01	6.746408e+02
2.030000e-06	5.986026e-06	1.020585e-08	4.289336e+01	6.701952e+02
2.040000e-06	5.884809e-06	1.016606e-08	4.216808e+01	6.655939e+02
2.050000e-06	5.781484e-06	1.008171e-08	4.142770e+01	6.608239e+02
2.060000e-06	5.676091e-06	9.994206e-09	4.067249e+01	6.558725e+02
2.070000e-06	5.568831e-06	9.904865e-09	3.990392e+01	6.507288e+02
2.080000e-06	5.459706e-06	9.852148e-09	3.912197e+01	6.453848e+02
2.090000e-06	5.348562e-06	9.741790e-09	3.832556e+01	6.398361e+02
2.100000e-06	5.235378e-06	9.666040e-09	3.751453e+01	6.340819e+02
2.110000e-06	5.120259e-06	9.581807e-09	3.668964e+01	6.281248e+02
2.120000e-06	5.003122e-06	9.491445e-09	3.585028e+01	6.219696e+02
2.130000e-06	4.884001e-06	9.374824e-09	3.499671e+01	6.156218e+02
2.140000e-06	4.763054e-06	9.284880e-09	3.413005e+01	6.090858e+02
2.150000e-06	4.640356e-06	9.196511e-09	3.325085e+01	6.023634e+02
2.160000e-06	4.515961e-06	9.087440e-09	3.235949e+01	5.954526e+02
2.170000e-06	4.389904e-06	8.972336e-09	3.145621e+01	5.883464e+02
2.180000e-06	4.262245e-06	8.861040e-09	3.054147e+01	5.810331e+02
2.190000e-06	4.133035e-06	8.756132e-09	2.961560e+01	5.734972e+02
2.200000e-06	4.002348e-06	8.634169e-09	2.867916e+01	5.657199e+02
2.210000e-06	3.870224e-06	8.516302e-09	2.773241e+01	5.576818e+02
2.220000e-06	3.736682e-06	8.385360e-09	2.677550e+01	5.493643e+02
2.230000e-06	3.601648e-06	8.252098e-09	2.580791e+01	5.407516e+02
2.240000e-06	3.465232e-06	8.110186e-09	2.483040e+01	5.318322e+02
2.250000e-06	3.327535e-06	7.973101e-09	2.384372e+01	5.225991e+02
2.260000e-06	3.188594e-06	7.830599e-09	2.284813e+01	5.130501e+02
2.270000e-06	3.048474e-06	7.683559e-09	2.184409e+01	5.031865e+02
2.280000e-06	2.907091e-06	7.530674e-09	2.083100e+01	4.930111e+02
2.290000e-06	2.764477e-06	7.374806e-09	1.980908e+01	4.825265e+02
2.300000e-06	2.620863e-06	7.215462e-09	1.878001e+01	4.717323e+02
2.310000e-06	2.476447e-06	7.051083e-09	1.774518e+01	4.606233e+02
2.320000e-06	2.331186e-06	6.877569e-09	1.670431e+01	4.491880e+02
2.330000e-06	2.185044e-06	6.688230e-09	1.565711e+01	4.374082e+02
2.340000e-06	2.038147e-06	6.496499e-09	1.460451e+01	4.252600e+02
2.350000e-06	1.890604e-06	6.306534e-09	1.354728e+01	4.127150e+02
2.360000e-06	1.742458e-06	6.112950e-09	1.248572e+01	3.997428e+02
2.370000e-06	1.593769e-06	5.907676e-09	1.142028e+01	3.863145e+02
2.380000e-06	1.444582e-06	5.693862e-09	1.035127e+01	3.724048e+02
2.390000e-06	1.294917e-06	5.475719e-09	9.278832e+00	3.579947e+02
2.400000e-06	1.144759e-06	5.248576e-09	8.202862e+00	3.430731e+02
2.410000e-06	9.941730e-07	5.014321e-09	7.123828e+00	3.276357e+02
2.420000e-06	8.432750e-07	4.776503e-09	6.042556e+00	3.116844e+02
2.430000e-06	6.920849e-07	4.527046e-09	4.959191e+00	2.952236e+02
2.440000e-06	5.407031e-07	4.264169e-09	3.874452e+00	2.782565e+02
2.450000e-06	3.891485e-07	3.995935e-09	2.788476e+00	2.607800e+02
2.460000e-06	2.373904e-07	3.725952e-09	1.701040e+00	2.427806e+02
2.470000e-06	8.554045e-08	3.445422e-09	6.129471e-01	2.242308e+02
2.480000e-06	-6.637527e-08	3.149635e-09	-4.756174e-01	2.050873e+02
2.490000e-06	-2.182792e-07	2.843351e-09	-1.564097e+00	1.852910e+02
2.500000e-06	-3.700810e-07	2.527689e-09	-2.651846e+00	1.647707e+02
2.510000e-06	-5.217747e-07	2.202015e-09	-3.738819e+00	1.434482e+02
2.520000e-06	-6.733238e-07	1.866073e-09	-4.824757e+00	1.212462e+02
2.530000e-06	-8.246711e-07	1.516524e-09	-5.909248e+00	9.809786e+01
2.540000e-06	-9.757799e-07	1.147763e-09	-6.992031e+00	7.395663e+01
2.550000e-06	-1.126588e-06	7.624580e-10	-8.072659e+00	4.880626e+01
2.560000e-06	-1.276974e-06	3.679515e-10	-9.150260e+00	2.266875e+01
2.570000e-06	-1.426804e-06	-3.723275e-11	-1.022388e+01	-4.389986e+00
2.580000e-06	-1.576110e-06	-4.595013e-10	-1.129374e+01	-3.225784e+01
2.590000e-06	-1.724910e-06	-8.984153e-10	-1.235998e+01	-6.077810e+01
2.600000e-06	-1.873068e-06	-1.346863e-09	-1.342163e+01	-8.975481e+01
2.610000e-06	-2.020490e-06	-1.799385e-09	-1.447799e+01	-1.189617e+02
2.620000e-06	-2.167092e-06	-2.251389e-09	-1.552847e+01	-1.481541e+02
2.630000e-06	-2.312836e-06	-2.697623e-09	-1.657282e+01	-1.770819e+02
2.640000e-06	-2.457741e-06	-3.133888e-09	-1.761114e+01	-2.055039e+02
2.650000e-06	-2.601699e-06	-3.558048e-09	-1.864269e+01	-2.332006e+02
2.660000e-06	-2.744643e-06	-3.964932e-09	-1.966696e+01	-2.599857e+02
2.670000e-06	-2.886518e-06	-4.353275e-09	-2.068358e+01	-2.857136e+02
2.680000e-06	-3.027222e-06	-4.725146e-09	-2.169180e+01	-3.102845e+02
2.690000e-06	-3.166709e-06	-5.080355e-09	-2.269131e+01	-3.336450e+02
2.700000e-06	-3.304937e-06	-5.417728e-09	-2.368180e+01	-3.557848e+02
2.710000e-06	-3.441903e-06	-5.736464e-09	-2.466324e+01	-3.767313e+02
2.720000e-06	-3.577605e-06	-6.039544e-09	-2.563562e+01	-3.965408e+02
2.730000e-06	-3.712092e-06	-6.326503e-09	-2.659930e+01	-4.152892e+02
2.740000e-06	-3.845270e-06	-6.597641e-09	-2.755360e+01	-4.330623e+02
2.750000e-06	-3.976980e-06	-6.856888e-09	-2.849737e+01	-4.499467e+02
2.760000e-06	-4.107292e-06	-7.105709e-09	-2.943114e+01	-4.660229e+02
2.770000e-06	-4.236277e-06	-7.343377e-09	-3.035539e+01	-4.813598e+02
2.780000e-06	-4.363786e-06	-7.570281e-09	-3.126907e+01	-4.960122e+02
2.790000e-06	-4.489809e-06	-7.788185e-09	-3.217209e+01	-5.100207e+02
2.800000e-06	-4.614281e-06	-7.994281e-09	-3.306401e+01	-5.234126e+02
2.810000e-06	-4.737069e-06	-8.187915e-09	-3.394386e+01	-5.362055e+02
2.820000e-06	-4.858183e-06	-8.371396e-09	-3.481171e+01	-5.484110e+02
2.830000e-06	-4.977479e-06	-8.545311e-09	-3.566654e+01	-5.600380e+02
2.840000e-06	-5.094753e-06	-8.710931e-09	-3.650687e+01	-5.710972e+02
2.850000e-06	-5.209877e-06	-8.870754e-09	-3.733180e+01	-5.816023e+02
2.860000e-06	-5.322907e-06	-9.026055e-09	-3.814173e+01	-5.915722e+02
2.870000e-06	-5.433848e-06	-9.174193e-09	-3.893668e+01	-6.010311e+02
2.880000e-06	-5.542779e-06	-9.311889e-09	-3.971724e+01	-6.100069e+02
2.890000e-06	-5.649904e-06	-9.442373e-09	-4.048485e+01	-6.185305e+02
2.900000e-06	-5.755136e-06	-9.566554e-09	-4.123890e+01	-6.266331e+02
2.910000e-06	-5.858245e-06	-9.682957e-09	-4.197773e+01	-6.343447e+02
2.920000e-06	-5.959112e-06	-9.793789e-09	-4.270050e+01	-6.416922e+02
2.930000e-06	-6.057801e-06	-9.901071e-09	-4.340767e+01	-6.486987e+02
2.940000e-06	-6.154437e-06	-1.000522e-08	-4.410012e+01	-6.553830e+02
