# Temperatura_=_31.39
# Concentracion g/m^3_=_5000.0
# C_Vs_to_Am_M_A/Vsm_=_65563218390.804596
# pendiente_HvsI_1/m_=_3716.3
# ordenada_HvsI_A/m_=_1297.0
# frecuencia_Hz_=_302502.679853675

Tiempo_(s)	Campo_(V.s)	Magnetizacion_(V.s)	Campo_(kA/m)	Magnetizacion_(A/m)
0.000000e+00	-7.969324e-06	-5.635756e-09	-5.686368e+01	-3.687747e+02
1.000000e-08	-7.964795e-06	-5.635814e-09	-5.683136e+01	-3.685920e+02
2.000000e-08	-7.957769e-06	-5.633625e-09	-5.678123e+01	-3.683432e+02
3.000000e-08	-7.948013e-06	-5.635152e-09	-5.671162e+01	-3.680366e+02
4.000000e-08	-7.935347e-06	-5.632701e-09	-5.662125e+01	-3.676820e+02
5.000000e-08	-7.919698e-06	-5.623368e-09	-5.650958e+01	-3.672895e+02
6.000000e-08	-7.901366e-06	-5.611885e-09	-5.637878e+01	-3.668684e+02
7.000000e-08	-7.880810e-06	-5.601957e-09	-5.623211e+01	-3.664258e+02
8.000000e-08	-7.857706e-06	-5.626881e-09	-5.606725e+01	-3.659660e+02
9.000000e-08	-7.831395e-06	-5.657830e-09	-5.587952e+01	-3.654899e+02
1.000000e-07	-7.801891e-06	-5.612376e-09	-5.566900e+01	-3.649949e+02
1.100000e-07	-7.769596e-06	-5.570644e-09	-5.543856e+01	-3.644754e+02
1.200000e-07	-7.734585e-06	-5.565108e-09	-5.518874e+01	-3.639234e+02
1.300000e-07	-7.697099e-06	-5.542424e-09	-5.492127e+01	-3.633299e+02
1.400000e-07	-7.657471e-06	-5.492889e-09	-5.463851e+01	-3.626855e+02
1.500000e-07	-7.615563e-06	-5.500477e-09	-5.433948e+01	-3.619814e+02
1.600000e-07	-7.571020e-06	-5.566473e-09	-5.402166e+01	-3.612105e+02
1.700000e-07	-7.523794e-06	-5.482245e-09	-5.368468e+01	-3.603678e+02
1.800000e-07	-7.473700e-06	-5.469111e-09	-5.332725e+01	-3.594503e+02
1.900000e-07	-7.420577e-06	-5.497259e-09	-5.294820e+01	-3.584571e+02
2.000000e-07	-7.364624e-06	-5.432106e-09	-5.254895e+01	-3.573890e+02
2.100000e-07	-7.305983e-06	-5.437666e-09	-5.213053e+01	-3.562476e+02
2.200000e-07	-7.244785e-06	-5.416481e-09	-5.169387e+01	-3.550352e+02
2.300000e-07	-7.180908e-06	-5.385844e-09	-5.123808e+01	-3.537540e+02
2.400000e-07	-7.114228e-06	-5.339928e-09	-5.076230e+01	-3.524054e+02
2.500000e-07	-7.044951e-06	-5.336920e-09	-5.026799e+01	-3.509905e+02
2.600000e-07	-6.972967e-06	-5.346083e-09	-4.975436e+01	-3.495093e+02
2.700000e-07	-6.898092e-06	-5.300247e-09	-4.922010e+01	-3.479615e+02
2.800000e-07	-6.820432e-06	-5.270115e-09	-4.866597e+01	-3.463464e+02
2.900000e-07	-6.740031e-06	-5.239360e-09	-4.809228e+01	-3.446632e+02
3.000000e-07	-6.657182e-06	-5.231956e-09	-4.750113e+01	-3.429115e+02
3.100000e-07	-6.572106e-06	-5.209476e-09	-4.689408e+01	-3.410914e+02
3.200000e-07	-6.484718e-06	-5.173873e-09	-4.627054e+01	-3.392033e+02
3.300000e-07	-6.394948e-06	-5.145807e-09	-4.563001e+01	-3.372478e+02
3.400000e-07	-6.302903e-06	-5.101922e-09	-4.497324e+01	-3.352257e+02
3.500000e-07	-6.208681e-06	-5.071637e-09	-4.430093e+01	-3.331373e+02
3.600000e-07	-6.112150e-06	-5.044744e-09	-4.361215e+01	-3.309826e+02
3.700000e-07	-6.013251e-06	-5.024241e-09	-4.290648e+01	-3.287604e+02
3.800000e-07	-5.912167e-06	-4.989786e-09	-4.218521e+01	-3.264688e+02
3.900000e-07	-5.809072e-06	-4.942680e-09	-4.144959e+01	-3.241046e+02
4.000000e-07	-5.703902e-06	-4.896543e-09	-4.069917e+01	-3.216643e+02
4.100000e-07	-5.596707e-06	-4.854279e-09	-3.993430e+01	-3.191438e+02
4.200000e-07	-5.487590e-06	-4.827722e-09	-3.915571e+01	-3.165389e+02
4.300000e-07	-5.376558e-06	-4.786733e-09	-3.836346e+01	-3.138461e+02
4.400000e-07	-5.263432e-06	-4.733207e-09	-3.755628e+01	-3.110624e+02
4.500000e-07	-5.148147e-06	-4.688688e-09	-3.673368e+01	-3.081857e+02
4.600000e-07	-5.030923e-06	-4.650417e-09	-3.589725e+01	-3.052147e+02
4.700000e-07	-4.911924e-06	-4.598874e-09	-3.504815e+01	-3.021485e+02
4.800000e-07	-4.791099e-06	-4.550949e-09	-3.418603e+01	-2.989865e+02
4.900000e-07	-4.668489e-06	-4.508697e-09	-3.331117e+01	-2.957277e+02
5.000000e-07	-4.544215e-06	-4.450981e-09	-3.242443e+01	-2.923701e+02
5.100000e-07	-4.418286e-06	-4.389538e-09	-3.152589e+01	-2.889108e+02
5.200000e-07	-4.290807e-06	-4.341426e-09	-3.061628e+01	-2.853453e+02
5.300000e-07	-4.161736e-06	-4.292656e-09	-2.969532e+01	-2.816678e+02
5.400000e-07	-4.031103e-06	-4.222195e-09	-2.876321e+01	-2.778717e+02
5.500000e-07	-3.898980e-06	-4.150934e-09	-2.782048e+01	-2.739497e+02
5.600000e-07	-3.765437e-06	-4.095762e-09	-2.686760e+01	-2.698951e+02
5.700000e-07	-3.630532e-06	-4.036882e-09	-2.590501e+01	-2.657019e+02
5.800000e-07	-3.494149e-06	-3.967607e-09	-2.493188e+01	-2.613659e+02
5.900000e-07	-3.356293e-06	-3.901278e-09	-2.394823e+01	-2.568845e+02
6.000000e-07	-3.217084e-06	-3.834110e-09	-2.295492e+01	-2.522574e+02
6.100000e-07	-3.076497e-06	-3.754092e-09	-2.195179e+01	-2.474856e+02
6.200000e-07	-2.934552e-06	-3.675114e-09	-2.093897e+01	-2.425712e+02
6.300000e-07	-2.791432e-06	-3.606383e-09	-1.991776e+01	-2.375160e+02
6.400000e-07	-2.647301e-06	-3.531284e-09	-1.888934e+01	-2.323208e+02
6.500000e-07	-2.502247e-06	-3.444171e-09	-1.785434e+01	-2.269839e+02
6.600000e-07	-2.356354e-06	-3.356398e-09	-1.681334e+01	-2.215006e+02
6.700000e-07	-2.209702e-06	-3.273486e-09	-1.576693e+01	-2.158625e+02
6.800000e-07	-2.062379e-06	-3.186410e-09	-1.471574e+01	-2.100576e+02
6.900000e-07	-1.914409e-06	-3.094827e-09	-1.365992e+01	-2.040709e+02
7.000000e-07	-1.765808e-06	-3.001270e-09	-1.259961e+01	-1.978852e+02
7.100000e-07	-1.616649e-06	-2.901623e-09	-1.153531e+01	-1.914829e+02
7.200000e-07	-1.466981e-06	-2.797727e-09	-1.046738e+01	-1.848468e+02
7.300000e-07	-1.316890e-06	-2.691845e-09	-9.396433e+00	-1.779623e+02
7.400000e-07	-1.166347e-06	-2.582679e-09	-8.322260e+00	-1.708180e+02
7.500000e-07	-1.015316e-06	-2.470031e-09	-7.244604e+00	-1.634062e+02
7.600000e-07	-8.638804e-07	-2.356426e-09	-6.164064e+00	-1.557229e+02
7.700000e-07	-7.121797e-07	-2.238437e-09	-5.081630e+00	-1.477666e+02
7.800000e-07	-5.602703e-07	-2.115890e-09	-3.997708e+00	-1.395370e+02
7.900000e-07	-4.081052e-07	-1.988580e-09	-2.911962e+00	-1.310327e+02
8.000000e-07	-2.557391e-07	-1.853639e-09	-1.824781e+00	-1.222491e+02
8.100000e-07	-1.032511e-07	-1.708853e-09	-7.367294e-01	-1.131767e+02
8.200000e-07	4.932888e-08	-1.555962e-09	3.519774e-01	-1.037994e+02
8.300000e-07	2.020038e-07	-1.403343e-09	1.441362e+00	-9.409395e+01
8.400000e-07	3.546819e-07	-1.251377e-09	2.530769e+00	-8.403122e+01
8.500000e-07	5.071885e-07	-1.093737e-09	3.618953e+00	-7.357774e+01
8.600000e-07	6.595113e-07	-9.294668e-10	4.705825e+00	-6.269903e+01
8.700000e-07	8.116085e-07	-7.594689e-10	5.791087e+00	-5.136370e+01
8.800000e-07	9.633487e-07	-5.810688e-10	6.873802e+00	-3.954822e+01
8.900000e-07	1.114753e-06	-3.969983e-10	7.954117e+00	-2.724161e+01
9.000000e-07	1.265739e-06	-2.066126e-10	9.031456e+00	-1.444974e+01
9.100000e-07	1.416215e-06	-7.436650e-12	1.010515e+01	-1.198613e+00
9.200000e-07	1.566208e-06	2.014973e-10	1.117540e+01	1.246394e+01
9.300000e-07	1.715652e-06	4.176632e-10	1.224173e+01	2.646824e+01
9.400000e-07	1.864479e-06	6.356591e-10	1.330366e+01	4.072475e+01
9.500000e-07	2.012694e-06	8.542969e-10	1.436122e+01	5.512784e+01
9.600000e-07	2.160196e-06	1.071731e-09	1.541369e+01	6.956104e+01
9.700000e-07	2.306882e-06	1.287580e-09	1.646035e+01	8.390342e+01
9.800000e-07	2.452745e-06	1.500852e-09	1.750112e+01	9.803628e+01
9.900000e-07	2.597706e-06	1.711409e-09	1.853546e+01	1.118497e+02
1.000000e-06	2.741682e-06	1.915939e-09	1.956278e+01	1.252484e+02
1.010000e-06	2.884633e-06	2.109793e-09	2.058278e+01	1.381557e+02
1.020000e-06	3.026487e-06	2.293714e-09	2.159495e+01	1.505164e+02
1.030000e-06	3.167057e-06	2.469181e-09	2.259797e+01	1.622974e+02
1.040000e-06	3.306310e-06	2.637282e-09	2.359158e+01	1.734865e+02
1.050000e-06	3.444320e-06	2.797404e-09	2.457633e+01	1.840895e+02
1.060000e-06	3.580977e-06	2.949065e-09	2.555142e+01	1.941265e+02
1.070000e-06	3.716216e-06	3.094112e-09	2.651639e+01	2.036272e+02
1.080000e-06	3.850134e-06	3.233002e-09	2.747194e+01	2.126264e+02
1.090000e-06	3.982676e-06	3.366240e-09	2.841767e+01	2.211597e+02
1.100000e-06	4.113755e-06	3.492376e-09	2.935296e+01	2.292602e+02
1.110000e-06	4.243444e-06	3.610090e-09	3.027833e+01	2.369565e+02
1.120000e-06	4.371631e-06	3.720386e-09	3.119299e+01	2.442720e+02
1.130000e-06	4.498256e-06	3.824967e-09	3.209650e+01	2.512245e+02
1.140000e-06	4.623401e-06	3.924266e-09	3.298945e+01	2.578282e+02
1.150000e-06	4.746952e-06	4.018648e-09	3.387103e+01	2.640954e+02
1.160000e-06	4.868862e-06	4.107180e-09	3.474090e+01	2.700380e+02
1.170000e-06	4.989074e-06	4.190525e-09	3.559864e+01	2.756699e+02
1.180000e-06	5.107437e-06	4.271095e-09	3.644320e+01	2.810077e+02
1.190000e-06	5.223817e-06	4.349011e-09	3.727361e+01	2.860717e+02
1.200000e-06	5.338164e-06	4.424452e-09	3.808951e+01	2.908851e+02
1.210000e-06	5.450478e-06	4.494955e-09	3.889091e+01	2.954732e+02
1.220000e-06	5.560773e-06	4.561171e-09	3.967790e+01	2.998614e+02
1.230000e-06	5.669114e-06	4.624329e-09	4.045095e+01	3.040736e+02
1.240000e-06	5.775475e-06	4.684180e-09	4.120987e+01	3.081296e+02
1.250000e-06	5.879739e-06	4.742229e-09	4.195383e+01	3.120443e+02
1.260000e-06	5.981795e-06	4.800142e-09	4.268202e+01	3.158260e+02
1.270000e-06	6.081616e-06	4.856526e-09	4.339428e+01	3.194767e+02
1.280000e-06	6.179128e-06	4.909327e-09	4.409006e+01	3.229925e+02
1.290000e-06	6.274326e-06	4.959246e-09	4.476933e+01	3.263652e+02
1.300000e-06	6.367314e-06	5.007108e-09	4.543283e+01	3.295839e+02
1.310000e-06	6.458046e-06	5.051884e-09	4.608023e+01	3.326377e+02
1.320000e-06	6.546453e-06	5.092310e-09	4.671104e+01	3.355173e+02
1.330000e-06	6.632555e-06	5.130299e-09	4.732541e+01	3.382173e+02
1.340000e-06	6.716357e-06	5.167624e-09	4.792337e+01	3.407371e+02
1.350000e-06	6.797786e-06	5.203250e-09	4.850438e+01	3.430817e+02
1.360000e-06	6.876763e-06	5.236725e-09	4.906791e+01	3.452611e+02
1.370000e-06	6.953161e-06	5.269065e-09	4.961304e+01	3.472892e+02
1.380000e-06	7.026863e-06	5.298617e-09	5.013892e+01	3.491827e+02
1.390000e-06	7.097996e-06	5.324053e-09	5.064648e+01	3.509588e+02
1.400000e-06	7.166664e-06	5.349399e-09	5.113645e+01	3.526335e+02
1.410000e-06	7.232759e-06	5.375461e-09	5.160806e+01	3.542198e+02
1.420000e-06	7.296255e-06	5.400008e-09	5.206112e+01	3.557271e+02
1.430000e-06	7.357266e-06	5.421682e-09	5.249645e+01	3.571603e+02
1.440000e-06	7.415758e-06	5.440501e-09	5.291381e+01	3.585198e+02
1.450000e-06	7.471603e-06	5.457300e-09	5.331229e+01	3.598031e+02
1.460000e-06	7.524597e-06	5.473286e-09	5.369041e+01	3.610050e+02
1.470000e-06	7.574522e-06	5.488538e-09	5.404664e+01	3.621203e+02
1.480000e-06	7.621512e-06	5.503464e-09	5.438194e+01	3.631441e+02
1.490000e-06	7.665867e-06	5.519035e-09	5.469842e+01	3.640738e+02
1.500000e-06	7.707572e-06	5.533576e-09	5.499600e+01	3.649100e+02
1.510000e-06	7.746445e-06	5.546596e-09	5.527337e+01	3.656560e+02
1.520000e-06	7.782579e-06	5.558745e-09	5.553120e+01	3.663185e+02
1.530000e-06	7.815990e-06	5.569494e-09	5.576960e+01	3.669059e+02
1.540000e-06	7.846594e-06	5.577369e-09	5.598797e+01	3.674279e+02
1.550000e-06	7.874425e-06	5.583721e-09	5.618655e+01	3.678936e+02
1.560000e-06	7.899361e-06	5.590630e-09	5.636447e+01	3.683104e+02
1.570000e-06	7.921428e-06	5.598041e-09	5.652193e+01	3.686834e+02
1.580000e-06	7.940767e-06	5.604075e-09	5.665992e+01	3.690143e+02
1.590000e-06	7.957214e-06	5.607822e-09	5.677727e+01	3.693014e+02
1.600000e-06	7.970582e-06	5.611528e-09	5.687266e+01	3.695405e+02
1.610000e-06	7.980825e-06	5.616441e-09	5.694575e+01	3.697252e+02
1.620000e-06	7.988071e-06	5.619891e-09	5.699745e+01	3.698487e+02
1.630000e-06	7.992561e-06	5.621730e-09	5.702949e+01	3.699045e+02
1.640000e-06	7.994245e-06	5.622310e-09	5.704150e+01	3.698881e+02
1.650000e-06	7.993148e-06	5.620119e-09	5.703368e+01	3.697976e+02
1.660000e-06	7.989474e-06	5.611502e-09	5.700746e+01	3.696345e+02
1.670000e-06	7.983112e-06	5.607080e-09	5.696207e+01	3.694036e+02
1.680000e-06	7.974033e-06	5.606483e-09	5.689728e+01	3.691122e+02
1.690000e-06	7.962225e-06	5.605200e-09	5.681303e+01	3.687700e+02
1.700000e-06	7.947593e-06	5.604739e-09	5.670863e+01	3.683870e+02
1.710000e-06	7.930393e-06	5.604159e-09	5.658590e+01	3.679728e+02
1.720000e-06	7.910923e-06	5.595678e-09	5.644698e+01	3.675355e+02
1.730000e-06	7.888914e-06	5.529443e-09	5.628994e+01	3.670800e+02
1.740000e-06	7.863692e-06	5.504248e-09	5.610997e+01	3.666084e+02
1.750000e-06	7.834835e-06	5.548948e-09	5.590406e+01	3.661189e+02
1.760000e-06	7.802614e-06	5.545935e-09	5.567415e+01	3.656068e+02
1.770000e-06	7.767854e-06	5.524044e-09	5.542613e+01	3.650647e+02
1.780000e-06	7.730819e-06	5.571660e-09	5.516188e+01	3.644837e+02
1.790000e-06	7.691575e-06	5.599558e-09	5.488186e+01	3.638544e+02
1.800000e-06	7.650301e-06	5.491752e-09	5.458736e+01	3.631678e+02
1.810000e-06	7.606562e-06	5.529280e-09	5.427526e+01	3.624163e+02
1.820000e-06	7.560182e-06	5.535165e-09	5.394432e+01	3.615942e+02
1.830000e-06	7.511078e-06	5.488705e-09	5.359395e+01	3.606979e+02
1.840000e-06	7.458910e-06	5.538224e-09	5.322171e+01	3.597260e+02
1.850000e-06	7.403827e-06	5.471180e-09	5.282868e+01	3.586788e+02
1.860000e-06	7.346044e-06	5.484518e-09	5.241638e+01	3.575578e+02
1.870000e-06	7.285666e-06	5.437659e-09	5.198557e+01	3.563651e+02
1.880000e-06	7.222584e-06	5.422114e-09	5.153546e+01	3.551030e+02
1.890000e-06	7.156711e-06	5.452726e-09	5.106543e+01	3.537732e+02
1.900000e-06	7.088045e-06	5.371638e-09	5.057547e+01	3.523769e+02
1.910000e-06	7.016512e-06	5.376926e-09	5.006506e+01	3.509143e+02
1.920000e-06	6.942334e-06	5.320079e-09	4.953578e+01	3.493853e+02
1.930000e-06	6.865443e-06	5.319966e-09	4.898714e+01	3.477892e+02
1.940000e-06	6.785819e-06	5.315441e-09	4.841899e+01	3.461252e+02
1.950000e-06	6.703715e-06	5.268044e-09	4.783316e+01	3.443928e+02
1.960000e-06	6.619138e-06	5.257907e-09	4.722968e+01	3.425919e+02
1.970000e-06	6.532065e-06	5.190779e-09	4.660838e+01	3.407228e+02
1.980000e-06	6.442544e-06	5.178356e-09	4.596962e+01	3.387861e+02
1.990000e-06	6.350860e-06	5.144328e-09	4.531542e+01	3.367826e+02
2.000000e-06	6.256970e-06	5.133986e-09	4.464549e+01	3.347129e+02
2.010000e-06	6.160778e-06	5.087561e-09	4.395913e+01	3.325768e+02
2.020000e-06	6.062470e-06	5.033918e-09	4.325767e+01	3.303738e+02
2.030000e-06	5.961981e-06	5.005803e-09	4.254065e+01	3.281019e+02
2.040000e-06	5.859306e-06	4.977541e-09	4.180803e+01	3.257585e+02
2.050000e-06	5.754565e-06	4.969105e-09	4.106067e+01	3.233400e+02
2.060000e-06	5.647975e-06	4.910905e-09	4.030011e+01	3.208425e+02
2.070000e-06	5.539458e-06	4.864255e-09	3.952581e+01	3.182618e+02
2.080000e-06	5.428865e-06	4.817693e-09	3.873670e+01	3.155941e+02
2.090000e-06	5.316229e-06	4.777828e-09	3.793300e+01	3.128363e+02
2.100000e-06	5.201629e-06	4.738096e-09	3.711529e+01	3.099860e+02
2.110000e-06	5.085004e-06	4.715904e-09	3.628313e+01	3.070417e+02
2.120000e-06	4.966341e-06	4.667015e-09	3.543644e+01	3.040024e+02
2.130000e-06	4.845819e-06	4.596266e-09	3.457647e+01	3.008676e+02
2.140000e-06	4.723590e-06	4.542837e-09	3.370433e+01	2.976362e+02
2.150000e-06	4.599729e-06	4.506936e-09	3.282054e+01	2.943068e+02
2.160000e-06	4.474123e-06	4.465410e-09	3.192430e+01	2.908766e+02
2.170000e-06	4.346857e-06	4.398113e-09	3.101622e+01	2.873417e+02
2.180000e-06	4.217982e-06	4.342578e-09	3.009665e+01	2.836965e+02
2.190000e-06	4.087604e-06	4.287628e-09	2.916637e+01	2.799347e+02
2.200000e-06	3.955771e-06	4.228580e-09	2.822570e+01	2.760490e+02
2.210000e-06	3.822343e-06	4.168624e-09	2.727365e+01	2.720327e+02
2.220000e-06	3.687378e-06	4.115336e-09	2.631063e+01	2.678793e+02
2.230000e-06	3.551088e-06	4.044048e-09	2.533815e+01	2.635840e+02
2.240000e-06	3.413555e-06	3.965098e-09	2.435681e+01	2.591440e+02
2.250000e-06	3.274732e-06	3.897414e-09	2.336627e+01	2.545581e+02
2.260000e-06	3.134587e-06	3.838226e-09	2.236628e+01	2.498271e+02
2.270000e-06	2.993116e-06	3.765187e-09	2.135684e+01	2.449529e+02
2.280000e-06	2.850482e-06	3.678096e-09	2.033910e+01	2.399375e+02
2.290000e-06	2.706782e-06	3.596161e-09	1.931376e+01	2.347820e+02
2.300000e-06	2.562086e-06	3.515564e-09	1.828130e+01	2.294856e+02
2.310000e-06	2.416584e-06	3.438402e-09	1.724310e+01	2.240445e+02
2.320000e-06	2.270372e-06	3.361478e-09	1.619983e+01	2.184514e+02
2.330000e-06	2.123383e-06	3.275168e-09	1.515102e+01	2.126952e+02
2.340000e-06	1.975642e-06	3.175713e-09	1.409684e+01	2.067618e+02
2.350000e-06	1.827209e-06	3.075434e-09	1.303773e+01	2.006345e+02
2.360000e-06	1.678141e-06	2.982156e-09	1.197407e+01	1.942955e+02
2.370000e-06	1.528561e-06	2.887599e-09	1.090677e+01	1.877275e+02
2.380000e-06	1.378462e-06	2.784744e-09	9.835772e+00	1.809149e+02
2.390000e-06	1.227943e-06	2.673439e-09	8.761768e+00	1.738455e+02
2.400000e-06	1.077048e-06	2.556322e-09	7.685082e+00	1.665103e+02
2.410000e-06	9.257288e-07	2.439118e-09	6.605372e+00	1.589045e+02
2.420000e-06	7.740586e-07	2.324418e-09	5.523156e+00	1.510259e+02
2.430000e-06	6.221582e-07	2.207600e-09	4.439298e+00	1.428741e+02
2.440000e-06	4.701098e-07	2.079759e-09	3.354384e+00	1.344483e+02
2.450000e-06	3.178469e-07	1.944246e-09	2.267939e+00	1.257449e+02
2.460000e-06	1.653740e-07	1.808978e-09	1.179997e+00	1.167561e+02
2.470000e-06	1.277875e-08	1.671016e-09	9.118049e-02	1.074676e+02
2.480000e-06	-1.398048e-07	1.526033e-09	-9.975519e-01	9.785827e+01
2.490000e-06	-2.922585e-07	1.371479e-09	-2.085358e+00	8.790058e+01
2.500000e-06	-4.446188e-07	1.208254e-09	-3.172498e+00	7.756196e+01
2.510000e-06	-5.968660e-07	1.040809e-09	-4.258831e+00	6.680783e+01
2.520000e-06	-7.489217e-07	8.727886e-10	-5.343796e+00	5.560547e+01
2.530000e-06	-9.007645e-07	7.022788e-10	-6.427244e+00	4.392860e+01
2.540000e-06	-1.052241e-06	5.192786e-10	-7.508074e+00	3.176219e+01
2.550000e-06	-1.203320e-06	3.226153e-10	-8.586073e+00	1.910691e+01
2.560000e-06	-1.353985e-06	1.157325e-10	-9.661114e+00	5.982760e+00
2.570000e-06	-1.504182e-06	-9.435008e-11	-1.073282e+01	-7.568744e+00
2.580000e-06	-1.653887e-06	-3.044323e-10	-1.180101e+01	-2.148405e+01
2.590000e-06	-1.802992e-06	-5.199610e-10	-1.286493e+01	-3.567900e+01
2.600000e-06	-1.951416e-06	-7.390859e-10	-1.392398e+01	-5.005206e+01
2.610000e-06	-2.099036e-06	-9.619449e-10	-1.497730e+01	-6.448926e+01
2.620000e-06	-2.245825e-06	-1.184893e-09	-1.602468e+01	-7.887026e+01
2.630000e-06	-2.391803e-06	-1.405057e-09	-1.706628e+01	-9.307502e+01
2.640000e-06	-2.536973e-06	-1.619213e-09	-1.810212e+01	-1.069905e+02
2.650000e-06	-2.681175e-06	-1.826844e-09	-1.913105e+01	-1.205167e+02
2.660000e-06	-2.824252e-06	-2.028994e-09	-2.015194e+01	-1.335714e+02
2.670000e-06	-2.966206e-06	-2.221712e-09	-2.116483e+01	-1.460929e+02
2.680000e-06	-3.106981e-06	-2.403735e-09	-2.216931e+01	-1.580420e+02
2.690000e-06	-3.246489e-06	-2.575646e-09	-2.316474e+01	-1.694007e+02
2.700000e-06	-3.384747e-06	-2.738693e-09	-2.415126e+01	-1.801699e+02
2.710000e-06	-3.521757e-06	-2.894248e-09	-2.512887e+01	-1.903662e+02
2.720000e-06	-3.657424e-06	-3.043259e-09	-2.609690e+01	-2.000171e+02
2.730000e-06	-3.791804e-06	-3.182279e-09	-2.705574e+01	-2.091562e+02
2.740000e-06	-3.924900e-06	-3.314439e-09	-2.800542e+01	-2.178194e+02
2.750000e-06	-4.056539e-06	-3.442810e-09	-2.894471e+01	-2.260408e+02
2.760000e-06	-4.186683e-06	-3.565420e-09	-2.987333e+01	-2.338504e+02
2.770000e-06	-4.315449e-06	-3.681340e-09	-3.079211e+01	-2.412729e+02
2.780000e-06	-4.442752e-06	-3.789159e-09	-3.170046e+01	-2.483278e+02
2.790000e-06	-4.568518e-06	-3.889931e-09	-3.259784e+01	-2.550303e+02
2.800000e-06	-4.692693e-06	-3.984353e-09	-3.348387e+01	-2.613927e+02
2.810000e-06	-4.815186e-06	-4.074346e-09	-3.435790e+01	-2.674271e+02
2.820000e-06	-4.935969e-06	-4.162031e-09	-3.521973e+01	-2.731465e+02
2.830000e-06	-5.054866e-06	-4.245883e-09	-3.606809e+01	-2.785668e+02
2.840000e-06	-5.171743e-06	-4.324927e-09	-3.690205e+01	-2.837071e+02
2.850000e-06	-5.286535e-06	-4.399247e-09	-3.772112e+01	-2.885899e+02
2.860000e-06	-5.399213e-06	-4.473538e-09	-3.852512e+01	-2.932401e+02
2.870000e-06	-5.509820e-06	-4.545969e-09	-3.931434e+01	-2.976832e+02
2.880000e-06	-5.618409e-06	-4.612153e-09	-4.008915e+01	-3.019438e+02
2.890000e-06	-5.725071e-06	-4.674775e-09	-4.085022e+01	-3.060430e+02
2.900000e-06	-5.829731e-06	-4.736011e-09	-4.159700e+01	-3.099972e+02
2.910000e-06	-5.932215e-06	-4.796577e-09	-4.232826e+01	-3.138168e+02
2.920000e-06	-6.032499e-06	-4.855112e-09	-4.304381e+01	-3.175054e+02
2.930000e-06	-6.130625e-06	-4.912081e-09	-4.374397e+01	-3.210608e+02
2.940000e-06	-6.226567e-06	-4.967067e-09	-4.442855e+01	-3.244757e+02
