# Temperatura_=_32.74
# Concentracion g/m^3_=_5000.0
# C_Vs_to_Am_M_A/Vsm_=_65563218390.804596
# pendiente_HvsI_1/m_=_3716.3
# ordenada_HvsI_A/m_=_1297.0
# frecuencia_Hz_=_302497.04273258575

Tiempo_(s)	Campo_(V.s)	Magnetizacion_(V.s)	Campo_(kA/m)	Magnetizacion_(A/m)
0.000000e+00	-7.924623e-06	-5.696523e-09	-5.686512e+01	-3.727873e+02
1.000000e-08	-7.920152e-06	-5.696229e-09	-5.683304e+01	-3.725493e+02
2.000000e-08	-7.913102e-06	-5.689403e-09	-5.678245e+01	-3.722482e+02
3.000000e-08	-7.903296e-06	-5.686424e-09	-5.671208e+01	-3.718954e+02
4.000000e-08	-7.890579e-06	-5.682465e-09	-5.662083e+01	-3.715033e+02
5.000000e-08	-7.874851e-06	-5.673124e-09	-5.650797e+01	-3.710835e+02
6.000000e-08	-7.856523e-06	-5.660279e-09	-5.637645e+01	-3.706455e+02
7.000000e-08	-7.836063e-06	-5.647850e-09	-5.622963e+01	-3.701955e+02
8.000000e-08	-7.813031e-06	-5.669572e-09	-5.606436e+01	-3.697358e+02
9.000000e-08	-7.786801e-06	-5.722740e-09	-5.587614e+01	-3.692646e+02
1.000000e-07	-7.757397e-06	-5.673057e-09	-5.566514e+01	-3.687763e+02
1.100000e-07	-7.725221e-06	-5.618264e-09	-5.543426e+01	-3.682624e+02
1.200000e-07	-7.690346e-06	-5.612378e-09	-5.518401e+01	-3.677127e+02
1.300000e-07	-7.652925e-06	-5.589844e-09	-5.491548e+01	-3.671161e+02
1.400000e-07	-7.613400e-06	-5.545350e-09	-5.463186e+01	-3.664626e+02
1.500000e-07	-7.571742e-06	-5.544859e-09	-5.433293e+01	-3.657436e+02
1.600000e-07	-7.527465e-06	-5.654919e-09	-5.401521e+01	-3.649532e+02
1.700000e-07	-7.480441e-06	-5.531369e-09	-5.367778e+01	-3.640878e+02
1.800000e-07	-7.430548e-06	-5.513468e-09	-5.331976e+01	-3.631465e+02
1.900000e-07	-7.377626e-06	-5.556929e-09	-5.294000e+01	-3.621305e+02
2.000000e-07	-7.321940e-06	-5.447356e-09	-5.254042e+01	-3.610420e+02
2.100000e-07	-7.263579e-06	-5.487883e-09	-5.212163e+01	-3.598841e+02
2.200000e-07	-7.202579e-06	-5.467369e-09	-5.168391e+01	-3.586595e+02
2.300000e-07	-7.138953e-06	-5.443797e-09	-5.122735e+01	-3.573702e+02
2.400000e-07	-7.072519e-06	-5.404406e-09	-5.075063e+01	-3.560171e+02
2.500000e-07	-7.003455e-06	-5.385929e-09	-5.025505e+01	-3.545998e+02
2.600000e-07	-6.931781e-06	-5.397071e-09	-4.974073e+01	-3.531174e+02
2.700000e-07	-6.857305e-06	-5.350106e-09	-4.920631e+01	-3.515679e+02
2.800000e-07	-6.780036e-06	-5.327028e-09	-4.865185e+01	-3.499498e+02
2.900000e-07	-6.699971e-06	-5.283689e-09	-4.807732e+01	-3.482616e+02
3.000000e-07	-6.617461e-06	-5.282314e-09	-4.748525e+01	-3.465027e+02
3.100000e-07	-6.532799e-06	-5.268522e-09	-4.687773e+01	-3.446732e+02
3.200000e-07	-6.445875e-06	-5.210771e-09	-4.625399e+01	-3.427740e+02
3.300000e-07	-6.356576e-06	-5.193472e-09	-4.561321e+01	-3.408062e+02
3.400000e-07	-6.264897e-06	-5.153153e-09	-4.495534e+01	-3.387711e+02
3.500000e-07	-6.170988e-06	-5.124875e-09	-4.428147e+01	-3.366691e+02
3.600000e-07	-6.074852e-06	-5.094973e-09	-4.359162e+01	-3.344999e+02
3.700000e-07	-5.976456e-06	-5.074984e-09	-4.288556e+01	-3.322616e+02
3.800000e-07	-5.875940e-06	-5.042451e-09	-4.216428e+01	-3.299511e+02
3.900000e-07	-5.773361e-06	-4.982454e-09	-4.142820e+01	-3.275641e+02
4.000000e-07	-5.668720e-06	-4.936168e-09	-4.067732e+01	-3.250956e+02
4.100000e-07	-5.562062e-06	-4.897129e-09	-3.991197e+01	-3.225403e+02
4.200000e-07	-5.453485e-06	-4.883783e-09	-3.913285e+01	-3.198934e+02
4.300000e-07	-5.343000e-06	-4.839123e-09	-3.834004e+01	-3.171512e+02
4.400000e-07	-5.230473e-06	-4.783201e-09	-3.753257e+01	-3.143112e+02
4.500000e-07	-5.115851e-06	-4.736342e-09	-3.671007e+01	-3.113726e+02
4.600000e-07	-4.999248e-06	-4.691220e-09	-3.587336e+01	-3.083359e+02
4.700000e-07	-4.880837e-06	-4.635469e-09	-3.502367e+01	-3.052026e+02
4.800000e-07	-4.760632e-06	-4.585832e-09	-3.416110e+01	-3.019742e+02
4.900000e-07	-4.638646e-06	-4.546209e-09	-3.328577e+01	-2.986519e+02
5.000000e-07	-4.514981e-06	-4.486832e-09	-3.239837e+01	-2.952352e+02
5.100000e-07	-4.389741e-06	-4.429350e-09	-3.149969e+01	-2.917220e+02
5.200000e-07	-4.262914e-06	-4.382393e-09	-3.058961e+01	-2.881076e+02
5.300000e-07	-4.134513e-06	-4.331563e-09	-2.966824e+01	-2.843854e+02
5.400000e-07	-4.004666e-06	-4.257261e-09	-2.873648e+01	-2.805468e+02
5.500000e-07	-3.873264e-06	-4.185444e-09	-2.779358e+01	-2.765826e+02
5.600000e-07	-3.740342e-06	-4.130562e-09	-2.683976e+01	-2.724833e+02
5.700000e-07	-3.606030e-06	-4.068911e-09	-2.587598e+01	-2.682406e+02
5.800000e-07	-3.470319e-06	-3.998360e-09	-2.490214e+01	-2.638484e+02
5.900000e-07	-3.333307e-06	-3.930627e-09	-2.391898e+01	-2.593030e+02
6.000000e-07	-3.195019e-06	-3.863464e-09	-2.292666e+01	-2.546036e+02
6.100000e-07	-3.055306e-06	-3.783355e-09	-2.192411e+01	-2.497521e+02
6.200000e-07	-2.914200e-06	-3.706513e-09	-2.091157e+01	-2.447516e+02
6.300000e-07	-2.771932e-06	-3.637267e-09	-1.989070e+01	-2.396063e+02
6.400000e-07	-2.628626e-06	-3.559707e-09	-1.886236e+01	-2.343189e+02
6.500000e-07	-2.484341e-06	-3.469081e-09	-1.782701e+01	-2.288902e+02
6.600000e-07	-2.339106e-06	-3.377705e-09	-1.678484e+01	-2.233172e+02
6.700000e-07	-2.193073e-06	-3.292477e-09	-1.573694e+01	-2.175927e+02
6.800000e-07	-2.046395e-06	-3.204103e-09	-1.468442e+01	-2.117051e+02
6.900000e-07	-1.899083e-06	-3.113944e-09	-1.362735e+01	-2.056389e+02
7.000000e-07	-1.751160e-06	-3.019444e-09	-1.256589e+01	-1.993759e+02
7.100000e-07	-1.602721e-06	-2.919159e-09	-1.150072e+01	-1.928965e+02
7.200000e-07	-1.453850e-06	-2.814306e-09	-1.043247e+01	-1.861819e+02
7.300000e-07	-1.304533e-06	-2.708117e-09	-9.361005e+00	-1.792157e+02
7.400000e-07	-1.154789e-06	-2.598399e-09	-8.286481e+00	-1.719850e+02
7.500000e-07	-1.004698e-06	-2.484883e-09	-7.209465e+00	-1.644814e+02
7.600000e-07	-8.542119e-07	-2.371414e-09	-6.129611e+00	-1.567011e+02
7.700000e-07	-7.033792e-07	-2.249350e-09	-5.047274e+00	-1.486434e+02
7.800000e-07	-5.523287e-07	-2.121235e-09	-3.963373e+00	-1.403094e+02
7.900000e-07	-4.010652e-07	-1.987928e-09	-2.877944e+00	-1.316997e+02
8.000000e-07	-2.496298e-07	-1.851237e-09	-1.791281e+00	-1.228118e+02
8.100000e-07	-9.809337e-08	-1.709949e-09	-7.038936e-01	-1.136377e+02
8.200000e-07	5.348545e-08	-1.562028e-09	3.837983e-01	-1.041623e+02
8.300000e-07	2.050912e-07	-1.411950e-09	1.471683e+00	-9.436277e+01
8.400000e-07	3.566655e-07	-1.257594e-09	2.559343e+00	-8.420928e+01
8.500000e-07	5.081562e-07	-1.096174e-09	3.646402e+00	-7.366669e+01
8.600000e-07	6.595267e-07	-9.262526e-10	4.732599e+00	-6.269813e+01
8.700000e-07	8.106943e-07	-7.527530e-10	5.817340e+00	-5.126935e+01
8.800000e-07	9.615961e-07	-5.730850e-10	6.900174e+00	-3.935384e+01
8.900000e-07	1.112124e-06	-3.875428e-10	7.980324e+00	-2.693793e+01
9.000000e-07	1.262214e-06	-1.956611e-10	9.057333e+00	-1.402548e+01
9.100000e-07	1.411883e-06	2.052776e-12	1.013132e+01	-6.414380e-01
9.200000e-07	1.561088e-06	2.096416e-10	1.120198e+01	1.316629e+01
9.300000e-07	1.709772e-06	4.280203e-10	1.226890e+01	2.732679e+01
9.400000e-07	1.857878e-06	6.506424e-10	1.333167e+01	4.174824e+01
9.500000e-07	2.005315e-06	8.757086e-10	1.438964e+01	5.632193e+01
9.600000e-07	2.152032e-06	1.098374e-09	1.544244e+01	7.092790e+01
9.700000e-07	2.297929e-06	1.317530e-09	1.648937e+01	8.544165e+01
9.800000e-07	2.442892e-06	1.532070e-09	1.752958e+01	9.974128e+01
9.900000e-07	2.586968e-06	1.743245e-09	1.856344e+01	1.137143e+02
1.000000e-06	2.730077e-06	1.949683e-09	1.959035e+01	1.272638e+02
1.010000e-06	2.872116e-06	2.145954e-09	2.060958e+01	1.403123e+02
1.020000e-06	3.013054e-06	2.330787e-09	2.162093e+01	1.528050e+02
1.030000e-06	3.152729e-06	2.507088e-09	2.262320e+01	1.647096e+02
1.040000e-06	3.291074e-06	2.677684e-09	2.361593e+01	1.760154e+02
1.050000e-06	3.428152e-06	2.841573e-09	2.459956e+01	1.867300e+02
1.060000e-06	3.563983e-06	2.998860e-09	2.557425e+01	1.968751e+02
1.070000e-06	3.698437e-06	3.147924e-09	2.653906e+01	2.064816e+02
1.080000e-06	3.831569e-06	3.287570e-09	2.749439e+01	2.155850e+02
1.090000e-06	3.963336e-06	3.418402e-09	2.843991e+01	2.242208e+02
1.100000e-06	4.093574e-06	3.541501e-09	2.937446e+01	2.324218e+02
1.110000e-06	4.222398e-06	3.660909e-09	3.029887e+01	2.402156e+02
1.120000e-06	4.349775e-06	3.774785e-09	3.121290e+01	2.476241e+02
1.130000e-06	4.475671e-06	3.883888e-09	3.211630e+01	2.546642e+02
1.140000e-06	4.600099e-06	3.986903e-09	3.300916e+01	2.613491e+02
1.150000e-06	4.722918e-06	4.083676e-09	3.389048e+01	2.676902e+02
1.160000e-06	4.844023e-06	4.173648e-09	3.475950e+01	2.736993e+02
1.170000e-06	4.963327e-06	4.256995e-09	3.561560e+01	2.793907e+02
1.180000e-06	5.080835e-06	4.337329e-09	3.645880e+01	2.847819e+02
1.190000e-06	5.196464e-06	4.414941e-09	3.728853e+01	2.898941e+02
1.200000e-06	5.310064e-06	4.489349e-09	3.810370e+01	2.947518e+02
1.210000e-06	5.421679e-06	4.558974e-09	3.890462e+01	2.993813e+02
1.220000e-06	5.531435e-06	4.625239e-09	3.969220e+01	3.038090e+02
1.230000e-06	5.639234e-06	4.691180e-09	4.046573e+01	3.080593e+02
1.240000e-06	5.744956e-06	4.756489e-09	4.122437e+01	3.121522e+02
1.250000e-06	5.848515e-06	4.816967e-09	4.196749e+01	3.161025e+02
1.260000e-06	5.949897e-06	4.874159e-09	4.269497e+01	3.199181e+02
1.270000e-06	6.049100e-06	4.928827e-09	4.340683e+01	3.236007e+02
1.280000e-06	6.146014e-06	4.980568e-09	4.410227e+01	3.271462e+02
1.290000e-06	6.240632e-06	5.029705e-09	4.478122e+01	3.305463e+02
1.300000e-06	6.333026e-06	5.076541e-09	4.544422e+01	3.337906e+02
1.310000e-06	6.423259e-06	5.120527e-09	4.609171e+01	3.368687e+02
1.320000e-06	6.511203e-06	5.160796e-09	4.672277e+01	3.397726e+02
1.330000e-06	6.596813e-06	5.201216e-09	4.733708e+01	3.424979e+02
1.340000e-06	6.680107e-06	5.241944e-09	4.793478e+01	3.450453e+02
1.350000e-06	6.761020e-06	5.279940e-09	4.851539e+01	3.474203e+02
1.360000e-06	6.839470e-06	5.312986e-09	4.907833e+01	3.496334e+02
1.370000e-06	6.915342e-06	5.341853e-09	4.962277e+01	3.516980e+02
1.380000e-06	6.988568e-06	5.370065e-09	5.014822e+01	3.536296e+02
1.390000e-06	7.059264e-06	5.398079e-09	5.065552e+01	3.554435e+02
1.400000e-06	7.127497e-06	5.425067e-09	5.114514e+01	3.571534e+02
1.410000e-06	7.193153e-06	5.449442e-09	5.161628e+01	3.587698e+02
1.420000e-06	7.256246e-06	5.472269e-09	5.206901e+01	3.602992e+02
1.430000e-06	7.316900e-06	5.493344e-09	5.250425e+01	3.617444e+02
1.440000e-06	7.375038e-06	5.512398e-09	5.292144e+01	3.631044e+02
1.450000e-06	7.430502e-06	5.530039e-09	5.331943e+01	3.643762e+02
1.460000e-06	7.483149e-06	5.545992e-09	5.369721e+01	3.655555e+02
1.470000e-06	7.532731e-06	5.559815e-09	5.405300e+01	3.666385e+02
1.480000e-06	7.579396e-06	5.571997e-09	5.438786e+01	3.676232e+02
1.490000e-06	7.623428e-06	5.586137e-09	5.470382e+01	3.685105e+02
1.500000e-06	7.664744e-06	5.600581e-09	5.500029e+01	3.693043e+02
1.510000e-06	7.703314e-06	5.615513e-09	5.527706e+01	3.700114e+02
1.520000e-06	7.739243e-06	5.626256e-09	5.553488e+01	3.706411e+02
1.530000e-06	7.772406e-06	5.632848e-09	5.577284e+01	3.712036e+02
1.540000e-06	7.802743e-06	5.639224e-09	5.599054e+01	3.717089e+02
1.550000e-06	7.830404e-06	5.645619e-09	5.618903e+01	3.721653e+02
1.560000e-06	7.855219e-06	5.655355e-09	5.636709e+01	3.725785e+02
1.570000e-06	7.877137e-06	5.664558e-09	5.652437e+01	3.729505e+02
1.580000e-06	7.896360e-06	5.669564e-09	5.666231e+01	3.732797e+02
1.590000e-06	7.912726e-06	5.670749e-09	5.677975e+01	3.735612e+02
1.600000e-06	7.926010e-06	5.672135e-09	5.687507e+01	3.737877e+02
1.610000e-06	7.936144e-06	5.676208e-09	5.694779e+01	3.739509e+02
1.620000e-06	7.943284e-06	5.679666e-09	5.699902e+01	3.740429e+02
1.630000e-06	7.947684e-06	5.680761e-09	5.703060e+01	3.740579e+02
1.640000e-06	7.949203e-06	5.680460e-09	5.704150e+01	3.739927e+02
1.650000e-06	7.947913e-06	5.682241e-09	5.703224e+01	3.738484e+02
1.660000e-06	7.944133e-06	5.673181e-09	5.700512e+01	3.736297e+02
1.670000e-06	7.937687e-06	5.669298e-09	5.695886e+01	3.733451e+02
1.680000e-06	7.928534e-06	5.666598e-09	5.689318e+01	3.730054e+02
1.690000e-06	7.916723e-06	5.661616e-09	5.680843e+01	3.726228e+02
1.700000e-06	7.902097e-06	5.659852e-09	5.670347e+01	3.722094e+02
1.710000e-06	7.884919e-06	5.662157e-09	5.658021e+01	3.717753e+02
1.720000e-06	7.865499e-06	5.666254e-09	5.644086e+01	3.713278e+02
1.730000e-06	7.843527e-06	5.592599e-09	5.628320e+01	3.708704e+02
1.740000e-06	7.818380e-06	5.548296e-09	5.610275e+01	3.704024e+02
1.750000e-06	7.789632e-06	5.607448e-09	5.589646e+01	3.699193e+02
1.760000e-06	7.757563e-06	5.609014e-09	5.566634e+01	3.694133e+02
1.770000e-06	7.722982e-06	5.580625e-09	5.541819e+01	3.688744e+02
1.780000e-06	7.686112e-06	5.628025e-09	5.515362e+01	3.682918e+02
1.790000e-06	7.647002e-06	5.669546e-09	5.487298e+01	3.676551e+02
1.800000e-06	7.605868e-06	5.491218e-09	5.457781e+01	3.669551e+02
1.810000e-06	7.562300e-06	5.551276e-09	5.426518e+01	3.661851e+02
1.820000e-06	7.516103e-06	5.589113e-09	5.393368e+01	3.653408e+02
1.830000e-06	7.467205e-06	5.517338e-09	5.358280e+01	3.644207e+02
1.840000e-06	7.415291e-06	5.627875e-09	5.321028e+01	3.634253e+02
1.850000e-06	7.360499e-06	5.492518e-09	5.281710e+01	3.623568e+02
1.860000e-06	7.302984e-06	5.527190e-09	5.240439e+01	3.612179e+02
1.870000e-06	7.242916e-06	5.479066e-09	5.197336e+01	3.600117e+02
1.880000e-06	7.180169e-06	5.423453e-09	5.152310e+01	3.587403e+02
1.890000e-06	7.114560e-06	5.514220e-09	5.105231e+01	3.574049e+02
1.900000e-06	7.046226e-06	5.405574e-09	5.056196e+01	3.560056e+02
1.910000e-06	6.975066e-06	5.431859e-09	5.005133e+01	3.545414e+02
1.920000e-06	6.901232e-06	5.359675e-09	4.952152e+01	3.530108e+02
1.930000e-06	6.824736e-06	5.362337e-09	4.897261e+01	3.514120e+02
1.940000e-06	6.745460e-06	5.365412e-09	4.840374e+01	3.497434e+02
1.950000e-06	6.663697e-06	5.287153e-09	4.781703e+01	3.480043e+02
1.960000e-06	6.579540e-06	5.321521e-09	4.721314e+01	3.461944e+02
1.970000e-06	6.492877e-06	5.228241e-09	4.659126e+01	3.443145e+02
1.980000e-06	6.403786e-06	5.227044e-09	4.595197e+01	3.423658e+02
1.990000e-06	6.312573e-06	5.187040e-09	4.529745e+01	3.403493e+02
2.000000e-06	6.219180e-06	5.177105e-09	4.462729e+01	3.382660e+02
2.010000e-06	6.123450e-06	5.135345e-09	4.394035e+01	3.361156e+02
2.020000e-06	6.025582e-06	5.068772e-09	4.323807e+01	3.338968e+02
2.030000e-06	5.925660e-06	5.058343e-09	4.252106e+01	3.316068e+02
2.040000e-06	5.823581e-06	5.023027e-09	4.178856e+01	3.292417e+02
2.050000e-06	5.719353e-06	5.020666e-09	4.104065e+01	3.267966e+02
2.060000e-06	5.613184e-06	4.946778e-09	4.027881e+01	3.242662e+02
2.070000e-06	5.505170e-06	4.907127e-09	3.950373e+01	3.216454e+02
2.080000e-06	5.395272e-06	4.857136e-09	3.871513e+01	3.189302e+02
2.090000e-06	5.283323e-06	4.818828e-09	3.791181e+01	3.161179e+02
2.100000e-06	5.169396e-06	4.783641e-09	3.709430e+01	3.132070e+02
2.110000e-06	5.053504e-06	4.759552e-09	3.626268e+01	3.101977e+02
2.120000e-06	4.935543e-06	4.706160e-09	3.541622e+01	3.070914e+02
2.130000e-06	4.815621e-06	4.629644e-09	3.455569e+01	3.038895e+02
2.140000e-06	4.693925e-06	4.581876e-09	3.368244e+01	3.005935e+02
2.150000e-06	4.570622e-06	4.543692e-09	3.279764e+01	2.972035e+02
2.160000e-06	4.445623e-06	4.507641e-09	3.190069e+01	2.937177e+02
2.170000e-06	4.318971e-06	4.440409e-09	3.099186e+01	2.901323e+02
2.180000e-06	4.190664e-06	4.388412e-09	3.007116e+01	2.864412e+02
2.190000e-06	4.060865e-06	4.326866e-09	2.913975e+01	2.826364e+02
2.200000e-06	3.929723e-06	4.265052e-09	2.819871e+01	2.787086e+02
2.210000e-06	3.797078e-06	4.202445e-09	2.724688e+01	2.746483e+02
2.220000e-06	3.662873e-06	4.148911e-09	2.628387e+01	2.704468e+02
2.230000e-06	3.527270e-06	4.077982e-09	2.531081e+01	2.660974e+02
2.240000e-06	3.390390e-06	4.000238e-09	2.432859e+01	2.615955e+02
2.250000e-06	3.252277e-06	3.934466e-09	2.333753e+01	2.569396e+02
2.260000e-06	3.112933e-06	3.869958e-09	2.233763e+01	2.521307e+02
2.270000e-06	2.972275e-06	3.792400e-09	2.132830e+01	2.471719e+02
2.280000e-06	2.830436e-06	3.703696e-09	2.031050e+01	2.420671e+02
2.290000e-06	2.687538e-06	3.624206e-09	1.928510e+01	2.368197e+02
2.300000e-06	2.543665e-06	3.542293e-09	1.825270e+01	2.314310e+02
2.310000e-06	2.398895e-06	3.464607e-09	1.721387e+01	2.258993e+02
2.320000e-06	2.253368e-06	3.385048e-09	1.616960e+01	2.202186e+02
2.330000e-06	2.107135e-06	3.294437e-09	1.512028e+01	2.143786e+02
2.340000e-06	1.960100e-06	3.191605e-09	1.406519e+01	2.083647e+02
2.350000e-06	1.812407e-06	3.090434e-09	1.300538e+01	2.021594e+02
2.360000e-06	1.664184e-06	2.997811e-09	1.194177e+01	1.957433e+02
2.370000e-06	1.515452e-06	2.902517e-09	1.087450e+01	1.890973e+02
2.380000e-06	1.366222e-06	2.797853e-09	9.803671e+00	1.822040e+02
2.390000e-06	1.216554e-06	2.685621e-09	8.729689e+00	1.750494e+02
2.400000e-06	1.066510e-06	2.568854e-09	7.653011e+00	1.676239e+02
2.410000e-06	9.161508e-07	2.450174e-09	6.574070e+00	1.599224e+02
2.420000e-06	7.655436e-07	2.332777e-09	5.493350e+00	1.519433e+02
2.430000e-06	6.146430e-07	2.213464e-09	4.410525e+00	1.436877e+02
2.440000e-06	4.635156e-07	2.084690e-09	3.326072e+00	1.351564e+02
2.450000e-06	3.121926e-07	1.948651e-09	2.240216e+00	1.263481e+02
2.460000e-06	1.606605e-07	1.809416e-09	1.152860e+00	1.172564e+02
2.470000e-06	9.017022e-09	1.667913e-09	6.470390e-02	1.078686e+02
2.480000e-06	-1.426794e-07	1.522850e-09	-1.023832e+00	9.816401e+01
2.490000e-06	-2.943408e-07	1.370716e-09	-2.112116e+00	8.811459e+01
2.500000e-06	-4.458401e-07	1.208008e-09	-3.199237e+00	7.768646e+01
2.510000e-06	-5.971472e-07	1.038392e-09	-4.284979e+00	6.684283e+01
2.520000e-06	-7.482925e-07	8.671048e-10	-5.369560e+00	5.554821e+01
2.530000e-06	-8.992019e-07	6.920991e-10	-6.452448e+00	4.377334e+01
2.540000e-06	-1.049742e-06	5.050524e-10	-7.532685e+00	3.150038e+01
2.550000e-06	-1.199914e-06	3.045135e-10	-8.610284e+00	1.872775e+01
2.560000e-06	-1.349747e-06	9.883629e-11	-9.685449e+00	5.474110e+00
2.570000e-06	-1.499140e-06	-1.074075e-10	-1.075745e+01	-8.219290e+00
2.580000e-06	-1.647943e-06	-3.171391e-10	-1.182523e+01	-2.228799e+01
2.590000e-06	-1.796138e-06	-5.349899e-10	-1.288864e+01	-3.664580e+01
2.600000e-06	-1.943721e-06	-7.595846e-10	-1.394766e+01	-5.118834e+01
2.610000e-06	-2.090564e-06	-9.888450e-10	-1.500136e+01	-6.579820e+01
2.620000e-06	-2.236602e-06	-1.217620e-09	-1.604930e+01	-8.035146e+01
2.630000e-06	-2.381879e-06	-1.438594e-09	-1.709177e+01	-9.472475e+01
2.640000e-06	-2.526282e-06	-1.651699e-09	-1.812797e+01	-1.088023e+02
2.650000e-06	-2.669594e-06	-1.861567e-09	-1.915634e+01	-1.224820e+02
2.660000e-06	-2.811785e-06	-2.067230e-09	-2.017667e+01	-1.356808e+02
2.670000e-06	-2.952878e-06	-2.261348e-09	-2.118912e+01	-1.483370e+02
2.680000e-06	-3.092818e-06	-2.442554e-09	-2.219329e+01	-1.604121e+02
2.690000e-06	-3.231443e-06	-2.613749e-09	-2.318803e+01	-1.718894e+02
2.700000e-06	-3.368842e-06	-2.778216e-09	-2.417397e+01	-1.827717e+02
2.710000e-06	-3.505106e-06	-2.937874e-09	-2.515177e+01	-1.930772e+02
2.720000e-06	-3.639993e-06	-3.090071e-09	-2.611968e+01	-2.028345e+02
2.730000e-06	-3.773504e-06	-3.230642e-09	-2.707772e+01	-2.120784e+02
2.740000e-06	-3.905726e-06	-3.363567e-09	-2.802652e+01	-2.208448e+02
2.750000e-06	-4.036573e-06	-3.493457e-09	-2.896544e+01	-2.291674e+02
2.760000e-06	-4.166079e-06	-3.616562e-09	-2.989475e+01	-2.370755e+02
2.770000e-06	-4.294205e-06	-3.731943e-09	-3.081415e+01	-2.445927e+02
2.780000e-06	-4.420780e-06	-3.840914e-09	-3.172241e+01	-2.517371e+02
2.790000e-06	-4.545870e-06	-3.944603e-09	-3.262003e+01	-2.585227e+02
2.800000e-06	-4.669364e-06	-4.040956e-09	-3.350619e+01	-2.649613e+02
2.810000e-06	-4.791108e-06	-4.131314e-09	-3.437979e+01	-2.710645e+02
2.820000e-06	-4.911136e-06	-4.218588e-09	-3.524109e+01	-2.768455e+02
2.830000e-06	-5.029288e-06	-4.302442e-09	-3.608892e+01	-2.823210e+02
2.840000e-06	-5.145428e-06	-4.382322e-09	-3.692231e+01	-2.875110e+02
2.850000e-06	-5.259380e-06	-4.457691e-09	-3.774000e+01	-2.924392e+02
2.860000e-06	-5.371180e-06	-4.531756e-09	-3.854225e+01	-2.971316e+02
2.870000e-06	-5.481032e-06	-4.603831e-09	-3.933052e+01	-3.016149e+02
2.880000e-06	-5.588972e-06	-4.671043e-09	-4.010507e+01	-3.059140e+02
2.890000e-06	-5.695017e-06	-4.733853e-09	-4.086602e+01	-3.100507e+02
2.900000e-06	-5.799003e-06	-4.794229e-09	-4.161220e+01	-3.140410e+02
2.910000e-06	-5.900802e-06	-4.854248e-09	-4.234269e+01	-3.178952e+02
2.920000e-06	-6.000442e-06	-4.913450e-09	-4.305768e+01	-3.216165e+02
2.930000e-06	-6.097972e-06	-4.971759e-09	-4.375752e+01	-3.252023e+02
2.940000e-06	-6.193324e-06	-5.027966e-09	-4.444175e+01	-3.286454e+02
