# Temperatura_=_29.93
# Concentracion g/m^3_=_5000.0
# C_Vs_to_Am_M_A/Vsm_=_65563218390.804596
# pendiente_HvsI_1/m_=_3716.3
# ordenada_HvsI_A/m_=_1297.0
# frecuencia_Hz_=_302502.1717440997

Tiempo_(s)	Campo_(V.s)	Magnetizacion_(V.s)	Campo_(kA/m)	Magnetizacion_(A/m)
0.000000e+00	-7.968018e-06	-5.622688e-09	-5.686592e+01	-3.681141e+02
1.000000e-08	-7.963475e-06	-5.617705e-09	-5.683350e+01	-3.679005e+02
2.000000e-08	-7.956441e-06	-5.609074e-09	-5.678330e+01	-3.676251e+02
3.000000e-08	-7.946702e-06	-5.607332e-09	-5.671379e+01	-3.672967e+02
4.000000e-08	-7.934040e-06	-5.607069e-09	-5.662343e+01	-3.669253e+02
5.000000e-08	-7.918332e-06	-5.603552e-09	-5.651132e+01	-3.665206e+02
6.000000e-08	-7.899980e-06	-5.597074e-09	-5.638035e+01	-3.660912e+02
7.000000e-08	-7.879491e-06	-5.590016e-09	-5.623413e+01	-3.656433e+02
8.000000e-08	-7.856374e-06	-5.615118e-09	-5.606915e+01	-3.651802e+02
9.000000e-08	-7.830029e-06	-5.646843e-09	-5.588113e+01	-3.647015e+02
1.000000e-07	-7.800480e-06	-5.593499e-09	-5.567024e+01	-3.642036e+02
1.100000e-07	-7.768083e-06	-5.546034e-09	-5.543903e+01	-3.636799e+02
1.200000e-07	-7.732995e-06	-5.542300e-09	-5.518862e+01	-3.631215e+02
1.300000e-07	-7.695433e-06	-5.523202e-09	-5.492054e+01	-3.625186e+02
1.400000e-07	-7.655741e-06	-5.472924e-09	-5.463727e+01	-3.618610e+02
1.500000e-07	-7.613826e-06	-5.479742e-09	-5.433813e+01	-3.611397e+02
1.600000e-07	-7.569274e-06	-5.561010e-09	-5.402018e+01	-3.603472e+02
1.700000e-07	-7.521976e-06	-5.455927e-09	-5.368262e+01	-3.594784e+02
1.800000e-07	-7.471823e-06	-5.449599e-09	-5.332469e+01	-3.585306e+02
1.900000e-07	-7.418683e-06	-5.490415e-09	-5.294544e+01	-3.575032e+02
2.000000e-07	-7.362754e-06	-5.410542e-09	-5.254629e+01	-3.563977e+02
2.100000e-07	-7.304139e-06	-5.426504e-09	-5.212797e+01	-3.552169e+02
2.200000e-07	-7.242868e-06	-5.403074e-09	-5.169069e+01	-3.539642e+02
2.300000e-07	-7.178908e-06	-5.377532e-09	-5.123423e+01	-3.526432e+02
2.400000e-07	-7.112193e-06	-5.327693e-09	-5.075809e+01	-3.512569e+02
2.500000e-07	-7.042837e-06	-5.317845e-09	-5.026312e+01	-3.498077e+02
2.600000e-07	-6.970762e-06	-5.328265e-09	-4.974873e+01	-3.482970e+02
2.700000e-07	-6.895890e-06	-5.278586e-09	-4.921439e+01	-3.467257e+02
2.800000e-07	-6.818205e-06	-5.243993e-09	-4.865997e+01	-3.450935e+02
2.900000e-07	-6.737778e-06	-5.212997e-09	-4.808598e+01	-3.434001e+02
3.000000e-07	-6.654957e-06	-5.217417e-09	-4.749491e+01	-3.416449e+02
3.100000e-07	-6.569914e-06	-5.197402e-09	-4.688797e+01	-3.398271e+02
3.200000e-07	-6.482551e-06	-5.157875e-09	-4.626448e+01	-3.379461e+02
3.300000e-07	-6.392792e-06	-5.135269e-09	-4.562390e+01	-3.360012e+02
3.400000e-07	-6.300717e-06	-5.088538e-09	-4.496678e+01	-3.339917e+02
3.500000e-07	-6.206420e-06	-5.054481e-09	-4.429380e+01	-3.319164e+02
3.600000e-07	-6.109838e-06	-5.028346e-09	-4.360452e+01	-3.297739e+02
3.700000e-07	-6.011020e-06	-5.011921e-09	-4.289927e+01	-3.275619e+02
3.800000e-07	-5.910052e-06	-4.977203e-09	-4.217869e+01	-3.252775e+02
3.900000e-07	-5.806979e-06	-4.923180e-09	-4.144308e+01	-3.229172e+02
4.000000e-07	-5.701834e-06	-4.877441e-09	-4.069269e+01	-3.204774e+02
4.100000e-07	-5.594614e-06	-4.837563e-09	-3.992748e+01	-3.179540e+02
4.200000e-07	-5.485448e-06	-4.811419e-09	-3.914839e+01	-3.153435e+02
4.300000e-07	-5.374423e-06	-4.768884e-09	-3.835602e+01	-3.126426e+02
4.400000e-07	-5.261363e-06	-4.718059e-09	-3.754914e+01	-3.098489e+02
4.500000e-07	-5.146173e-06	-4.675589e-09	-3.672706e+01	-3.069609e+02
4.600000e-07	-5.029035e-06	-4.636974e-09	-3.589107e+01	-3.039776e+02
4.700000e-07	-4.910109e-06	-4.587310e-09	-3.504232e+01	-3.008985e+02
4.800000e-07	-4.789351e-06	-4.538790e-09	-3.418050e+01	-2.977231e+02
4.900000e-07	-4.666788e-06	-4.493643e-09	-3.330580e+01	-2.944507e+02
5.000000e-07	-4.542515e-06	-4.433849e-09	-3.241889e+01	-2.910794e+02
5.100000e-07	-4.416636e-06	-4.373174e-09	-3.152052e+01	-2.876066e+02
5.200000e-07	-4.289158e-06	-4.324312e-09	-3.061074e+01	-2.840282e+02
5.300000e-07	-4.160091e-06	-4.272537e-09	-2.968962e+01	-2.803389e+02
5.400000e-07	-4.029551e-06	-4.200013e-09	-2.875798e+01	-2.765326e+02
5.500000e-07	-3.897464e-06	-4.129092e-09	-2.781531e+01	-2.726027e+02
5.600000e-07	-3.763882e-06	-4.077044e-09	-2.686196e+01	-2.685430e+02
5.700000e-07	-3.628905e-06	-4.022821e-09	-2.589866e+01	-2.643479e+02
5.800000e-07	-3.492483e-06	-3.958743e-09	-2.492505e+01	-2.600132e+02
5.900000e-07	-3.354652e-06	-3.893353e-09	-2.394138e+01	-2.555363e+02
6.000000e-07	-3.215449e-06	-3.823062e-09	-2.294792e+01	-2.509160e+02
6.100000e-07	-3.074925e-06	-3.739549e-09	-2.194503e+01	-2.461524e+02
6.200000e-07	-2.933122e-06	-3.657403e-09	-2.093302e+01	-2.412460e+02
6.300000e-07	-2.790066e-06	-3.584666e-09	-1.991206e+01	-2.361973e+02
6.400000e-07	-2.645992e-06	-3.508711e-09	-1.888384e+01	-2.310052e+02
6.500000e-07	-2.500999e-06	-3.425000e-09	-1.784906e+01	-2.256666e+02
6.600000e-07	-2.355113e-06	-3.340701e-09	-1.680791e+01	-2.201759e+02
6.700000e-07	-2.208490e-06	-3.259276e-09	-1.576149e+01	-2.145239e+02
6.800000e-07	-2.061168e-06	-3.172438e-09	-1.471008e+01	-2.086989e+02
6.900000e-07	-1.913164e-06	-3.081172e-09	-1.365381e+01	-2.026865e+02
7.000000e-07	-1.764523e-06	-2.986144e-09	-1.259300e+01	-1.964713e+02
7.100000e-07	-1.615359e-06	-2.885873e-09	-1.152845e+01	-1.900376e+02
7.200000e-07	-1.465757e-06	-2.781124e-09	-1.046078e+01	-1.833710e+02
7.300000e-07	-1.315674e-06	-2.673702e-09	-9.389663e+00	-1.764595e+02
7.400000e-07	-1.165086e-06	-2.564003e-09	-8.314952e+00	-1.692944e+02
7.500000e-07	-1.013999e-06	-2.451308e-09	-7.236678e+00	-1.618705e+02
7.600000e-07	-8.625033e-07	-2.338677e-09	-6.155489e+00	-1.541857e+02
7.700000e-07	-7.107251e-07	-2.222360e-09	-5.072282e+00	-1.462398e+02
7.800000e-07	-5.587486e-07	-2.099109e-09	-3.987661e+00	-1.380332e+02
7.900000e-07	-4.066186e-07	-1.969022e-09	-2.901944e+00	-1.295644e+02
8.000000e-07	-2.544016e-07	-1.832443e-09	-1.815606e+00	-1.208282e+02
8.100000e-07	-1.020616e-07	-1.688743e-09	-7.283903e-01	-1.118140e+02
8.200000e-07	5.045191e-08	-1.539122e-09	3.600638e-01	-1.025042e+02
8.300000e-07	2.029884e-07	-1.389082e-09	1.448682e+00	-9.287467e+01
8.400000e-07	3.554168e-07	-1.239037e-09	2.536529e+00	-8.289488e+01
8.500000e-07	5.076842e-07	-1.083403e-09	3.623226e+00	-7.253059e+01
8.600000e-07	6.598190e-07	-9.201398e-10	4.708977e+00	-6.174689e+01
8.700000e-07	8.118087e-07	-7.501298e-10	5.793693e+00	-5.051238e+01
8.800000e-07	9.635690e-07	-5.708079e-10	6.876772e+00	-3.880375e+01
8.900000e-07	1.115072e-06	-3.861984e-10	7.958011e+00	-2.661050e+01
9.000000e-07	1.266198e-06	-1.966786e-10	9.036568e+00	-1.393895e+01
9.100000e-07	1.416831e-06	8.697632e-13	1.011160e+01	-8.153627e-01
9.200000e-07	1.566914e-06	2.083692e-10	1.118271e+01	1.271250e+01
9.300000e-07	1.716399e-06	4.222438e-10	1.224954e+01	2.657554e+01
9.400000e-07	1.865269e-06	6.372291e-10	1.331200e+01	4.068535e+01
9.500000e-07	2.013465e-06	8.525751e-10	1.436964e+01	5.493800e+01
9.600000e-07	2.160990e-06	1.065824e-09	1.542249e+01	6.921925e+01
9.700000e-07	2.307746e-06	1.278274e-09	1.646985e+01	8.341075e+01
9.800000e-07	2.453592e-06	1.489890e-09	1.751072e+01	9.739663e+01
9.900000e-07	2.598524e-06	1.700352e-09	1.854507e+01	1.110698e+02
1.000000e-06	2.742513e-06	1.904390e-09	1.957268e+01	1.243377e+02
1.010000e-06	2.885443e-06	2.098452e-09	2.059274e+01	1.371259e+02
1.020000e-06	3.027171e-06	2.282831e-09	2.160423e+01	1.493811e+02
1.030000e-06	3.167637e-06	2.457168e-09	2.260670e+01	1.610717e+02
1.040000e-06	3.306856e-06	2.623087e-09	2.360028e+01	1.721861e+02
1.050000e-06	3.444767e-06	2.780229e-09	2.458451e+01	1.827305e+02
1.060000e-06	3.581333e-06	2.929718e-09	2.555915e+01	1.927246e+02
1.070000e-06	3.716583e-06	3.073711e-09	2.652440e+01	2.021977e+02
1.080000e-06	3.850471e-06	3.211852e-09	2.747993e+01	2.111834e+02
1.090000e-06	3.982945e-06	3.345179e-09	2.842537e+01	2.197161e+02
1.100000e-06	4.113987e-06	3.471151e-09	2.936058e+01	2.278274e+02
1.110000e-06	4.243583e-06	3.590710e-09	3.028548e+01	2.355444e+02
1.120000e-06	4.371687e-06	3.705626e-09	3.119973e+01	2.428883e+02
1.130000e-06	4.498263e-06	3.813642e-09	3.210307e+01	2.498755e+02
1.140000e-06	4.623375e-06	3.913411e-09	3.299597e+01	2.565179e+02
1.150000e-06	4.746936e-06	4.006429e-09	3.387779e+01	2.628256e+02
1.160000e-06	4.868764e-06	4.092848e-09	3.474725e+01	2.688085e+02
1.170000e-06	4.988858e-06	4.174424e-09	3.560434e+01	2.744783e+02
1.180000e-06	5.107155e-06	4.253748e-09	3.644860e+01	2.798500e+02
1.190000e-06	5.223485e-06	4.330808e-09	3.727882e+01	2.849424e+02
1.200000e-06	5.337741e-06	4.407773e-09	3.809424e+01	2.897778e+02
1.210000e-06	5.449978e-06	4.481610e-09	3.889524e+01	2.943811e+02
1.220000e-06	5.560259e-06	4.550889e-09	3.968229e+01	2.987784e+02
1.230000e-06	5.668628e-06	4.615477e-09	4.045570e+01	3.029944e+02
1.240000e-06	5.774998e-06	4.675992e-09	4.121484e+01	3.070512e+02
1.250000e-06	5.879221e-06	4.732546e-09	4.195866e+01	3.109658e+02
1.260000e-06	5.981277e-06	4.786218e-09	4.268700e+01	3.147494e+02
1.270000e-06	6.081083e-06	4.839323e-09	4.339930e+01	3.184069e+02
1.280000e-06	6.178561e-06	4.891795e-09	4.409498e+01	3.219370e+02
1.290000e-06	6.273724e-06	4.943472e-09	4.477413e+01	3.253335e+02
1.300000e-06	6.366689e-06	4.993373e-09	4.543760e+01	3.285868e+02
1.310000e-06	6.457430e-06	5.039716e-09	4.608520e+01	3.316861e+02
1.320000e-06	6.545774e-06	5.081797e-09	4.671569e+01	3.346216e+02
1.330000e-06	6.631783e-06	5.121827e-09	4.732952e+01	3.373858e+02
1.340000e-06	6.715544e-06	5.160817e-09	4.792730e+01	3.399755e+02
1.350000e-06	6.796957e-06	5.196148e-09	4.850832e+01	3.423921e+02
1.360000e-06	6.875880e-06	5.227730e-09	4.907158e+01	3.446419e+02
1.370000e-06	6.952223e-06	5.258479e-09	4.961643e+01	3.467352e+02
1.380000e-06	7.025872e-06	5.287665e-09	5.014204e+01	3.486854e+02
1.390000e-06	7.096942e-06	5.315329e-09	5.064925e+01	3.505071e+02
1.400000e-06	7.165584e-06	5.343492e-09	5.113913e+01	3.522148e+02
1.410000e-06	7.231669e-06	5.370738e-09	5.161077e+01	3.538212e+02
1.420000e-06	7.295141e-06	5.395861e-09	5.206375e+01	3.553364e+02
1.430000e-06	7.356148e-06	5.417787e-09	5.249915e+01	3.567670e+02
1.440000e-06	7.414667e-06	5.436082e-09	5.291678e+01	3.581162e+02
1.450000e-06	7.470528e-06	5.451564e-09	5.331545e+01	3.593841e+02
1.460000e-06	7.523510e-06	5.466685e-09	5.369357e+01	3.605692e+02
1.470000e-06	7.573378e-06	5.482228e-09	5.404947e+01	3.616687e+02
1.480000e-06	7.620319e-06	5.496983e-09	5.438447e+01	3.626804e+02
1.490000e-06	7.664677e-06	5.511494e-09	5.470105e+01	3.636031e+02
1.500000e-06	7.706287e-06	5.526415e-09	5.499801e+01	3.644379e+02
1.510000e-06	7.745050e-06	5.540568e-09	5.527465e+01	3.651879e+02
1.520000e-06	7.781179e-06	5.553024e-09	5.553250e+01	3.658586e+02
1.530000e-06	7.814558e-06	5.564363e-09	5.577071e+01	3.664566e+02
1.540000e-06	7.845086e-06	5.574331e-09	5.598859e+01	3.669892e+02
1.550000e-06	7.872922e-06	5.582698e-09	5.618725e+01	3.674633e+02
1.560000e-06	7.897877e-06	5.589639e-09	5.636534e+01	3.678844e+02
1.570000e-06	7.919882e-06	5.596000e-09	5.652239e+01	3.682556e+02
1.580000e-06	7.939187e-06	5.601614e-09	5.666016e+01	3.685775e+02
1.590000e-06	7.955619e-06	5.605200e-09	5.677743e+01	3.688485e+02
1.600000e-06	7.969042e-06	5.607317e-09	5.687323e+01	3.690644e+02
1.610000e-06	7.979342e-06	5.609197e-09	5.694674e+01	3.692202e+02
1.620000e-06	7.986566e-06	5.610607e-09	5.699830e+01	3.693103e+02
1.630000e-06	7.990997e-06	5.612413e-09	5.702992e+01	3.693303e+02
1.640000e-06	7.992620e-06	5.615853e-09	5.704150e+01	3.692776e+02
1.650000e-06	7.991473e-06	5.617545e-09	5.703332e+01	3.691521e+02
1.660000e-06	7.987765e-06	5.609191e-09	5.700685e+01	3.689570e+02
1.670000e-06	7.981395e-06	5.603341e-09	5.696139e+01	3.686980e+02
1.680000e-06	7.972277e-06	5.598477e-09	5.689631e+01	3.683834e+02
1.690000e-06	7.960368e-06	5.592830e-09	5.681132e+01	3.680228e+02
1.700000e-06	7.945663e-06	5.589532e-09	5.670638e+01	3.676263e+02
1.710000e-06	7.928454e-06	5.587928e-09	5.658356e+01	3.672027e+02
1.720000e-06	7.908982e-06	5.582428e-09	5.644459e+01	3.667592e+02
1.730000e-06	7.886978e-06	5.513353e-09	5.628755e+01	3.662999e+02
1.740000e-06	7.861742e-06	5.487953e-09	5.610746e+01	3.658255e+02
1.750000e-06	7.832871e-06	5.540363e-09	5.590141e+01	3.653333e+02
1.760000e-06	7.800701e-06	5.537065e-09	5.567182e+01	3.648173e+02
1.770000e-06	7.766004e-06	5.510529e-09	5.542420e+01	3.642694e+02
1.780000e-06	7.729003e-06	5.562162e-09	5.516013e+01	3.636798e+02
1.790000e-06	7.689779e-06	5.593907e-09	5.488019e+01	3.630384e+02
1.800000e-06	7.648509e-06	5.459272e-09	5.458566e+01	3.623357e+02
1.810000e-06	7.604750e-06	5.513948e-09	5.427336e+01	3.615638e+02
1.820000e-06	7.558327e-06	5.519073e-09	5.394205e+01	3.607168e+02
1.830000e-06	7.509196e-06	5.452747e-09	5.359141e+01	3.597912e+02
1.840000e-06	7.457037e-06	5.518050e-09	5.321917e+01	3.587861e+02
1.850000e-06	7.401990e-06	5.435018e-09	5.282631e+01	3.577023e+02
1.860000e-06	7.344217e-06	5.462629e-09	5.241399e+01	3.565423e+02
1.870000e-06	7.283852e-06	5.401268e-09	5.198319e+01	3.553093e+02
1.880000e-06	7.220809e-06	5.377407e-09	5.153326e+01	3.540071e+02
1.890000e-06	7.154914e-06	5.430488e-09	5.106298e+01	3.526387e+02
1.900000e-06	7.086271e-06	5.333302e-09	5.057309e+01	3.512068e+02
1.910000e-06	7.014764e-06	5.355044e-09	5.006277e+01	3.497132e+02
1.920000e-06	6.940552e-06	5.307727e-09	4.953313e+01	3.481588e+02
1.930000e-06	6.863671e-06	5.304989e-09	4.898445e+01	3.465436e+02
1.940000e-06	6.784041e-06	5.284454e-09	4.841615e+01	3.448674e+02
1.950000e-06	6.701935e-06	5.219815e-09	4.783018e+01	3.431295e+02
1.960000e-06	6.617358e-06	5.221869e-09	4.722657e+01	3.413292e+02
1.970000e-06	6.530349e-06	5.148605e-09	4.660561e+01	3.394659e+02
1.980000e-06	6.440986e-06	5.145180e-09	4.596784e+01	3.375389e+02
1.990000e-06	6.349386e-06	5.117118e-09	4.531411e+01	3.355475e+02
2.000000e-06	6.255525e-06	5.109550e-09	4.464425e+01	3.334908e+02
2.010000e-06	6.159334e-06	5.059085e-09	4.395776e+01	3.313672e+02
2.020000e-06	6.060975e-06	5.000651e-09	4.325579e+01	3.291749e+02
2.030000e-06	5.960466e-06	4.980663e-09	4.253848e+01	3.269111e+02
2.040000e-06	5.857847e-06	4.950092e-09	4.180611e+01	3.245725e+02
2.050000e-06	5.753114e-06	4.940254e-09	4.105866e+01	3.221554e+02
2.060000e-06	5.646402e-06	4.882099e-09	4.029708e+01	3.196559e+02
2.070000e-06	5.537802e-06	4.840350e-09	3.952202e+01	3.170701e+02
2.080000e-06	5.427254e-06	4.790897e-09	3.873307e+01	3.143949e+02
2.090000e-06	5.314675e-06	4.750249e-09	3.792962e+01	3.116276e+02
2.100000e-06	5.200058e-06	4.710262e-09	3.711162e+01	3.087662e+02
2.110000e-06	5.083424e-06	4.684044e-09	3.627923e+01	3.058098e+02
2.120000e-06	4.964827e-06	4.634799e-09	3.543283e+01	3.027576e+02
2.130000e-06	4.844354e-06	4.568557e-09	3.457304e+01	2.996094e+02
2.140000e-06	4.722067e-06	4.519724e-09	3.370031e+01	2.963644e+02
2.150000e-06	4.598080e-06	4.482092e-09	3.281545e+01	2.930212e+02
2.160000e-06	4.472409e-06	4.439908e-09	3.191856e+01	2.895774e+02
2.170000e-06	4.345091e-06	4.373202e-09	3.100992e+01	2.860292e+02
2.180000e-06	4.216154e-06	4.320979e-09	3.008972e+01	2.823717e+02
2.190000e-06	4.085738e-06	4.266260e-09	2.915898e+01	2.785991e+02
2.200000e-06	3.953862e-06	4.206744e-09	2.821781e+01	2.747048e+02
2.210000e-06	3.820473e-06	4.143110e-09	2.726584e+01	2.706823e+02
2.220000e-06	3.685614e-06	4.083053e-09	2.630338e+01	2.665260e+02
2.230000e-06	3.549381e-06	4.007889e-09	2.533112e+01	2.622312e+02
2.240000e-06	3.411751e-06	3.930968e-09	2.434888e+01	2.577946e+02
2.250000e-06	3.272778e-06	3.869634e-09	2.335707e+01	2.532149e+02
2.260000e-06	3.132561e-06	3.816193e-09	2.235637e+01	2.484918e+02
2.270000e-06	2.991120e-06	3.746803e-09	2.134694e+01	2.436257e+02
2.280000e-06	2.848540e-06	3.659843e-09	2.032938e+01	2.386172e+02
2.290000e-06	2.704847e-06	3.574806e-09	1.930388e+01	2.334659e+02
2.300000e-06	2.560252e-06	3.490536e-09	1.827193e+01	2.281692e+02
2.310000e-06	2.414843e-06	3.412616e-09	1.723419e+01	2.227223e+02
2.320000e-06	2.268620e-06	3.335225e-09	1.619062e+01	2.171171e+02
2.330000e-06	2.121597e-06	3.247571e-09	1.514136e+01	2.113424e+02
2.340000e-06	1.973796e-06	3.147942e-09	1.408653e+01	2.053848e+02
2.350000e-06	1.825301e-06	3.048639e-09	1.302676e+01	1.992287e+02
2.360000e-06	1.676261e-06	2.955687e-09	1.196309e+01	1.928586e+02
2.370000e-06	1.526758e-06	2.860651e-09	1.089612e+01	1.862594e+02
2.380000e-06	1.376723e-06	2.756236e-09	9.825359e+00	1.794185e+02
2.390000e-06	1.226220e-06	2.644093e-09	8.751252e+00	1.723261e+02
2.400000e-06	1.075315e-06	2.528047e-09	7.674280e+00	1.649761e+02
2.410000e-06	9.240327e-07	2.411998e-09	6.594610e+00	1.573655e+02
2.420000e-06	7.724476e-07	2.297251e-09	5.512782e+00	1.494937e+02
2.430000e-06	6.206134e-07	2.179477e-09	4.429176e+00	1.413612e+02
2.440000e-06	4.685784e-07	2.051575e-09	3.344137e+00	1.329672e+02
2.450000e-06	3.163574e-07	1.917754e-09	2.257770e+00	1.243079e+02
2.460000e-06	1.640247e-07	1.784182e-09	1.170607e+00	1.153741e+02
2.470000e-06	1.161124e-08	1.646692e-09	8.286674e-02	1.061506e+02
2.480000e-06	-1.408826e-07	1.502126e-09	-1.005447e+00	9.661485e+01
2.490000e-06	-2.933268e-07	1.349239e-09	-2.093406e+00	8.673808e+01
2.500000e-06	-4.456626e-07	1.188744e-09	-3.180592e+00	7.648684e+01
2.510000e-06	-5.978885e-07	1.023887e-09	-4.266994e+00	6.582600e+01
2.520000e-06	-7.499305e-07	8.581936e-10	-5.352082e+00	5.472269e+01
2.530000e-06	-9.017374e-07	6.884331e-10	-6.435493e+00	4.315082e+01
2.540000e-06	-1.053275e-06	5.066545e-10	-7.516985e+00	3.109577e+01
2.550000e-06	-1.204458e-06	3.117636e-10	-8.595941e+00	1.855870e+01
2.560000e-06	-1.355165e-06	1.101450e-10	-9.671503e+00	5.559926e+00
2.570000e-06	-1.505312e-06	-9.383963e-11	-1.074307e+01	-7.858985e+00
2.580000e-06	-1.654860e-06	-3.017733e-10	-1.181036e+01	-2.163491e+01
2.590000e-06	-1.803799e-06	-5.161614e-10	-1.287330e+01	-3.568465e+01
2.600000e-06	-1.952152e-06	-7.368570e-10	-1.393206e+01	-4.990822e+01
2.610000e-06	-2.099844e-06	-9.584803e-10	-1.498611e+01	-6.419374e+01
2.620000e-06	-2.246691e-06	-1.177828e-09	-1.603412e+01	-7.842336e+01
2.630000e-06	-2.392619e-06	-1.393129e-09	-1.707558e+01	-9.247982e+01
2.640000e-06	-2.537633e-06	-1.603098e-09	-1.811050e+01	-1.062530e+02
2.650000e-06	-2.681690e-06	-1.809014e-09	-1.913861e+01	-1.196455e+02
2.660000e-06	-2.824710e-06	-2.009168e-09	-2.015931e+01	-1.325775e+02
2.670000e-06	-2.966565e-06	-2.199521e-09	-2.117170e+01	-1.449896e+02
2.680000e-06	-3.107234e-06	-2.379803e-09	-2.217562e+01	-1.568440e+02
2.690000e-06	-3.246735e-06	-2.551525e-09	-2.317120e+01	-1.681235e+02
2.700000e-06	-3.384967e-06	-2.713954e-09	-2.415774e+01	-1.788297e+02
2.710000e-06	-3.521915e-06	-2.868988e-09	-2.513510e+01	-1.889788e+02
2.720000e-06	-3.657612e-06	-3.017018e-09	-2.610354e+01	-1.985978e+02
2.730000e-06	-3.791875e-06	-3.155109e-09	-2.706174e+01	-2.077196e+02
2.740000e-06	-3.924764e-06	-3.286409e-09	-2.801014e+01	-2.163788e+02
2.750000e-06	-4.056365e-06	-3.414222e-09	-2.894935e+01	-2.246079e+02
2.760000e-06	-4.186560e-06	-3.536969e-09	-2.987852e+01	-2.324355e+02
2.770000e-06	-4.315325e-06	-3.651559e-09	-3.079749e+01	-2.398847e+02
2.780000e-06	-4.442582e-06	-3.759905e-09	-3.170569e+01	-2.469728e+02
2.790000e-06	-4.568317e-06	-3.863746e-09	-3.260303e+01	-2.537130e+02
2.800000e-06	-4.692462e-06	-3.961558e-09	-3.348903e+01	-2.601158e+02
2.810000e-06	-4.814921e-06	-4.053032e-09	-3.436299e+01	-2.661908e+02
2.820000e-06	-4.935609e-06	-4.138970e-09	-3.522431e+01	-2.719491e+02
2.830000e-06	-5.054417e-06	-4.221775e-09	-3.607222e+01	-2.774047e+02
2.840000e-06	-5.171268e-06	-4.300501e-09	-3.690615e+01	-2.825752e+02
2.850000e-06	-5.285987e-06	-4.374940e-09	-3.772488e+01	-2.874820e+02
2.860000e-06	-5.398555e-06	-4.448892e-09	-3.852825e+01	-2.921494e+02
2.870000e-06	-5.509044e-06	-4.521129e-09	-3.931678e+01	-2.966033e+02
2.880000e-06	-5.617549e-06	-4.588747e-09	-4.009116e+01	-3.008691e+02
2.890000e-06	-5.724203e-06	-4.652313e-09	-4.085233e+01	-3.049698e+02
2.900000e-06	-5.828844e-06	-4.712976e-09	-4.159912e+01	-3.089240e+02
2.910000e-06	-5.931288e-06	-4.772073e-09	-4.233025e+01	-3.127448e+02
2.920000e-06	-6.031535e-06	-4.828474e-09	-4.304569e+01	-3.164386e+02
2.930000e-06	-6.129646e-06	-4.883556e-09	-4.374588e+01	-3.200060e+02
2.940000e-06	-6.225554e-06	-4.937226e-09	-4.443036e+01	-3.234419e+02
