# Temperatura_=_28.41
# Concentracion g/m^3_=_5000.0
# C_Vs_to_Am_M_A/Vsm_=_65563218390.804596
# pendiente_HvsI_1/m_=_3716.3
# ordenada_HvsI_A/m_=_1297.0
# frecuencia_Hz_=_302505.07026941766

Tiempo_(s)	Campo_(V.s)	Magnetizacion_(V.s)	Campo_(kA/m)	Magnetizacion_(A/m)
0.000000e+00	-7.946129e-06	-5.544051e-09	-5.686499e+01	-3.623238e+02
1.000000e-08	-7.941591e-06	-5.542542e-09	-5.683252e+01	-3.621419e+02
2.000000e-08	-7.934555e-06	-5.537769e-09	-5.678217e+01	-3.619017e+02
3.000000e-08	-7.924814e-06	-5.534013e-09	-5.671246e+01	-3.616093e+02
4.000000e-08	-7.912161e-06	-5.531058e-09	-5.662191e+01	-3.612708e+02
5.000000e-08	-7.896579e-06	-5.526001e-09	-5.651040e+01	-3.608921e+02
6.000000e-08	-7.878334e-06	-5.519689e-09	-5.637983e+01	-3.604778e+02
7.000000e-08	-7.857868e-06	-5.517565e-09	-5.623337e+01	-3.600306e+02
8.000000e-08	-7.834832e-06	-5.518409e-09	-5.606852e+01	-3.595516e+02
9.000000e-08	-7.808634e-06	-5.523924e-09	-5.588103e+01	-3.590399e+02
1.000000e-07	-7.779293e-06	-5.500471e-09	-5.567107e+01	-3.584930e+02
1.100000e-07	-7.747087e-06	-5.469668e-09	-5.544058e+01	-3.579074e+02
1.200000e-07	-7.712181e-06	-5.462775e-09	-5.519079e+01	-3.572789e+02
1.300000e-07	-7.674834e-06	-5.454047e-09	-5.492352e+01	-3.566036e+02
1.400000e-07	-7.635386e-06	-5.433773e-09	-5.464122e+01	-3.558780e+02
1.500000e-07	-7.593691e-06	-5.417526e-09	-5.434284e+01	-3.550994e+02
1.600000e-07	-7.549307e-06	-5.419631e-09	-5.402521e+01	-3.542658e+02
1.700000e-07	-7.502232e-06	-5.386248e-09	-5.368832e+01	-3.533762e+02
1.800000e-07	-7.452314e-06	-5.356540e-09	-5.333109e+01	-3.524300e+02
1.900000e-07	-7.399339e-06	-5.373065e-09	-5.295199e+01	-3.514265e+02
2.000000e-07	-7.343565e-06	-5.345186e-09	-5.255286e+01	-3.503650e+02
2.100000e-07	-7.285079e-06	-5.333347e-09	-5.213431e+01	-3.492444e+02
2.200000e-07	-7.223965e-06	-5.339091e-09	-5.169696e+01	-3.480628e+02
2.300000e-07	-7.160313e-06	-5.301103e-09	-5.124145e+01	-3.468180e+02
2.400000e-07	-7.093930e-06	-5.266655e-09	-5.076639e+01	-3.455075e+02
2.500000e-07	-7.024852e-06	-5.237516e-09	-5.027205e+01	-3.441290e+02
2.600000e-07	-6.953111e-06	-5.216917e-09	-4.975864e+01	-3.426806e+02
2.700000e-07	-6.878584e-06	-5.184783e-09	-4.922531e+01	-3.411614e+02
2.800000e-07	-6.801229e-06	-5.170579e-09	-4.867173e+01	-3.395717e+02
2.900000e-07	-6.721048e-06	-5.152089e-09	-4.809793e+01	-3.379126e+02
3.000000e-07	-6.638395e-06	-5.126349e-09	-4.750644e+01	-3.361865e+02
3.100000e-07	-6.553560e-06	-5.108950e-09	-4.689933e+01	-3.343964e+02
3.200000e-07	-6.466471e-06	-5.071920e-09	-4.627610e+01	-3.325450e+02
3.300000e-07	-6.377006e-06	-5.043469e-09	-4.563586e+01	-3.306347e+02
3.400000e-07	-6.285200e-06	-5.016495e-09	-4.497886e+01	-3.286665e+02
3.500000e-07	-6.191180e-06	-4.986241e-09	-4.430603e+01	-3.266397e+02
3.600000e-07	-6.094922e-06	-4.951552e-09	-4.361718e+01	-3.245519e+02
3.700000e-07	-5.996410e-06	-4.919429e-09	-4.291219e+01	-3.223986e+02
3.800000e-07	-5.895698e-06	-4.887200e-09	-4.219147e+01	-3.201740e+02
3.900000e-07	-5.792957e-06	-4.849229e-09	-4.145622e+01	-3.178713e+02
4.000000e-07	-5.688159e-06	-4.810930e-09	-4.070625e+01	-3.154837e+02
4.100000e-07	-5.581299e-06	-4.767925e-09	-3.994153e+01	-3.130053e+02
4.200000e-07	-5.472492e-06	-4.732380e-09	-3.916287e+01	-3.104314e+02
4.300000e-07	-5.361825e-06	-4.691225e-09	-3.837091e+01	-3.077596e+02
4.400000e-07	-5.249183e-06	-4.644090e-09	-3.756480e+01	-3.049893e+02
4.500000e-07	-5.134328e-06	-4.597713e-09	-3.674287e+01	-3.021221e+02
4.600000e-07	-5.017430e-06	-4.556595e-09	-3.590630e+01	-2.991612e+02
4.700000e-07	-4.898786e-06	-4.511689e-09	-3.505725e+01	-2.961100e+02
4.800000e-07	-4.778387e-06	-4.464101e-09	-3.419564e+01	-2.929718e+02
4.900000e-07	-4.656168e-06	-4.417184e-09	-3.332100e+01	-2.897481e+02
5.000000e-07	-4.532265e-06	-4.362867e-09	-3.243431e+01	-2.864385e+02
5.100000e-07	-4.406723e-06	-4.304558e-09	-3.153589e+01	-2.830395e+02
5.200000e-07	-4.279611e-06	-4.247393e-09	-3.062624e+01	-2.795449e+02
5.300000e-07	-4.150949e-06	-4.191646e-09	-2.970549e+01	-2.759458e+02
5.400000e-07	-4.020732e-06	-4.129881e-09	-2.877362e+01	-2.722317e+02
5.500000e-07	-3.888980e-06	-4.069330e-09	-2.783076e+01	-2.683913e+02
5.600000e-07	-3.755712e-06	-4.010304e-09	-2.687706e+01	-2.644141e+02
5.700000e-07	-3.621088e-06	-3.949679e-09	-2.591364e+01	-2.602915e+02
5.800000e-07	-3.485141e-06	-3.884624e-09	-2.494076e+01	-2.560176e+02
5.900000e-07	-3.347784e-06	-3.818123e-09	-2.395779e+01	-2.515901e+02
6.000000e-07	-3.209040e-06	-3.749112e-09	-2.296489e+01	-2.470100e+02
6.100000e-07	-3.068967e-06	-3.673321e-09	-2.196249e+01	-2.422811e+02
6.200000e-07	-2.927678e-06	-3.596488e-09	-2.095138e+01	-2.374091e+02
6.300000e-07	-2.785128e-06	-3.519902e-09	-1.993125e+01	-2.323999e+02
6.400000e-07	-2.641398e-06	-3.442851e-09	-1.890267e+01	-2.272579e+02
6.500000e-07	-2.496707e-06	-3.360661e-09	-1.786722e+01	-2.219849e+02
6.600000e-07	-2.351117e-06	-3.276816e-09	-1.682533e+01	-2.165782e+02
6.700000e-07	-2.204750e-06	-3.193170e-09	-1.577788e+01	-2.110305e+02
6.800000e-07	-2.057715e-06	-3.107473e-09	-1.472566e+01	-2.053297e+02
6.900000e-07	-1.910095e-06	-3.018491e-09	-1.366924e+01	-1.994595e+02
7.000000e-07	-1.761916e-06	-2.925291e-09	-1.260882e+01	-1.934009e+02
7.100000e-07	-1.613197e-06	-2.828950e-09	-1.154454e+01	-1.871338e+02
7.200000e-07	-1.463953e-06	-2.727851e-09	-1.047650e+01	-1.806392e+02
7.300000e-07	-1.314195e-06	-2.622525e-09	-9.404795e+00	-1.739009e+02
7.400000e-07	-1.164011e-06	-2.513758e-09	-8.330031e+00	-1.669066e+02
7.500000e-07	-1.013445e-06	-2.404929e-09	-7.252531e+00	-1.596489e+02
7.600000e-07	-8.625252e-07	-2.295485e-09	-6.172501e+00	-1.521251e+02
7.700000e-07	-7.113695e-07	-2.180312e-09	-5.090783e+00	-1.443359e+02
7.800000e-07	-5.600326e-07	-2.058771e-09	-4.007769e+00	-1.362838e+02
7.900000e-07	-4.085161e-07	-1.931658e-09	-2.923469e+00	-1.279704e+02
8.000000e-07	-2.568220e-07	-1.797537e-09	-1.837899e+00	-1.193945e+02
8.100000e-07	-1.049525e-07	-1.657980e-09	-7.510732e-01	-1.105490e+02
8.200000e-07	4.699580e-08	-1.514809e-09	3.363167e-01	-1.014200e+02
8.300000e-07	1.989412e-07	-1.368624e-09	1.423685e+00	-9.198574e+01
8.400000e-07	3.508647e-07	-1.220614e-09	2.510898e+00	-8.221758e+01
8.500000e-07	5.026437e-07	-1.065568e-09	3.597076e+00	-7.208184e+01
8.600000e-07	6.542359e-07	-9.030703e-10	4.681917e+00	-6.154319e+01
8.700000e-07	8.056873e-07	-7.354280e-10	5.765751e+00	-5.056888e+01
8.800000e-07	9.569100e-07	-5.615331e-10	6.847948e+00	-3.913364e+01
8.900000e-07	1.107825e-06	-3.846453e-10	7.927946e+00	-2.722445e+01
9.000000e-07	1.258383e-06	-2.001946e-10	9.005383e+00	-1.484496e+01
9.100000e-07	1.408552e-06	-6.835182e-12	1.008004e+01	-2.018573e+00
9.200000e-07	1.558253e-06	1.948785e-10	1.115135e+01	1.120978e+01
9.300000e-07	1.707364e-06	4.037887e-10	1.221844e+01	2.477385e+01
9.400000e-07	1.855897e-06	6.143931e-10	1.328138e+01	3.858815e+01
9.500000e-07	2.003773e-06	8.258754e-10	1.433963e+01	5.255172e+01
9.600000e-07	2.150935e-06	1.036482e-09	1.539276e+01	6.655345e+01
9.700000e-07	2.297421e-06	1.244529e-09	1.644106e+01	8.047819e+01
9.800000e-07	2.442982e-06	1.451110e-09	1.748274e+01	9.421332e+01
9.900000e-07	2.587541e-06	1.655272e-09	1.851725e+01	1.076549e+02
1.000000e-06	2.731132e-06	1.854883e-09	1.954483e+01	1.207128e+02
1.010000e-06	2.873637e-06	2.045914e-09	2.056465e+01	1.333148e+02
1.020000e-06	3.015004e-06	2.225142e-09	2.157631e+01	1.454086e+02
1.030000e-06	3.155156e-06	2.396936e-09	2.257929e+01	1.569623e+02
1.040000e-06	3.293989e-06	2.563387e-09	2.357282e+01	1.679629e+02
1.050000e-06	3.431521e-06	2.722136e-09	2.455704e+01	1.784139e+02
1.060000e-06	3.567727e-06	2.874006e-09	2.553177e+01	1.883311e+02
1.070000e-06	3.702565e-06	3.018492e-09	2.649672e+01	1.977389e+02
1.080000e-06	3.836117e-06	3.155660e-09	2.745246e+01	2.066662e+02
1.090000e-06	3.968328e-06	3.285743e-09	2.839860e+01	2.151422e+02
1.100000e-06	4.099141e-06	3.406248e-09	2.933474e+01	2.231947e+02
1.110000e-06	4.228517e-06	3.520561e-09	3.026059e+01	2.308475e+02
1.120000e-06	4.356305e-06	3.631870e-09	3.117509e+01	2.381206e+02
1.130000e-06	4.482589e-06	3.739540e-09	3.207881e+01	2.450302e+02
1.140000e-06	4.607412e-06	3.840704e-09	3.297209e+01	2.515903e+02
1.150000e-06	4.730617e-06	3.934623e-09	3.385378e+01	2.578140e+02
1.160000e-06	4.852154e-06	4.023025e-09	3.472354e+01	2.637152e+02
1.170000e-06	4.971954e-06	4.105898e-09	3.558086e+01	2.693100e+02
1.180000e-06	5.089994e-06	4.184739e-09	3.642560e+01	2.746173e+02
1.190000e-06	5.206116e-06	4.261670e-09	3.725660e+01	2.796590e+02
1.200000e-06	5.320139e-06	4.335314e-09	3.807258e+01	2.844592e+02
1.210000e-06	5.432116e-06	4.405088e-09	3.887392e+01	2.890428e+02
1.220000e-06	5.542157e-06	4.471693e-09	3.966142e+01	2.934342e+02
1.230000e-06	5.650295e-06	4.536345e-09	4.043528e+01	2.976549e+02
1.240000e-06	5.756427e-06	4.599146e-09	4.119480e+01	3.017226e+02
1.250000e-06	5.860421e-06	4.659523e-09	4.193901e+01	3.056492e+02
1.260000e-06	5.962243e-06	4.716380e-09	4.266768e+01	3.094408e+02
1.270000e-06	6.061849e-06	4.768693e-09	4.338050e+01	3.130976e+02
1.280000e-06	6.159092e-06	4.818973e-09	4.407640e+01	3.166150e+02
1.290000e-06	6.254022e-06	4.868788e-09	4.475574e+01	3.199848e+02
1.300000e-06	6.346774e-06	4.916605e-09	4.541950e+01	3.231974e+02
1.310000e-06	6.437296e-06	4.961570e-09	4.606731e+01	3.262435e+02
1.320000e-06	6.525500e-06	5.003106e-09	4.669852e+01	3.291159e+02
1.330000e-06	6.611449e-06	5.041570e-09	4.731360e+01	3.318113e+02
1.340000e-06	6.695147e-06	5.080251e-09	4.791258e+01	3.343306e+02
1.350000e-06	6.776350e-06	5.116812e-09	4.849369e+01	3.366796e+02
1.360000e-06	6.854996e-06	5.149311e-09	4.905651e+01	3.388683e+02
1.370000e-06	6.931133e-06	5.179797e-09	4.960137e+01	3.409095e+02
1.380000e-06	7.004632e-06	5.207297e-09	5.012734e+01	3.428180e+02
1.390000e-06	7.075588e-06	5.232982e-09	5.063513e+01	3.446086e+02
1.400000e-06	7.144070e-06	5.259596e-09	5.112521e+01	3.462950e+02
1.410000e-06	7.209918e-06	5.285918e-09	5.159643e+01	3.478880e+02
1.420000e-06	7.273194e-06	5.308775e-09	5.204926e+01	3.493954e+02
1.430000e-06	7.334053e-06	5.329159e-09	5.248478e+01	3.508214e+02
1.440000e-06	7.392391e-06	5.348877e-09	5.290227e+01	3.521674e+02
1.450000e-06	7.448120e-06	5.366428e-09	5.330109e+01	3.534320e+02
1.460000e-06	7.501074e-06	5.382801e-09	5.368004e+01	3.546128e+02
1.470000e-06	7.550963e-06	5.398755e-09	5.403706e+01	3.557072e+02
1.480000e-06	7.597929e-06	5.412465e-09	5.437317e+01	3.567134e+02
1.490000e-06	7.642218e-06	5.424319e-09	5.469011e+01	3.576314e+02
1.500000e-06	7.683766e-06	5.436955e-09	5.498744e+01	3.584631e+02
1.510000e-06	7.722555e-06	5.451113e-09	5.526503e+01	3.592127e+02
1.520000e-06	7.758675e-06	5.463740e-09	5.552351e+01	3.598860e+02
1.530000e-06	7.792004e-06	5.474233e-09	5.576202e+01	3.604897e+02
1.540000e-06	7.822534e-06	5.483702e-09	5.598051e+01	3.610306e+02
1.550000e-06	7.850375e-06	5.491578e-09	5.617975e+01	3.615148e+02
1.560000e-06	7.875384e-06	5.497961e-09	5.635872e+01	3.619466e+02
1.570000e-06	7.897531e-06	5.503536e-09	5.651721e+01	3.623284e+02
1.580000e-06	7.916994e-06	5.508108e-09	5.665649e+01	3.626602e+02
1.590000e-06	7.933568e-06	5.511865e-09	5.677510e+01	3.629400e+02
1.600000e-06	7.947051e-06	5.515896e-09	5.687159e+01	3.631644e+02
1.610000e-06	7.957380e-06	5.519953e-09	5.694551e+01	3.633293e+02
1.620000e-06	7.964652e-06	5.523202e-09	5.699755e+01	3.634307e+02
1.630000e-06	7.969143e-06	5.525598e-09	5.702969e+01	3.634656e+02
1.640000e-06	7.970793e-06	5.526170e-09	5.704150e+01	3.634326e+02
1.650000e-06	7.969686e-06	5.525944e-09	5.703358e+01	3.633324e+02
1.660000e-06	7.965989e-06	5.521795e-09	5.700712e+01	3.631679e+02
1.670000e-06	7.959592e-06	5.517570e-09	5.696134e+01	3.629435e+02
1.680000e-06	7.950560e-06	5.516927e-09	5.689671e+01	3.626650e+02
1.690000e-06	7.938860e-06	5.514408e-09	5.681298e+01	3.623387e+02
1.700000e-06	7.924316e-06	5.509926e-09	5.670889e+01	3.619706e+02
1.710000e-06	7.907211e-06	5.502651e-09	5.658649e+01	3.615657e+02
1.720000e-06	7.887881e-06	5.485404e-09	5.644815e+01	3.611274e+02
1.730000e-06	7.866012e-06	5.464142e-09	5.629165e+01	3.606572e+02
1.740000e-06	7.840906e-06	5.442491e-09	5.611198e+01	3.601547e+02
1.750000e-06	7.812192e-06	5.458271e-09	5.590650e+01	3.596178e+02
1.760000e-06	7.780218e-06	5.463062e-09	5.567768e+01	3.590433e+02
1.770000e-06	7.745677e-06	5.444744e-09	5.543049e+01	3.584271e+02
1.780000e-06	7.708825e-06	5.440376e-09	5.516677e+01	3.577652e+02
1.790000e-06	7.669787e-06	5.451198e-09	5.488741e+01	3.570540e+02
1.800000e-06	7.628636e-06	5.413765e-09	5.459292e+01	3.562904e+02
1.810000e-06	7.584989e-06	5.386912e-09	5.428056e+01	3.554723e+02
1.820000e-06	7.538754e-06	5.421442e-09	5.394969e+01	3.545985e+02
1.830000e-06	7.489873e-06	5.384405e-09	5.359988e+01	3.536681e+02
1.840000e-06	7.437952e-06	5.381563e-09	5.322832e+01	3.526807e+02
1.850000e-06	7.383097e-06	5.357117e-09	5.283576e+01	3.516355e+02
1.860000e-06	7.325501e-06	5.317510e-09	5.242359e+01	3.505316e+02
1.870000e-06	7.265281e-06	5.317903e-09	5.199263e+01	3.493673e+02
1.880000e-06	7.202374e-06	5.297216e-09	5.154245e+01	3.481405e+02
1.890000e-06	7.136644e-06	5.307050e-09	5.107206e+01	3.468487e+02
1.900000e-06	7.068192e-06	5.277514e-09	5.058220e+01	3.454895e+02
1.910000e-06	6.997015e-06	5.256869e-09	5.007283e+01	3.440608e+02
1.920000e-06	6.923152e-06	5.227287e-09	4.954425e+01	3.425616e+02
1.930000e-06	6.846567e-06	5.190917e-09	4.899618e+01	3.409915e+02
1.940000e-06	6.767221e-06	5.183015e-09	4.842836e+01	3.393517e+02
1.950000e-06	6.685355e-06	5.139622e-09	4.784250e+01	3.376442e+02
1.960000e-06	6.601083e-06	5.125587e-09	4.723942e+01	3.358717e+02
1.970000e-06	6.514337e-06	5.095025e-09	4.661864e+01	3.340372e+02
1.980000e-06	6.425141e-06	5.062581e-09	4.598033e+01	3.321432e+02
1.990000e-06	6.333792e-06	5.040479e-09	4.532660e+01	3.301912e+02
2.000000e-06	6.240256e-06	5.008503e-09	4.465723e+01	3.281810e+02
2.010000e-06	6.144341e-06	4.978258e-09	4.397083e+01	3.261106e+02
2.020000e-06	6.046258e-06	4.933455e-09	4.326892e+01	3.239762e+02
2.030000e-06	5.946015e-06	4.906417e-09	4.255155e+01	3.217723e+02
2.040000e-06	5.843602e-06	4.871983e-09	4.181865e+01	3.194923e+02
2.050000e-06	5.739161e-06	4.841545e-09	4.107123e+01	3.171293e+02
2.060000e-06	5.632830e-06	4.800876e-09	4.031030e+01	3.146770e+02
2.070000e-06	5.524609e-06	4.762084e-09	3.953584e+01	3.121304e+02
2.080000e-06	5.414413e-06	4.728301e-09	3.874724e+01	3.094863e+02
2.090000e-06	5.302204e-06	4.688482e-09	3.794424e+01	3.067437e+02
2.100000e-06	5.188055e-06	4.647374e-09	3.712735e+01	3.039037e+02
2.110000e-06	5.071839e-06	4.600475e-09	3.629567e+01	3.009689e+02
2.120000e-06	4.953549e-06	4.551211e-09	3.544915e+01	2.979428e+02
2.130000e-06	4.833393e-06	4.495994e-09	3.458928e+01	2.948288e+02
2.140000e-06	4.711468e-06	4.453138e-09	3.371674e+01	2.916291e+02
2.150000e-06	4.587886e-06	4.413426e-09	3.283235e+01	2.883439e+02
2.160000e-06	4.462561e-06	4.369682e-09	3.193549e+01	2.849706e+02
2.170000e-06	4.335565e-06	4.314587e-09	3.102667e+01	2.815038e+02
2.180000e-06	4.207061e-06	4.258764e-09	3.010705e+01	2.779352e+02
2.190000e-06	4.077048e-06	4.202676e-09	2.917663e+01	2.742548e+02
2.200000e-06	3.945589e-06	4.143588e-09	2.823587e+01	2.704512e+02
2.210000e-06	3.812663e-06	4.082070e-09	2.728461e+01	2.665138e+02
2.220000e-06	3.678195e-06	4.020407e-09	2.632231e+01	2.624331e+02
2.230000e-06	3.542367e-06	3.955874e-09	2.535029e+01	2.582025e+02
2.240000e-06	3.405238e-06	3.886305e-09	2.436895e+01	2.538186e+02
2.250000e-06	3.266842e-06	3.819188e-09	2.337855e+01	2.492815e+02
2.260000e-06	3.127233e-06	3.752121e-09	2.237946e+01	2.445942e+02
2.270000e-06	2.986274e-06	3.680843e-09	2.137071e+01	2.397622e+02
2.280000e-06	2.844044e-06	3.604329e-09	2.035287e+01	2.347912e+02
2.290000e-06	2.700744e-06	3.527774e-09	1.932737e+01	2.296865e+02
2.300000e-06	2.556552e-06	3.448209e-09	1.829549e+01	2.244507e+02
2.310000e-06	2.411488e-06	3.366152e-09	1.725736e+01	2.190823e+02
2.320000e-06	2.265601e-06	3.280756e-09	1.621335e+01	2.135756e+02
2.330000e-06	2.119005e-06	3.190859e-09	1.516426e+01	2.079197e+02
2.340000e-06	1.971725e-06	3.098056e-09	1.411028e+01	2.020994e+02
2.350000e-06	1.823834e-06	3.007464e-09	1.305193e+01	1.960963e+02
2.360000e-06	1.675350e-06	2.918897e-09	1.198933e+01	1.898905e+02
2.370000e-06	1.526276e-06	2.824023e-09	1.092251e+01	1.834624e+02
2.380000e-06	1.376627e-06	2.720689e-09	9.851576e+00	1.767948e+02
2.390000e-06	1.226437e-06	2.611774e-09	8.776768e+00	1.698742e+02
2.400000e-06	1.075833e-06	2.500565e-09	7.698999e+00	1.626919e+02
2.410000e-06	9.249145e-07	2.387590e-09	6.618978e+00	1.552439e+02
2.420000e-06	7.736869e-07	2.271014e-09	5.536747e+00	1.475299e+02
2.430000e-06	6.222350e-07	2.150570e-09	4.452909e+00	1.395523e+02
2.440000e-06	4.706451e-07	2.024982e-09	3.368084e+00	1.313132e+02
2.450000e-06	3.189032e-07	1.894986e-09	2.282171e+00	1.228124e+02
2.460000e-06	1.670064e-07	1.762220e-09	1.195150e+00	1.140447e+02
2.470000e-06	1.497395e-08	1.625669e-09	1.071583e-01	1.049982e+02
2.480000e-06	-1.370816e-07	1.484182e-09	-9.809990e-01	9.565347e+01
2.490000e-06	-2.890958e-07	1.337019e-09	-2.068860e+00	8.598364e+01
2.500000e-06	-4.410171e-07	1.183790e-09	-3.156057e+00	7.595619e+01
2.510000e-06	-5.927608e-07	1.024257e-09	-4.241983e+00	6.553585e+01
2.520000e-06	-7.443881e-07	8.594726e-10	-5.327075e+00	5.468867e+01
2.530000e-06	-8.958063e-07	6.881962e-10	-6.410671e+00	4.338673e+01
2.540000e-06	-1.046899e-06	5.073944e-10	-7.491935e+00	3.161304e+01
2.550000e-06	-1.197619e-06	3.183560e-10	-8.570538e+00	1.936610e+01
2.560000e-06	-1.347923e-06	1.252677e-10	-9.646159e+00	6.663419e+00
2.570000e-06	-1.497758e-06	-7.221351e-11	-1.071842e+01	-6.456278e+00
2.580000e-06	-1.647030e-06	-2.771117e-10	-1.178667e+01	-1.993272e+01
2.590000e-06	-1.795658e-06	-4.889770e-10	-1.285029e+01	-3.368558e+01
2.600000e-06	-1.943550e-06	-7.052207e-10	-1.390866e+01	-4.761785e+01
2.610000e-06	-2.090756e-06	-9.227369e-10	-1.496211e+01	-6.162072e+01
2.620000e-06	-2.237223e-06	-1.139377e-09	-1.601027e+01	-7.557953e+01
2.630000e-06	-2.382815e-06	-1.353431e-09	-1.705217e+01	-8.938027e+01
2.640000e-06	-2.527547e-06	-1.561803e-09	-1.808792e+01	-1.029159e+02
2.650000e-06	-2.671291e-06	-1.764531e-09	-1.911660e+01	-1.160920e+02
2.660000e-06	-2.813978e-06	-1.960554e-09	-2.013771e+01	-1.288308e+02
2.670000e-06	-2.955548e-06	-2.146649e-09	-2.115083e+01	-1.410743e+02
2.680000e-06	-3.095827e-06	-2.324350e-09	-2.215471e+01	-1.527848e+02
2.690000e-06	-3.234865e-06	-2.493001e-09	-2.314971e+01	-1.639441e+02
2.700000e-06	-3.372699e-06	-2.654107e-09	-2.413609e+01	-1.745513e+02
2.710000e-06	-3.509281e-06	-2.809465e-09	-2.511352e+01	-1.846192e+02
2.720000e-06	-3.644586e-06	-2.957156e-09	-2.608180e+01	-1.941701e+02
2.730000e-06	-3.778604e-06	-3.096383e-09	-2.704087e+01	-2.032319e+02
2.740000e-06	-3.911211e-06	-3.227303e-09	-2.798986e+01	-2.118343e+02
2.750000e-06	-4.042416e-06	-3.353762e-09	-2.892880e+01	-2.200055e+02
2.760000e-06	-4.172308e-06	-3.473030e-09	-2.985834e+01	-2.277707e+02
2.770000e-06	-4.300742e-06	-3.585118e-09	-3.077746e+01	-2.351508e+02
2.780000e-06	-4.427660e-06	-3.693310e-09	-3.168572e+01	-2.421631e+02
2.790000e-06	-4.553068e-06	-3.796857e-09	-3.258319e+01	-2.488221e+02
2.800000e-06	-4.676899e-06	-3.894334e-09	-3.346936e+01	-2.551409e+02
2.810000e-06	-4.799107e-06	-3.984117e-09	-3.434392e+01	-2.611330e+02
2.820000e-06	-4.919607e-06	-4.068785e-09	-3.520626e+01	-2.668139e+02
2.830000e-06	-5.038203e-06	-4.150297e-09	-3.605496e+01	-2.722016e+02
2.840000e-06	-5.154730e-06	-4.228432e-09	-3.688887e+01	-2.773171e+02
2.850000e-06	-5.269117e-06	-4.302648e-09	-3.770746e+01	-2.821841e+02
2.860000e-06	-5.381359e-06	-4.375815e-09	-3.851069e+01	-2.868274e+02
2.870000e-06	-5.491540e-06	-4.447033e-09	-3.929918e+01	-2.912717e+02
2.880000e-06	-5.599852e-06	-4.512946e-09	-4.007430e+01	-2.955396e+02
2.890000e-06	-5.706313e-06	-4.575167e-09	-4.083617e+01	-2.996498e+02
2.900000e-06	-5.810682e-06	-4.636293e-09	-4.158307e+01	-3.036162e+02
2.910000e-06	-5.912834e-06	-4.696717e-09	-4.231410e+01	-3.074464e+02
2.920000e-06	-6.012804e-06	-4.754734e-09	-4.302951e+01	-3.111424e+02
2.930000e-06	-6.110665e-06	-4.811610e-09	-4.372983e+01	-3.147006e+02
2.940000e-06	-6.206360e-06	-4.866583e-09	-4.441466e+01	-3.181139e+02
