# Temperatura_=_29.19
# Concentracion g/m^3_=_5000.0
# C_Vs_to_Am_M_A/Vsm_=_65563218390.804596
# pendiente_HvsI_1/m_=_3716.3
# ordenada_HvsI_A/m_=_1297.0
# frecuencia_Hz_=_302505.6733912276

Tiempo_(s)	Campo_(V.s)	Magnetizacion_(V.s)	Campo_(kA/m)	Magnetizacion_(A/m)
0.000000e+00	-7.993936e-06	-5.642998e-09	-5.686532e+01	-3.698386e+02
1.000000e-08	-7.989627e-06	-5.643047e-09	-5.683466e+01	-3.696300e+02
2.000000e-08	-7.982753e-06	-5.637679e-09	-5.678577e+01	-3.693638e+02
3.000000e-08	-7.973154e-06	-5.636688e-09	-5.671749e+01	-3.690481e+02
4.000000e-08	-7.960700e-06	-5.635942e-09	-5.662889e+01	-3.686908e+02
5.000000e-08	-7.945276e-06	-5.630157e-09	-5.651918e+01	-3.682982e+02
6.000000e-08	-7.927169e-06	-5.621600e-09	-5.639037e+01	-3.678745e+02
7.000000e-08	-7.906775e-06	-5.616914e-09	-5.624530e+01	-3.674213e+02
8.000000e-08	-7.883800e-06	-5.630071e-09	-5.608186e+01	-3.669375e+02
9.000000e-08	-7.857697e-06	-5.656027e-09	-5.589618e+01	-3.664196e+02
1.000000e-07	-7.828370e-06	-5.615926e-09	-5.568756e+01	-3.658626e+02
1.100000e-07	-7.796142e-06	-5.569079e-09	-5.545830e+01	-3.652608e+02
1.200000e-07	-7.761191e-06	-5.562555e-09	-5.520968e+01	-3.646086e+02
1.300000e-07	-7.723712e-06	-5.555763e-09	-5.494306e+01	-3.639016e+02
1.400000e-07	-7.684070e-06	-5.526295e-09	-5.466107e+01	-3.631368e+02
1.500000e-07	-7.642174e-06	-5.499795e-09	-5.436304e+01	-3.623131e+02
1.600000e-07	-7.597650e-06	-5.552818e-09	-5.404632e+01	-3.614311e+02
1.700000e-07	-7.550414e-06	-5.483990e-09	-5.371030e+01	-3.604926e+02
1.800000e-07	-7.500309e-06	-5.449414e-09	-5.335388e+01	-3.595000e+02
1.900000e-07	-7.447176e-06	-5.496444e-09	-5.297591e+01	-3.584554e+02
2.000000e-07	-7.391225e-06	-5.433221e-09	-5.257790e+01	-3.573600e+02
2.100000e-07	-7.332603e-06	-5.436938e-09	-5.216089e+01	-3.562135e+02
2.200000e-07	-7.271351e-06	-5.424530e-09	-5.172517e+01	-3.550136e+02
2.300000e-07	-7.207425e-06	-5.383630e-09	-5.127043e+01	-3.537565e+02
2.400000e-07	-7.140710e-06	-5.356655e-09	-5.079584e+01	-3.524371e+02
2.500000e-07	-7.071318e-06	-5.336122e-09	-5.030222e+01	-3.510496e+02
2.600000e-07	-6.999234e-06	-5.331613e-09	-4.978945e+01	-3.495884e+02
2.700000e-07	-6.924356e-06	-5.293916e-09	-4.925680e+01	-3.480490e+02
2.800000e-07	-6.846676e-06	-5.272128e-09	-4.870422e+01	-3.464286e+02
2.900000e-07	-6.766233e-06	-5.234417e-09	-4.813199e+01	-3.447266e+02
3.000000e-07	-6.683313e-06	-5.216678e-09	-4.754213e+01	-3.429446e+02
3.100000e-07	-6.598124e-06	-5.205392e-09	-4.693613e+01	-3.410859e+02
3.200000e-07	-6.510540e-06	-5.161271e-09	-4.631310e+01	-3.391553e+02
3.300000e-07	-6.420564e-06	-5.142825e-09	-4.567305e+01	-3.371577e+02
3.400000e-07	-6.328325e-06	-5.112614e-09	-4.501690e+01	-3.350975e+02
3.500000e-07	-6.233884e-06	-5.074239e-09	-4.434509e+01	-3.329778e+02
3.600000e-07	-6.137139e-06	-5.036110e-09	-4.365689e+01	-3.307991e+02
3.700000e-07	-6.038041e-06	-5.012398e-09	-4.295195e+01	-3.285598e+02
3.800000e-07	-5.936849e-06	-4.984368e-09	-4.223211e+01	-3.262556e+02
3.900000e-07	-5.833582e-06	-4.939846e-09	-4.149752e+01	-3.238803e+02
4.000000e-07	-5.728156e-06	-4.901618e-09	-4.074757e+01	-3.214265e+02
4.100000e-07	-5.620749e-06	-4.859056e-09	-3.998352e+01	-3.188866e+02
4.200000e-07	-5.511461e-06	-4.820812e-09	-3.920609e+01	-3.162538e+02
4.300000e-07	-5.400231e-06	-4.768586e-09	-3.841485e+01	-3.135227e+02
4.400000e-07	-5.286897e-06	-4.723868e-09	-3.760865e+01	-3.106904e+02
4.500000e-07	-5.171446e-06	-4.688379e-09	-3.678737e+01	-3.077561e+02
4.600000e-07	-5.054088e-06	-4.648691e-09	-3.595254e+01	-3.047211e+02
4.700000e-07	-4.934889e-06	-4.599983e-09	-3.510461e+01	-3.015882e+02
4.800000e-07	-4.813813e-06	-4.550555e-09	-3.424333e+01	-2.983605e+02
4.900000e-07	-4.690972e-06	-4.499341e-09	-3.336949e+01	-2.950408e+02
5.000000e-07	-4.566430e-06	-4.435862e-09	-3.248356e+01	-2.916298e+02
5.100000e-07	-4.440245e-06	-4.376890e-09	-3.158594e+01	-2.881261e+02
5.200000e-07	-4.312475e-06	-4.326080e-09	-3.067704e+01	-2.845255e+02
5.300000e-07	-4.183109e-06	-4.275819e-09	-2.975679e+01	-2.808210e+02
5.400000e-07	-4.052186e-06	-4.214472e-09	-2.882545e+01	-2.770033e+02
5.500000e-07	-3.919703e-06	-4.151422e-09	-2.788303e+01	-2.730622e+02
5.600000e-07	-3.785785e-06	-4.089626e-09	-2.693040e+01	-2.689872e+02
5.700000e-07	-3.650550e-06	-4.024742e-09	-2.596840e+01	-2.647694e+02
5.800000e-07	-3.513840e-06	-3.958453e-09	-2.499590e+01	-2.604020e+02
5.900000e-07	-3.375666e-06	-3.891979e-09	-2.401299e+01	-2.558812e+02
6.000000e-07	-3.236137e-06	-3.821363e-09	-2.302045e+01	-2.512066e+02
6.100000e-07	-3.095208e-06	-3.741330e-09	-2.201794e+01	-2.463807e+02
6.200000e-07	-2.952886e-06	-3.663297e-09	-2.100552e+01	-2.414078e+02
6.300000e-07	-2.809344e-06	-3.587894e-09	-1.998443e+01	-2.362928e+02
6.400000e-07	-2.664830e-06	-3.509785e-09	-1.895642e+01	-2.310397e+02
6.500000e-07	-2.519432e-06	-3.428420e-09	-1.792213e+01	-2.256498e+02
6.600000e-07	-2.373193e-06	-3.344549e-09	-1.688185e+01	-2.201207e+02
6.700000e-07	-2.226202e-06	-3.259078e-09	-1.583621e+01	-2.144453e+02
6.800000e-07	-2.078530e-06	-3.170565e-09	-1.478574e+01	-2.086119e+02
6.900000e-07	-1.930190e-06	-3.079323e-09	-1.373052e+01	-2.026046e+02
7.000000e-07	-1.781246e-06	-2.982361e-09	-1.267099e+01	-1.964049e+02
7.100000e-07	-1.631720e-06	-2.880046e-09	-1.160733e+01	-1.899929e+02
7.200000e-07	-1.481629e-06	-2.776743e-09	-1.053965e+01	-1.833498e+02
7.300000e-07	-1.331085e-06	-2.673195e-09	-9.468748e+00	-1.764595e+02
7.400000e-07	-1.180146e-06	-2.563948e-09	-8.395037e+00	-1.693099e+02
7.500000e-07	-1.028808e-06	-2.452941e-09	-7.318484e+00	-1.618935e+02
7.600000e-07	-8.770296e-07	-2.342114e-09	-6.238800e+00	-1.542077e+02
7.700000e-07	-7.248905e-07	-2.223985e-09	-5.156550e+00	-1.462533e+02
7.800000e-07	-5.724543e-07	-2.097140e-09	-4.072186e+00	-1.380325e+02
7.900000e-07	-4.197402e-07	-1.965686e-09	-2.985846e+00	-1.295469e+02
8.000000e-07	-2.668527e-07	-1.829465e-09	-1.898272e+00	-1.207946e+02
8.100000e-07	-1.138304e-07	-1.684972e-09	-8.097388e-01	-1.117679e+02
8.200000e-07	3.928315e-08	-1.535945e-09	2.794429e-01	-1.024517e+02
8.300000e-07	1.923856e-07	-1.386373e-09	1.368546e+00	-9.282293e+01
8.400000e-07	3.454713e-07	-1.236797e-09	2.457530e+00	-8.285108e+01
8.500000e-07	4.984903e-07	-1.081363e-09	3.546039e+00	-7.250064e+01
8.600000e-07	6.513455e-07	-9.179955e-10	4.633384e+00	-6.173446e+01
8.700000e-07	8.040026e-07	-7.484504e-10	5.719318e+00	-5.051827e+01
8.800000e-07	9.563819e-07	-5.702565e-10	6.803277e+00	-3.882580e+01
8.900000e-07	1.108394e-06	-3.857401e-10	7.884625e+00	-2.664387e+01
9.000000e-07	1.259955e-06	-1.940228e-10	8.962763e+00	-1.397692e+01
9.100000e-07	1.411010e-06	4.134221e-12	1.003730e+01	-8.502367e-01
9.200000e-07	1.561515e-06	2.103197e-10	1.110792e+01	1.268828e+01
9.300000e-07	1.711449e-06	4.223001e-10	1.217449e+01	2.656845e+01
9.400000e-07	1.860810e-06	6.358422e-10	1.323698e+01	4.070011e+01
9.500000e-07	2.009495e-06	8.522935e-10	1.429466e+01	5.497727e+01
9.600000e-07	2.157476e-06	1.069353e-09	1.534733e+01	6.928372e+01
9.700000e-07	2.304679e-06	1.284436e-09	1.639447e+01	8.349970e+01
9.800000e-07	2.450976e-06	1.495464e-09	1.743516e+01	9.750870e+01
9.900000e-07	2.596401e-06	1.703376e-09	1.846965e+01	1.112040e+02
1.000000e-06	2.740895e-06	1.906758e-09	1.949752e+01	1.244942e+02
1.010000e-06	2.884288e-06	2.101780e-09	2.051755e+01	1.373068e+02
1.020000e-06	3.026548e-06	2.285843e-09	2.152952e+01	1.495910e+02
1.030000e-06	3.167626e-06	2.460453e-09	2.253309e+01	1.613170e+02
1.040000e-06	3.307402e-06	2.628131e-09	2.352740e+01	1.724751e+02
1.050000e-06	3.445871e-06	2.787984e-09	2.451240e+01	1.830722e+02
1.060000e-06	3.583018e-06	2.939820e-09	2.548800e+01	1.931277e+02
1.070000e-06	3.718792e-06	3.085001e-09	2.645384e+01	2.026693e+02
1.080000e-06	3.853200e-06	3.224158e-09	2.740996e+01	2.117282e+02
1.090000e-06	3.986266e-06	3.357494e-09	2.835653e+01	2.203356e+02
1.100000e-06	4.117876e-06	3.483320e-09	2.929275e+01	2.285196e+02
1.110000e-06	4.248027e-06	3.603091e-09	3.021858e+01	2.363041e+02
1.120000e-06	4.376722e-06	3.718449e-09	3.113406e+01	2.437079e+02
1.130000e-06	4.503836e-06	3.827023e-09	3.203829e+01	2.507459e+02
1.140000e-06	4.629417e-06	3.926896e-09	3.293162e+01	2.574301e+02
1.150000e-06	4.753436e-06	4.020117e-09	3.381384e+01	2.637718e+02
1.160000e-06	4.875788e-06	4.109717e-09	3.468419e+01	2.697834e+02
1.170000e-06	4.996447e-06	4.194971e-09	3.554251e+01	2.754796e+02
1.180000e-06	5.115259e-06	4.275561e-09	3.638768e+01	2.808789e+02
1.190000e-06	5.232107e-06	4.353901e-09	3.721889e+01	2.860029e+02
1.200000e-06	5.346939e-06	4.429874e-09	3.803575e+01	2.908761e+02
1.210000e-06	5.459685e-06	4.502561e-09	3.883778e+01	2.955243e+02
1.220000e-06	5.570412e-06	4.570284e-09	3.962544e+01	2.999729e+02
1.230000e-06	5.679216e-06	4.634141e-09	4.039943e+01	3.042450e+02
1.240000e-06	5.786056e-06	4.695255e-09	4.115944e+01	3.083593e+02
1.250000e-06	5.890767e-06	4.752984e-09	4.190430e+01	3.123292e+02
1.260000e-06	5.993298e-06	4.808880e-09	4.263367e+01	3.161621e+02
1.270000e-06	6.093649e-06	4.862815e-09	4.334752e+01	3.198595e+02
1.280000e-06	6.191633e-06	4.916901e-09	4.404453e+01	3.234176e+02
1.290000e-06	6.287228e-06	4.968600e-09	4.472456e+01	3.268295e+02
1.300000e-06	6.380637e-06	5.017804e-09	4.538903e+01	3.300865e+02
1.310000e-06	6.471841e-06	5.064210e-09	4.603781e+01	3.331801e+02
1.320000e-06	6.560642e-06	5.106192e-09	4.666950e+01	3.361039e+02
1.330000e-06	6.647082e-06	5.147751e-09	4.728440e+01	3.388550e+02
1.340000e-06	6.731298e-06	5.187099e-09	4.788347e+01	3.414346e+02
1.350000e-06	6.813190e-06	5.222975e-09	4.846601e+01	3.438482e+02
1.360000e-06	6.892576e-06	5.255375e-09	4.903073e+01	3.461049e+02
1.370000e-06	6.969370e-06	5.287123e-09	4.957701e+01	3.482163e+02
1.380000e-06	7.043553e-06	5.319262e-09	5.010471e+01	3.501952e+02
1.390000e-06	7.115136e-06	5.349075e-09	5.061392e+01	3.520542e+02
1.400000e-06	7.184181e-06	5.376109e-09	5.110508e+01	3.538042e+02
1.410000e-06	7.250626e-06	5.400179e-09	5.157774e+01	3.554535e+02
1.420000e-06	7.314434e-06	5.424706e-09	5.203165e+01	3.570075e+02
1.430000e-06	7.375743e-06	5.448487e-09	5.246777e+01	3.584686e+02
1.440000e-06	7.434555e-06	5.470220e-09	5.288613e+01	3.598368e+02
1.450000e-06	7.490735e-06	5.488381e-09	5.328577e+01	3.611108e+02
1.460000e-06	7.544120e-06	5.503967e-09	5.366553e+01	3.622890e+02
1.470000e-06	7.594476e-06	5.518662e-09	5.402373e+01	3.633706e+02
1.480000e-06	7.641862e-06	5.532023e-09	5.436082e+01	3.643565e+02
1.490000e-06	7.686513e-06	5.545312e-09	5.467845e+01	3.652498e+02
1.500000e-06	7.728449e-06	5.557998e-09	5.497676e+01	3.660561e+02
1.510000e-06	7.767576e-06	5.570561e-09	5.525510e+01	3.667827e+02
1.520000e-06	7.804006e-06	5.582151e-09	5.551424e+01	3.674382e+02
1.530000e-06	7.837741e-06	5.593392e-09	5.575421e+01	3.680310e+02
1.540000e-06	7.868658e-06	5.603703e-09	5.597415e+01	3.685689e+02
1.550000e-06	7.896812e-06	5.612063e-09	5.617442e+01	3.690575e+02
1.560000e-06	7.922039e-06	5.619130e-09	5.635388e+01	3.694998e+02
1.570000e-06	7.944334e-06	5.625552e-09	5.651247e+01	3.698958e+02
1.580000e-06	7.963912e-06	5.631099e-09	5.665174e+01	3.702429e+02
1.590000e-06	7.980596e-06	5.634380e-09	5.677042e+01	3.705362e+02
1.600000e-06	7.994238e-06	5.636988e-09	5.686747e+01	3.707697e+02
1.610000e-06	8.004826e-06	5.640771e-09	5.694279e+01	3.709372e+02
1.620000e-06	8.012344e-06	5.644462e-09	5.699627e+01	3.710337e+02
1.630000e-06	8.016958e-06	5.647994e-09	5.702909e+01	3.710560e+02
1.640000e-06	8.018703e-06	5.650473e-09	5.704150e+01	3.710039e+02
1.650000e-06	8.017677e-06	5.651004e-09	5.703420e+01	3.708798e+02
1.660000e-06	8.014062e-06	5.641998e-09	5.700849e+01	3.706887e+02
1.670000e-06	8.007780e-06	5.634596e-09	5.696380e+01	3.704377e+02
1.680000e-06	7.998808e-06	5.630989e-09	5.689998e+01	3.701349e+02
1.690000e-06	7.987113e-06	5.626890e-09	5.681678e+01	3.697883e+02
1.700000e-06	7.972584e-06	5.622857e-09	5.671343e+01	3.694049e+02
1.710000e-06	7.955477e-06	5.617775e-09	5.659174e+01	3.689894e+02
1.720000e-06	7.936103e-06	5.607439e-09	5.645392e+01	3.685442e+02
1.730000e-06	7.914207e-06	5.560328e-09	5.629817e+01	3.680689e+02
1.740000e-06	7.889170e-06	5.527885e-09	5.612006e+01	3.675608e+02
1.750000e-06	7.860558e-06	5.567199e-09	5.591653e+01	3.670152e+02
1.760000e-06	7.828574e-06	5.574372e-09	5.568900e+01	3.664263e+02
1.770000e-06	7.793915e-06	5.549419e-09	5.544246e+01	3.657887e+02
1.780000e-06	7.756915e-06	5.564287e-09	5.517926e+01	3.650973e+02
1.790000e-06	7.717717e-06	5.599169e-09	5.490042e+01	3.643488e+02
1.800000e-06	7.676444e-06	5.495900e-09	5.460682e+01	3.635415e+02
1.810000e-06	7.632733e-06	5.508259e-09	5.429588e+01	3.626756e+02
1.820000e-06	7.586327e-06	5.558514e-09	5.396577e+01	3.617526e+02
1.830000e-06	7.537174e-06	5.477737e-09	5.361612e+01	3.607748e+02
1.840000e-06	7.485032e-06	5.519642e-09	5.324521e+01	3.597445e+02
1.850000e-06	7.430003e-06	5.443062e-09	5.285375e+01	3.586632e+02
1.860000e-06	7.372243e-06	5.441501e-09	5.244287e+01	3.575310e+02
1.870000e-06	7.311809e-06	5.454393e-09	5.201297e+01	3.563463e+02
1.880000e-06	7.248705e-06	5.409827e-09	5.156408e+01	3.551056e+02
1.890000e-06	7.182818e-06	5.446138e-09	5.109539e+01	3.538042e+02
1.900000e-06	7.114097e-06	5.364474e-09	5.060653e+01	3.524363e+02
1.910000e-06	7.042543e-06	5.349167e-09	5.009753e+01	3.509962e+02
1.920000e-06	6.968346e-06	5.322368e-09	4.956973e+01	3.494791e+02
1.930000e-06	6.891389e-06	5.322620e-09	4.902229e+01	3.478816e+02
1.940000e-06	6.811661e-06	5.320913e-09	4.845514e+01	3.462025e+02
1.950000e-06	6.729477e-06	5.247103e-09	4.787052e+01	3.444426e+02
1.960000e-06	6.644847e-06	5.248426e-09	4.726850e+01	3.426050e+02
1.970000e-06	6.557680e-06	5.186008e-09	4.664843e+01	3.406940e+02
1.980000e-06	6.468086e-06	5.159442e-09	4.601110e+01	3.387146e+02
1.990000e-06	6.376327e-06	5.142190e-09	4.535837e+01	3.366716e+02
2.000000e-06	6.282325e-06	5.120112e-09	4.468968e+01	3.345682e+02
2.010000e-06	6.185988e-06	5.083227e-09	4.400438e+01	3.324061e+02
2.020000e-06	6.087520e-06	5.028811e-09	4.330392e+01	3.301840e+02
2.030000e-06	5.986825e-06	5.008726e-09	4.258762e+01	3.278985e+02
2.040000e-06	5.883889e-06	4.970938e-09	4.185538e+01	3.255438e+02
2.050000e-06	5.778943e-06	4.937742e-09	4.110884e+01	3.231128e+02
2.060000e-06	5.672111e-06	4.885501e-09	4.034889e+01	3.205979e+02
2.070000e-06	5.563317e-06	4.857704e-09	3.957497e+01	3.179918e+02
2.080000e-06	5.452469e-06	4.820783e-09	3.878645e+01	3.152888e+02
2.090000e-06	5.339604e-06	4.774525e-09	3.798358e+01	3.124852e+02
2.100000e-06	5.224780e-06	4.727176e-09	3.716677e+01	3.095795e+02
2.110000e-06	5.107944e-06	4.683099e-09	3.633565e+01	3.065726e+02
2.120000e-06	4.989130e-06	4.634050e-09	3.549046e+01	3.034669e+02
2.130000e-06	4.868467e-06	4.582194e-09	3.463212e+01	3.002657e+02
2.140000e-06	4.746021e-06	4.547016e-09	3.376109e+01	2.969716e+02
2.150000e-06	4.621859e-06	4.503615e-09	3.287786e+01	2.935863e+02
2.160000e-06	4.495946e-06	4.447142e-09	3.198217e+01	2.901091e+02
2.170000e-06	4.368322e-06	4.377334e-09	3.107431e+01	2.865363e+02
2.180000e-06	4.239102e-06	4.321319e-09	3.015509e+01	2.828619e+02
2.190000e-06	4.108420e-06	4.267673e-09	2.922548e+01	2.790772e+02
2.200000e-06	3.976238e-06	4.213105e-09	2.828519e+01	2.751720e+02
2.210000e-06	3.842504e-06	4.153883e-09	2.733387e+01	2.711359e+02
2.220000e-06	3.707264e-06	4.092951e-09	2.637184e+01	2.669593e+02
2.230000e-06	3.570685e-06	4.022984e-09	2.540027e+01	2.626347e+02
2.240000e-06	3.432805e-06	3.949810e-09	2.441946e+01	2.581575e+02
2.250000e-06	3.293583e-06	3.883241e-09	2.342909e+01	2.535263e+02
2.260000e-06	3.153008e-06	3.814458e-09	2.242910e+01	2.487428e+02
2.270000e-06	3.011115e-06	3.737701e-09	2.141973e+01	2.438110e+02
2.280000e-06	2.868074e-06	3.656723e-09	2.040221e+01	2.387357e+02
2.290000e-06	2.723957e-06	3.578560e-09	1.937702e+01	2.335214e+02
2.300000e-06	2.578947e-06	3.496055e-09	1.834548e+01	2.281702e+02
2.310000e-06	2.433170e-06	3.412347e-09	1.730849e+01	2.226810e+02
2.320000e-06	2.286623e-06	3.327085e-09	1.626602e+01	2.170480e+02
2.330000e-06	2.139330e-06	3.238540e-09	1.521825e+01	2.112608e+02
2.340000e-06	1.991264e-06	3.146024e-09	1.416497e+01	2.053046e+02
2.350000e-06	1.842416e-06	3.052903e-09	1.310613e+01	1.991614e+02
2.360000e-06	1.692915e-06	2.958767e-09	1.204265e+01	1.928116e+02
2.370000e-06	1.542885e-06	2.856218e-09	1.097540e+01	1.862360e+02
2.380000e-06	1.392434e-06	2.747704e-09	9.905159e+00	1.794173e+02
2.390000e-06	1.241607e-06	2.637330e-09	8.832243e+00	1.723423e+02
2.400000e-06	1.090298e-06	2.525405e-09	7.755896e+00	1.650023e+02
2.410000e-06	9.385376e-07	2.411156e-09	6.676340e+00	1.573931e+02
2.420000e-06	7.864508e-07	2.293917e-09	5.594463e+00	1.495148e+02
2.430000e-06	6.341261e-07	2.172156e-09	4.510892e+00	1.413694e+02
2.440000e-06	4.816026e-07	2.042917e-09	3.425907e+00	1.329591e+02
2.450000e-06	3.288867e-07	1.910204e-09	2.339554e+00	1.242830e+02
2.460000e-06	1.760022e-07	1.777565e-09	1.252001e+00	1.153355e+02
2.470000e-06	2.299115e-08	1.640527e-09	1.635489e-01	1.061037e+02
2.480000e-06	-1.300383e-07	1.496722e-09	-9.250351e-01	9.656660e+01
2.490000e-06	-2.830295e-07	1.345578e-09	-2.013347e+00	8.669581e+01
2.500000e-06	-4.359633e-07	1.187152e-09	-3.101250e+00	7.645693e+01
2.510000e-06	-5.887861e-07	1.022869e-09	-4.188364e+00	6.581283e+01
2.520000e-06	-7.414172e-07	8.545308e-10	-5.274113e+00	5.472793e+01
2.530000e-06	-8.937298e-07	6.810139e-10	-6.357598e+00	4.317313e+01
2.540000e-06	-1.045667e-06	4.966391e-10	-7.438415e+00	3.113104e+01
2.550000e-06	-1.197236e-06	3.024746e-10	-8.516607e+00	1.860062e+01
2.560000e-06	-1.348338e-06	1.032973e-10	-9.591478e+00	5.600995e+00
2.570000e-06	-1.498932e-06	-1.000371e-10	-1.066274e+01	-7.826476e+00
2.580000e-06	-1.649078e-06	-3.093153e-10	-1.173081e+01	-2.161783e+01
2.590000e-06	-1.798729e-06	-5.253327e-10	-1.279536e+01	-3.568827e+01
2.600000e-06	-1.947716e-06	-7.446211e-10	-1.385519e+01	-4.993580e+01
2.610000e-06	-2.095884e-06	-9.645025e-10	-1.490919e+01	-6.424649e+01
2.620000e-06	-2.243129e-06	-1.183202e-09	-1.595662e+01	-7.850089e+01
2.630000e-06	-2.389459e-06	-1.399783e-09	-1.699755e+01	-9.258087e+01
2.640000e-06	-2.535013e-06	-1.613654e-09	-1.803296e+01	-1.063763e+02
2.650000e-06	-2.679677e-06	-1.822319e-09	-1.906204e+01	-1.197909e+02
2.660000e-06	-2.823240e-06	-2.022389e-09	-2.008328e+01	-1.327466e+02
2.670000e-06	-2.965687e-06	-2.211573e-09	-2.109659e+01	-1.451861e+02
2.680000e-06	-3.107029e-06	-2.391587e-09	-2.210203e+01	-1.570738e+02
2.690000e-06	-3.247072e-06	-2.562673e-09	-2.309823e+01	-1.683945e+02
2.700000e-06	-3.385761e-06	-2.725379e-09	-2.408480e+01	-1.791508e+02
2.710000e-06	-3.523272e-06	-2.881110e-09	-2.506300e+01	-1.893589e+02
2.720000e-06	-3.659522e-06	-3.029547e-09	-2.603222e+01	-1.990447e+02
2.730000e-06	-3.794390e-06	-3.169274e-09	-2.699161e+01	-2.082387e+02
2.740000e-06	-3.927882e-06	-3.302692e-09	-2.794122e+01	-2.169724e+02
2.750000e-06	-4.059921e-06	-3.431958e-09	-2.888048e+01	-2.252752e+02
2.760000e-06	-4.190507e-06	-3.555698e-09	-2.980941e+01	-2.331720e+02
2.770000e-06	-4.319754e-06	-3.671777e-09	-3.072881e+01	-2.406834e+02
2.780000e-06	-4.447560e-06	-3.780811e-09	-3.163797e+01	-2.478250e+02
2.790000e-06	-4.573804e-06	-3.884118e-09	-3.253602e+01	-2.546095e+02
2.800000e-06	-4.698488e-06	-3.979488e-09	-3.342296e+01	-2.610483e+02
2.810000e-06	-4.821478e-06	-4.070471e-09	-3.429786e+01	-2.671532e+02
2.820000e-06	-4.942690e-06	-4.158737e-09	-3.516011e+01	-2.729383e+02
2.830000e-06	-5.062099e-06	-4.242850e-09	-3.600953e+01	-2.784207e+02
2.840000e-06	-5.179554e-06	-4.322733e-09	-3.684505e+01	-2.836214e+02
2.850000e-06	-5.294916e-06	-4.398834e-09	-3.766569e+01	-2.885640e+02
2.860000e-06	-5.408121e-06	-4.475211e-09	-3.847098e+01	-2.932743e+02
2.870000e-06	-5.519152e-06	-4.548172e-09	-3.926080e+01	-2.977779e+02
2.880000e-06	-5.628121e-06	-4.613719e-09	-4.003596e+01	-3.020987e+02
2.890000e-06	-5.735196e-06	-4.675664e-09	-4.079765e+01	-3.062569e+02
2.900000e-06	-5.840339e-06	-4.736828e-09	-4.154558e+01	-3.102675e+02
2.910000e-06	-5.943342e-06	-4.798323e-09	-4.227830e+01	-3.141395e+02
2.920000e-06	-6.044044e-06	-4.857469e-09	-4.299465e+01	-3.178762e+02
2.930000e-06	-6.142480e-06	-4.915397e-09	-4.369488e+01	-3.214751e+02
2.940000e-06	-6.238738e-06	-4.971870e-09	-4.437962e+01	-3.249301e+02
