# Temperatura_=_41.39
# Concentracion g/m^3_=_5000.0
# C_Vs_to_Am_M_A/Vsm_=_65563218390.804596
# pendiente_HvsI_1/m_=_3716.3
# ordenada_HvsI_A/m_=_1297.0
# frecuencia_Hz_=_302503.4599385894

Tiempo_(s)	Campo_(V.s)	Magnetizacion_(V.s)	Campo_(kA/m)	Magnetizacion_(A/m)
0.000000e+00	-7.955613e-06	-5.732661e-09	-5.686385e+01	-3.756079e+02
1.000000e-08	-7.951177e-06	-5.732733e-09	-5.683214e+01	-3.753736e+02
2.000000e-08	-7.944221e-06	-5.726855e-09	-5.678242e+01	-3.750753e+02
3.000000e-08	-7.934574e-06	-5.726361e-09	-5.671346e+01	-3.747242e+02
4.000000e-08	-7.922036e-06	-5.722469e-09	-5.662385e+01	-3.743324e+02
5.000000e-08	-7.906516e-06	-5.713658e-09	-5.651292e+01	-3.739109e+02
6.000000e-08	-7.888337e-06	-5.703045e-09	-5.638298e+01	-3.734686e+02
7.000000e-08	-7.867894e-06	-5.684808e-09	-5.623686e+01	-3.730110e+02
8.000000e-08	-7.844869e-06	-5.723143e-09	-5.607229e+01	-3.725399e+02
9.000000e-08	-7.818690e-06	-5.780659e-09	-5.588517e+01	-3.720532e+02
1.000000e-07	-7.789295e-06	-5.711944e-09	-5.567506e+01	-3.715454e+02
1.100000e-07	-7.757040e-06	-5.654267e-09	-5.544452e+01	-3.710085e+02
1.200000e-07	-7.722065e-06	-5.654104e-09	-5.519453e+01	-3.704327e+02
1.300000e-07	-7.684628e-06	-5.641667e-09	-5.492694e+01	-3.698083e+02
1.400000e-07	-7.645052e-06	-5.582314e-09	-5.464407e+01	-3.691263e+02
1.500000e-07	-7.603249e-06	-5.593087e-09	-5.434528e+01	-3.683791e+02
1.600000e-07	-7.558862e-06	-5.708773e-09	-5.402801e+01	-3.675618e+02
1.700000e-07	-7.511800e-06	-5.540984e-09	-5.369163e+01	-3.666715e+02
1.800000e-07	-7.461916e-06	-5.573966e-09	-5.333507e+01	-3.657075e+02
1.900000e-07	-7.408966e-06	-5.616772e-09	-5.295661e+01	-3.646708e+02
2.000000e-07	-7.353139e-06	-5.480437e-09	-5.255758e+01	-3.635632e+02
2.100000e-07	-7.294617e-06	-5.528416e-09	-5.213928e+01	-3.623868e+02
2.200000e-07	-7.233462e-06	-5.475163e-09	-5.170217e+01	-3.611434e+02
2.300000e-07	-7.169679e-06	-5.485106e-09	-5.124627e+01	-3.598339e+02
2.400000e-07	-7.103143e-06	-5.456684e-09	-5.077070e+01	-3.584579e+02
2.500000e-07	-7.033913e-06	-5.434212e-09	-5.027587e+01	-3.570145e+02
2.600000e-07	-6.962023e-06	-5.435737e-09	-4.976202e+01	-3.555019e+02
2.700000e-07	-6.887328e-06	-5.392630e-09	-4.922813e+01	-3.539179e+02
2.800000e-07	-6.809861e-06	-5.360495e-09	-4.867443e+01	-3.522607e+02
2.900000e-07	-6.729665e-06	-5.310433e-09	-4.810121e+01	-3.505293e+02
3.000000e-07	-6.646971e-06	-5.338693e-09	-4.751014e+01	-3.487233e+02
3.100000e-07	-6.562078e-06	-5.303828e-09	-4.690336e+01	-3.468434e+02
3.200000e-07	-6.474897e-06	-5.233000e-09	-4.628022e+01	-3.448911e+02
3.300000e-07	-6.385315e-06	-5.234259e-09	-4.563992e+01	-3.428684e+02
3.400000e-07	-6.293395e-06	-5.203232e-09	-4.498291e+01	-3.407774e+02
3.500000e-07	-6.199268e-06	-5.156931e-09	-4.431012e+01	-3.386195e+02
3.600000e-07	-6.102909e-06	-5.117087e-09	-4.362139e+01	-3.363955e+02
3.700000e-07	-6.004266e-06	-5.105302e-09	-4.291633e+01	-3.341049e+02
3.800000e-07	-5.903496e-06	-5.070258e-09	-4.219605e+01	-3.317460e+02
3.900000e-07	-5.800711e-06	-5.014336e-09	-4.146138e+01	-3.293160e+02
4.000000e-07	-5.695860e-06	-4.980689e-09	-4.071195e+01	-3.268113e+02
4.100000e-07	-5.588943e-06	-4.947707e-09	-3.994774e+01	-3.242280e+02
4.200000e-07	-5.480055e-06	-4.905757e-09	-3.916945e+01	-3.215622e+02
4.300000e-07	-5.369197e-06	-4.845339e-09	-3.837708e+01	-3.188105e+02
4.400000e-07	-5.256338e-06	-4.811882e-09	-3.757040e+01	-3.159704e+02
4.500000e-07	-5.141436e-06	-4.780680e-09	-3.674912e+01	-3.130400e+02
4.600000e-07	-5.024526e-06	-4.725512e-09	-3.591350e+01	-3.100179e+02
4.700000e-07	-4.905725e-06	-4.671401e-09	-3.506435e+01	-3.069031e+02
4.800000e-07	-4.785100e-06	-4.629878e-09	-3.420217e+01	-3.036942e+02
4.900000e-07	-4.662801e-06	-4.584378e-09	-3.332802e+01	-3.003890e+02
5.000000e-07	-4.538838e-06	-4.524263e-09	-3.244197e+01	-2.969839e+02
5.100000e-07	-4.413245e-06	-4.469753e-09	-3.154428e+01	-2.934740e+02
5.200000e-07	-4.286055e-06	-4.418117e-09	-3.063517e+01	-2.898530e+02
5.300000e-07	-4.157268e-06	-4.358872e-09	-2.971465e+01	-2.861132e+02
5.400000e-07	-4.027041e-06	-4.292973e-09	-2.878383e+01	-2.822468e+02
5.500000e-07	-3.895235e-06	-4.230561e-09	-2.784173e+01	-2.782459e+02
5.600000e-07	-3.761899e-06	-4.169604e-09	-2.688869e+01	-2.741040e+02
5.700000e-07	-3.627152e-06	-4.098713e-09	-2.592557e+01	-2.698162e+02
5.800000e-07	-3.490980e-06	-4.030379e-09	-2.495226e+01	-2.653799e+02
5.900000e-07	-3.353442e-06	-3.963233e-09	-2.396919e+01	-2.607951e+02
6.000000e-07	-3.214580e-06	-3.894969e-09	-2.297666e+01	-2.560636e+02
6.100000e-07	-3.074316e-06	-3.819246e-09	-2.197410e+01	-2.511885e+02
6.200000e-07	-2.932676e-06	-3.741589e-09	-2.096171e+01	-2.461734e+02
6.300000e-07	-2.789917e-06	-3.665995e-09	-1.994132e+01	-2.410203e+02
6.400000e-07	-2.646149e-06	-3.584406e-09	-1.891372e+01	-2.357292e+02
6.500000e-07	-2.501463e-06	-3.502053e-09	-1.787956e+01	-2.302964e+02
6.600000e-07	-2.355880e-06	-3.414534e-09	-1.683898e+01	-2.247141e+02
6.700000e-07	-2.209417e-06	-3.325305e-09	-1.579212e+01	-2.189701e+02
6.800000e-07	-2.062232e-06	-3.234176e-09	-1.474009e+01	-2.130485e+02
6.900000e-07	-1.914393e-06	-3.141795e-09	-1.368339e+01	-2.069307e+02
7.000000e-07	-1.765927e-06	-3.044764e-09	-1.262221e+01	-2.005968e+02
7.100000e-07	-1.616984e-06	-2.941944e-09	-1.155762e+01	-1.940278e+02
7.200000e-07	-1.467616e-06	-2.839063e-09	-1.048999e+01	-1.872066e+02
7.300000e-07	-1.317779e-06	-2.730989e-09	-9.419007e+00	-1.801202e+02
7.400000e-07	-1.167469e-06	-2.617071e-09	-8.344648e+00	-1.727600e+02
7.500000e-07	-1.016712e-06	-2.502259e-09	-7.267086e+00	-1.651219e+02
7.600000e-07	-8.655768e-07	-2.388430e-09	-6.186830e+00	-1.572052e+02
7.700000e-07	-7.141224e-07	-2.264529e-09	-5.104289e+00	-1.490111e+02
7.800000e-07	-5.623853e-07	-2.132982e-09	-4.019727e+00	-1.405403e+02
7.900000e-07	-4.104690e-07	-1.998621e-09	-2.933884e+00	-1.317903e+02
8.000000e-07	-2.583930e-07	-1.858567e-09	-1.846900e+00	-1.227528e+02
8.100000e-07	-1.061451e-07	-1.711156e-09	-7.586866e-01	-1.134120e+02
8.200000e-07	4.615973e-08	-1.558061e-09	3.299330e-01	-1.037432e+02
8.300000e-07	1.984319e-07	-1.404329e-09	1.418319e+00	-9.371346e+01
8.400000e-07	3.506412e-07	-1.247242e-09	2.506256e+00	-8.328342e+01
8.500000e-07	5.027574e-07	-1.082300e-09	3.593528e+00	-7.241031e+01
8.600000e-07	6.547663e-07	-9.091072e-10	4.680033e+00	-6.105258e+01
8.700000e-07	8.066297e-07	-7.311835e-10	5.765497e+00	-4.917519e+01
8.800000e-07	9.582296e-07	-5.410177e-10	6.849079e+00	-3.675530e+01
8.900000e-07	1.109452e-06	-3.449461e-10	7.929965e+00	-2.378751e+01
9.000000e-07	1.260261e-06	-1.450685e-10	9.007889e+00	-1.028818e+01
9.100000e-07	1.410545e-06	6.399466e-11	1.008207e+01	3.701755e+00
9.200000e-07	1.560223e-06	2.824142e-10	1.115191e+01	1.811603e+01
9.300000e-07	1.709395e-06	5.092609e-10	1.221814e+01	3.286440e+01
9.400000e-07	1.858103e-06	7.389913e-10	1.328105e+01	4.783618e+01
9.500000e-07	2.006150e-06	9.730542e-10	1.433923e+01	6.290570e+01
9.600000e-07	2.153414e-06	1.203515e-09	1.539182e+01	7.793912e+01
9.700000e-07	2.299890e-06	1.427070e-09	1.643878e+01	9.280204e+01
9.800000e-07	2.445497e-06	1.645061e-09	1.747953e+01	1.073671e+02
9.900000e-07	2.590223e-06	1.857700e-09	1.851398e+01	1.215210e+02
1.000000e-06	2.734002e-06	2.064910e-09	1.954166e+01	1.351699e+02
1.010000e-06	2.876652e-06	2.262479e-09	2.056127e+01	1.482432e+02
1.020000e-06	3.018170e-06	2.448927e-09	2.157279e+01	1.606951e+02
1.030000e-06	3.158502e-06	2.624943e-09	2.257583e+01	1.725042e+02
1.040000e-06	3.297496e-06	2.792894e-09	2.356931e+01	1.836708e+02
1.050000e-06	3.435206e-06	2.953816e-09	2.455361e+01	1.942130e+02
1.060000e-06	3.571626e-06	3.106478e-09	2.552869e+01	2.041618e+02
1.070000e-06	3.706666e-06	3.252476e-09	2.649391e+01	2.135560e+02
1.080000e-06	3.840366e-06	3.389528e-09	2.744955e+01	2.224370e+02
1.090000e-06	3.972736e-06	3.518764e-09	2.839568e+01	2.308447e+02
1.100000e-06	4.103616e-06	3.640688e-09	2.933116e+01	2.388146e+02
1.110000e-06	4.233024e-06	3.756046e-09	3.025612e+01	2.463766e+02
1.120000e-06	4.360967e-06	3.866087e-09	3.117061e+01	2.535541e+02
1.130000e-06	4.487402e-06	3.969657e-09	3.207432e+01	2.603657e+02
1.140000e-06	4.612432e-06	4.067308e-09	3.296800e+01	2.668262e+02
1.150000e-06	4.735869e-06	4.161066e-09	3.385028e+01	2.729493e+02
1.160000e-06	4.857576e-06	4.248580e-09	3.472020e+01	2.787497e+02
1.170000e-06	4.977541e-06	4.329498e-09	3.557766e+01	2.842442e+02
1.180000e-06	5.095691e-06	4.406874e-09	3.642216e+01	2.894528e+02
1.190000e-06	5.211907e-06	4.482215e-09	3.725283e+01	2.943991e+02
1.200000e-06	5.326065e-06	4.555511e-09	3.806879e+01	2.991088e+02
1.210000e-06	5.438229e-06	4.625213e-09	3.887049e+01	3.036085e+02
1.220000e-06	5.548451e-06	4.691670e-09	3.965832e+01	3.079237e+02
1.230000e-06	5.656719e-06	4.754771e-09	4.043218e+01	3.120765e+02
1.240000e-06	5.762954e-06	4.816296e-09	4.119151e+01	3.160842e+02
1.250000e-06	5.867022e-06	4.874215e-09	4.193535e+01	3.199578e+02
1.260000e-06	5.968944e-06	4.930565e-09	4.266385e+01	3.237015e+02
1.270000e-06	6.068653e-06	4.984341e-09	4.337654e+01	3.273133e+02
1.280000e-06	6.166024e-06	5.034243e-09	4.407251e+01	3.307863e+02
1.290000e-06	6.261105e-06	5.083214e-09	4.475211e+01	3.341101e+02
1.300000e-06	6.353992e-06	5.131317e-09	4.541603e+01	3.372737e+02
1.310000e-06	6.444675e-06	5.176039e-09	4.606421e+01	3.402671e+02
1.320000e-06	6.533019e-06	5.214864e-09	4.669566e+01	3.430836e+02
1.330000e-06	6.619072e-06	5.252047e-09	4.731073e+01	3.457211e+02
1.340000e-06	6.702812e-06	5.289766e-09	4.790928e+01	3.481830e+02
1.350000e-06	6.784110e-06	5.325344e-09	4.849036e+01	3.504776e+02
1.360000e-06	6.862906e-06	5.358518e-09	4.905357e+01	3.526176e+02
1.370000e-06	6.939183e-06	5.389882e-09	4.959877e+01	3.546184e+02
1.380000e-06	7.012849e-06	5.418193e-09	5.012531e+01	3.564964e+02
1.390000e-06	7.083903e-06	5.444028e-09	5.063318e+01	3.582670e+02
1.400000e-06	7.152502e-06	5.469068e-09	5.112350e+01	3.599430e+02
1.410000e-06	7.218551e-06	5.492897e-09	5.159559e+01	3.615335e+02
1.420000e-06	7.281982e-06	5.516711e-09	5.204897e+01	3.630434e+02
1.430000e-06	7.342981e-06	5.539024e-09	5.248497e+01	3.644735e+02
1.440000e-06	7.401447e-06	5.558907e-09	5.290287e+01	3.658213e+02
1.450000e-06	7.457269e-06	5.576192e-09	5.330186e+01	3.670821e+02
1.460000e-06	7.510326e-06	5.592025e-09	5.368109e+01	3.682511e+02
1.470000e-06	7.560274e-06	5.607540e-09	5.403811e+01	3.693242e+02
1.480000e-06	7.607199e-06	5.621855e-09	5.437351e+01	3.702998e+02
1.490000e-06	7.651532e-06	5.635737e-09	5.469038e+01	3.711794e+02
1.500000e-06	7.693203e-06	5.649337e-09	5.498823e+01	3.719679e+02
1.510000e-06	7.732002e-06	5.662827e-09	5.526556e+01	3.726729e+02
1.520000e-06	7.768149e-06	5.675015e-09	5.552392e+01	3.733044e+02
1.530000e-06	7.801571e-06	5.685165e-09	5.576281e+01	3.738729e+02
1.540000e-06	7.832180e-06	5.693291e-09	5.598159e+01	3.743884e+02
1.550000e-06	7.860104e-06	5.699874e-09	5.618118e+01	3.748586e+02
1.560000e-06	7.885097e-06	5.706573e-09	5.635982e+01	3.752882e+02
1.570000e-06	7.907138e-06	5.714378e-09	5.651736e+01	3.756782e+02
1.580000e-06	7.926534e-06	5.721478e-09	5.665600e+01	3.760257e+02
1.590000e-06	7.943076e-06	5.725504e-09	5.677423e+01	3.763247e+02
1.600000e-06	7.956576e-06	5.728438e-09	5.687073e+01	3.765671e+02
1.610000e-06	7.966950e-06	5.731499e-09	5.694487e+01	3.767440e+02
1.620000e-06	7.974235e-06	5.732830e-09	5.699695e+01	3.768473e+02
1.630000e-06	7.978758e-06	5.733554e-09	5.702927e+01	3.768712e+02
1.640000e-06	7.980468e-06	5.735888e-09	5.704150e+01	3.768130e+02
1.650000e-06	7.979394e-06	5.737358e-09	5.703383e+01	3.766740e+02
1.660000e-06	7.975753e-06	5.727108e-09	5.700780e+01	3.764595e+02
1.670000e-06	7.969411e-06	5.725979e-09	5.696247e+01	3.761779e+02
1.680000e-06	7.960356e-06	5.725680e-09	5.689774e+01	3.758402e+02
1.690000e-06	7.948647e-06	5.720803e-09	5.681405e+01	3.754584e+02
1.700000e-06	7.934164e-06	5.718088e-09	5.671054e+01	3.750439e+02
1.710000e-06	7.917101e-06	5.717251e-09	5.658858e+01	3.746063e+02
1.720000e-06	7.897728e-06	5.722207e-09	5.645011e+01	3.741523e+02
1.730000e-06	7.875810e-06	5.614998e-09	5.629344e+01	3.736846e+02
1.740000e-06	7.850730e-06	5.579751e-09	5.611418e+01	3.732023e+02
1.750000e-06	7.822000e-06	5.659477e-09	5.590882e+01	3.727009e+02
1.760000e-06	7.789902e-06	5.658298e-09	5.567940e+01	3.721727e+02
1.770000e-06	7.755283e-06	5.629487e-09	5.543196e+01	3.716086e+02
1.780000e-06	7.718369e-06	5.705638e-09	5.516811e+01	3.709986e+02
1.790000e-06	7.679246e-06	5.726968e-09	5.488847e+01	3.703334e+02
1.800000e-06	7.638088e-06	5.508885e-09	5.459429e+01	3.696050e+02
1.810000e-06	7.594419e-06	5.646087e-09	5.428216e+01	3.688077e+02
1.820000e-06	7.548130e-06	5.637465e-09	5.395130e+01	3.679379e+02
1.830000e-06	7.499193e-06	5.568795e-09	5.360152e+01	3.669945e+02
1.840000e-06	7.447165e-06	5.673892e-09	5.322964e+01	3.659779e+02
1.850000e-06	7.392194e-06	5.498218e-09	5.283673e+01	3.648899e+02
1.860000e-06	7.334465e-06	5.606268e-09	5.242410e+01	3.637325e+02
1.870000e-06	7.274139e-06	5.524774e-09	5.199292e+01	3.625077e+02
1.880000e-06	7.211243e-06	5.483179e-09	5.154335e+01	3.612165e+02
1.890000e-06	7.145554e-06	5.561862e-09	5.107384e+01	3.598592e+02
1.900000e-06	7.077080e-06	5.418010e-09	5.058441e+01	3.584347e+02
1.910000e-06	7.005736e-06	5.469661e-09	5.007447e+01	3.569416e+02
1.920000e-06	6.931726e-06	5.403006e-09	4.954547e+01	3.553777e+02
1.930000e-06	6.855041e-06	5.436215e-09	4.899735e+01	3.537412e+02
1.940000e-06	6.775560e-06	5.381986e-09	4.842925e+01	3.520306e+02
1.950000e-06	6.693613e-06	5.301100e-09	4.784352e+01	3.502454e+02
1.960000e-06	6.609229e-06	5.363084e-09	4.724038e+01	3.483860e+02
1.970000e-06	6.522386e-06	5.252333e-09	4.661966e+01	3.464537e+02
1.980000e-06	6.433168e-06	5.268129e-09	4.598196e+01	3.444505e+02
1.990000e-06	6.341733e-06	5.230789e-09	4.532841e+01	3.423783e+02
2.000000e-06	6.248070e-06	5.219905e-09	4.465895e+01	3.402390e+02
2.010000e-06	6.152069e-06	5.153860e-09	4.397276e+01	3.380334e+02
2.020000e-06	6.053930e-06	5.097651e-09	4.327131e+01	3.357615e+02
2.030000e-06	5.953721e-06	5.098456e-09	4.255504e+01	3.334219e+02
2.040000e-06	5.851359e-06	5.052738e-09	4.182340e+01	3.310121e+02
2.050000e-06	5.746839e-06	5.026450e-09	4.107632e+01	3.285287e+02
2.060000e-06	5.640378e-06	4.963138e-09	4.031538e+01	3.259677e+02
2.070000e-06	5.531990e-06	4.952380e-09	3.954066e+01	3.233254e+02
2.080000e-06	5.421607e-06	4.891193e-09	3.875169e+01	3.205981e+02
2.090000e-06	5.309264e-06	4.848590e-09	3.794870e+01	3.177831e+02
2.100000e-06	5.194942e-06	4.806261e-09	3.713157e+01	3.148781e+02
2.110000e-06	5.078626e-06	4.770353e-09	3.630018e+01	3.118819e+02
2.120000e-06	4.960329e-06	4.713946e-09	3.545463e+01	3.087932e+02
2.130000e-06	4.840129e-06	4.661068e-09	3.459549e+01	3.056110e+02
2.140000e-06	4.718099e-06	4.626068e-09	3.372327e+01	3.023331e+02
2.150000e-06	4.594315e-06	4.572919e-09	3.283850e+01	2.989565e+02
2.160000e-06	4.468844e-06	4.517201e-09	3.194168e+01	2.954767e+02
2.170000e-06	4.341797e-06	4.451932e-09	3.103359e+01	2.918877e+02
2.180000e-06	4.213134e-06	4.407361e-09	3.011396e+01	2.881822e+02
2.190000e-06	4.082954e-06	4.347485e-09	2.918348e+01	2.843523e+02
2.200000e-06	3.951236e-06	4.290370e-09	2.824200e+01	2.803901e+02
2.210000e-06	3.818030e-06	4.223110e-09	2.728990e+01	2.762886e+02
2.220000e-06	3.683435e-06	4.159677e-09	2.632786e+01	2.720423e+02
2.230000e-06	3.547454e-06	4.088018e-09	2.535592e+01	2.676482e+02
2.240000e-06	3.410147e-06	4.020812e-09	2.437449e+01	2.631052e+02
2.250000e-06	3.271547e-06	3.956293e-09	2.338383e+01	2.584149e+02
2.260000e-06	3.131640e-06	3.885081e-09	2.238383e+01	2.535800e+02
2.270000e-06	2.990491e-06	3.806194e-09	2.137495e+01	2.486041e+02
2.280000e-06	2.848186e-06	3.724161e-09	2.035780e+01	2.434899e+02
2.290000e-06	2.704779e-06	3.645723e-09	1.933278e+01	2.382380e+02
2.300000e-06	2.560468e-06	3.561535e-09	1.830130e+01	2.328458e+02
2.310000e-06	2.415316e-06	3.480318e-09	1.726381e+01	2.273068e+02
2.320000e-06	2.269399e-06	3.392478e-09	1.622084e+01	2.216100e+02
2.330000e-06	2.122697e-06	3.300834e-09	1.517227e+01	2.157405e+02
2.340000e-06	1.975137e-06	3.207011e-09	1.411757e+01	2.096803e+02
2.350000e-06	1.826846e-06	3.112750e-09	1.305764e+01	2.034097e+02
2.360000e-06	1.678041e-06	3.015146e-09	1.199403e+01	1.969092e+02
2.370000e-06	1.528804e-06	2.910406e-09	1.092734e+01	1.901611e+02
2.380000e-06	1.379045e-06	2.804193e-09	9.856914e+00	1.831512e+02
2.390000e-06	1.228798e-06	2.696531e-09	8.783005e+00	1.758694e+02
2.400000e-06	1.078143e-06	2.580586e-09	7.706175e+00	1.683104e+02
2.410000e-06	9.271168e-07	2.459656e-09	6.626695e+00	1.604727e+02
2.420000e-06	7.758009e-07	2.336950e-09	5.545144e+00	1.523573e+02
2.430000e-06	6.241759e-07	2.210628e-09	4.461383e+00	1.439651e+02
2.440000e-06	4.723222e-07	2.078799e-09	3.375988e+00	1.352950e+02
2.450000e-06	3.203068e-07	1.943794e-09	2.289437e+00	1.263405e+02
2.460000e-06	1.681591e-07	1.805240e-09	1.201940e+00	1.170880e+02
2.470000e-06	1.591182e-08	1.659182e-09	1.137319e-01	1.075154e+02
2.480000e-06	-1.364147e-07	1.507841e-09	-9.750428e-01	9.759211e+01
2.490000e-06	-2.887213e-07	1.351367e-09	-2.063675e+00	8.728029e+01
2.500000e-06	-4.409693e-07	1.186149e-09	-3.151889e+00	7.653770e+01
2.510000e-06	-5.931174e-07	1.012602e-09	-4.239389e+00	6.532193e+01
2.520000e-06	-7.450171e-07	8.327593e-10	-5.325113e+00	5.359552e+01
2.530000e-06	-8.965816e-07	6.462095e-10	-6.408441e+00	4.133158e+01
2.540000e-06	-1.047815e-06	4.514896e-10	-7.489400e+00	2.851921e+01
2.550000e-06	-1.198684e-06	2.480365e-10	-8.567757e+00	1.516822e+01
2.560000e-06	-1.349099e-06	3.675818e-11	-9.642872e+00	1.312337e+00
2.570000e-06	-1.498980e-06	-1.806955e-10	-1.071417e+01	-1.298937e+01
2.580000e-06	-1.648340e-06	-4.037664e-10	-1.178174e+01	-2.765323e+01
2.590000e-06	-1.797139e-06	-6.317503e-10	-1.284530e+01	-4.257393e+01
2.600000e-06	-1.945296e-06	-8.631603e-10	-1.390427e+01	-5.762942e+01
2.610000e-06	-2.092680e-06	-1.095894e-09	-1.495772e+01	-7.268746e+01
2.620000e-06	-2.239219e-06	-1.326412e-09	-1.600513e+01	-8.761300e+01
2.630000e-06	-2.384952e-06	-1.551685e-09	-1.704678e+01	-1.022759e+02
2.640000e-06	-2.529861e-06	-1.771007e-09	-1.808253e+01	-1.165583e+02
2.650000e-06	-2.673752e-06	-1.984051e-09	-1.911101e+01	-1.303602e+02
2.660000e-06	-2.816540e-06	-2.188036e-09	-2.013161e+01	-1.436042e+02
2.670000e-06	-2.958226e-06	-2.380025e-09	-2.114433e+01	-1.562373e+02
2.680000e-06	-3.098725e-06	-2.561130e-09	-2.214857e+01	-1.682314e+02
2.690000e-06	-3.237983e-06	-2.731920e-09	-2.314393e+01	-1.795808e+02
2.700000e-06	-3.376002e-06	-2.892504e-09	-2.413044e+01	-1.902992e+02
2.710000e-06	-3.512786e-06	-3.044922e-09	-2.510813e+01	-2.004143e+02
2.720000e-06	-3.648233e-06	-3.191370e-09	-2.607625e+01	-2.099633e+02
2.730000e-06	-3.782337e-06	-3.329887e-09	-2.703478e+01	-2.189871e+02
2.740000e-06	-3.915092e-06	-3.462658e-09	-2.798366e+01	-2.275266e+02
2.750000e-06	-4.046429e-06	-3.591986e-09	-2.892241e+01	-2.356188e+02
2.760000e-06	-4.176411e-06	-3.712621e-09	-2.985147e+01	-2.432951e+02
2.770000e-06	-4.304999e-06	-3.824091e-09	-3.077058e+01	-2.505809e+02
2.780000e-06	-4.432020e-06	-3.927983e-09	-3.167847e+01	-2.574958e+02
2.790000e-06	-4.557531e-06	-4.025855e-09	-3.257558e+01	-2.640557e+02
2.800000e-06	-4.681537e-06	-4.117880e-09	-3.346193e+01	-2.702743e+02
2.810000e-06	-4.803870e-06	-4.204731e-09	-3.433632e+01	-2.761657e+02
2.820000e-06	-4.924488e-06	-4.288439e-09	-3.519846e+01	-2.817461e+02
2.830000e-06	-5.043200e-06	-4.369676e-09	-3.604697e+01	-2.870347e+02
2.840000e-06	-5.159862e-06	-4.448823e-09	-3.688083e+01	-2.920538e+02
2.850000e-06	-5.274454e-06	-4.525003e-09	-3.769989e+01	-2.968289e+02
2.860000e-06	-5.386920e-06	-4.597818e-09	-3.850375e+01	-3.013863e+02
2.870000e-06	-5.497275e-06	-4.666931e-09	-3.929253e+01	-3.057522e+02
2.880000e-06	-5.605666e-06	-4.731179e-09	-4.006727e+01	-3.099499e+02
2.890000e-06	-5.712234e-06	-4.791892e-09	-4.082898e+01	-3.139982e+02
2.900000e-06	-5.816797e-06	-4.850414e-09	-4.157636e+01	-3.179098e+02
2.910000e-06	-5.919156e-06	-4.908619e-09	-4.230799e+01	-3.216910e+02
2.920000e-06	-6.019261e-06	-4.966877e-09	-4.302350e+01	-3.253415e+02
2.930000e-06	-6.117240e-06	-5.023687e-09	-4.372382e+01	-3.288555e+02
2.940000e-06	-6.213073e-06	-5.077143e-09	-4.440880e+01	-3.322236e+02
