# Temperatura_=_46.92
# Concentracion g/m^3_=_5000.0
# C_Vs_to_Am_M_A/Vsm_=_65563218390.804596
# pendiente_HvsI_1/m_=_3716.3
# ordenada_HvsI_A/m_=_1297.0
# frecuencia_Hz_=_302503.94202588825

Tiempo_(s)	Campo_(V.s)	Magnetizacion_(V.s)	Campo_(kA/m)	Magnetizacion_(A/m)
0.000000e+00	-7.995498e-06	-5.930231e-09	-5.686138e+01	-3.887659e+02
1.000000e-08	-7.991058e-06	-5.927819e-09	-5.682981e+01	-3.885172e+02
2.000000e-08	-7.984028e-06	-5.921255e-09	-5.677981e+01	-3.882030e+02
3.000000e-08	-7.974290e-06	-5.919101e-09	-5.671055e+01	-3.878312e+02
4.000000e-08	-7.961668e-06	-5.915230e-09	-5.662079e+01	-3.874093e+02
5.000000e-08	-7.946008e-06	-5.906270e-09	-5.650942e+01	-3.869439e+02
6.000000e-08	-7.927654e-06	-5.896649e-09	-5.637889e+01	-3.864396e+02
7.000000e-08	-7.907072e-06	-5.884327e-09	-5.623252e+01	-3.858987e+02
8.000000e-08	-7.883909e-06	-5.904565e-09	-5.606779e+01	-3.853212e+02
9.000000e-08	-7.857621e-06	-5.953348e-09	-5.588084e+01	-3.847053e+02
1.000000e-07	-7.828150e-06	-5.903684e-09	-5.567126e+01	-3.840475e+02
1.100000e-07	-7.795806e-06	-5.845612e-09	-5.544123e+01	-3.833437e+02
1.200000e-07	-7.760735e-06	-5.839995e-09	-5.519182e+01	-3.825900e+02
1.300000e-07	-7.723074e-06	-5.838506e-09	-5.492399e+01	-3.817826e+02
1.400000e-07	-7.683265e-06	-5.795913e-09	-5.464088e+01	-3.809188e+02
1.500000e-07	-7.641277e-06	-5.745005e-09	-5.434228e+01	-3.799969e+02
1.600000e-07	-7.596650e-06	-5.833030e-09	-5.402490e+01	-3.790158e+02
1.700000e-07	-7.549335e-06	-5.736642e-09	-5.368841e+01	-3.779746e+02
1.800000e-07	-7.499180e-06	-5.707167e-09	-5.333172e+01	-3.768725e+02
1.900000e-07	-7.445968e-06	-5.780316e-09	-5.295330e+01	-3.757076e+02
2.000000e-07	-7.389986e-06	-5.687319e-09	-5.255517e+01	-3.744775e+02
2.100000e-07	-7.331349e-06	-5.694422e-09	-5.213816e+01	-3.731781e+02
2.200000e-07	-7.270006e-06	-5.660953e-09	-5.170192e+01	-3.718047e+02
2.300000e-07	-7.206026e-06	-5.646999e-09	-5.124691e+01	-3.703519e+02
2.400000e-07	-7.139290e-06	-5.627669e-09	-5.077230e+01	-3.688144e+02
2.500000e-07	-7.069847e-06	-5.572809e-09	-5.027845e+01	-3.671877e+02
2.600000e-07	-6.997676e-06	-5.562513e-09	-4.976520e+01	-3.654686e+02
2.700000e-07	-6.922680e-06	-5.531335e-09	-4.923185e+01	-3.636563e+02
2.800000e-07	-6.844880e-06	-5.508204e-09	-4.867856e+01	-3.617519e+02
2.900000e-07	-6.764226e-06	-5.462412e-09	-4.810497e+01	-3.597589e+02
3.000000e-07	-6.681109e-06	-5.468439e-09	-4.751387e+01	-3.576825e+02
3.100000e-07	-6.595834e-06	-5.446862e-09	-4.690742e+01	-3.555289e+02
3.200000e-07	-6.508273e-06	-5.362381e-09	-4.628472e+01	-3.533045e+02
3.300000e-07	-6.418356e-06	-5.348575e-09	-4.564526e+01	-3.510144e+02
3.400000e-07	-6.326066e-06	-5.325078e-09	-4.498892e+01	-3.486622e+02
3.500000e-07	-6.231534e-06	-5.283614e-09	-4.431664e+01	-3.462488e+02
3.600000e-07	-6.134693e-06	-5.236221e-09	-4.362794e+01	-3.437724e+02
3.700000e-07	-6.035535e-06	-5.211642e-09	-4.292276e+01	-3.412288e+02
3.800000e-07	-5.934301e-06	-5.177192e-09	-4.220282e+01	-3.386114e+02
3.900000e-07	-5.830943e-06	-5.115384e-09	-4.146777e+01	-3.359130e+02
4.000000e-07	-5.725451e-06	-5.075139e-09	-4.071755e+01	-3.331259e+02
4.100000e-07	-5.617951e-06	-5.037526e-09	-3.995304e+01	-3.302437e+02
4.200000e-07	-5.508498e-06	-4.999181e-09	-3.917465e+01	-3.272618e+02
4.300000e-07	-5.397150e-06	-4.935115e-09	-3.838277e+01	-3.241779e+02
4.400000e-07	-5.283732e-06	-4.890229e-09	-3.757618e+01	-3.209926e+02
4.500000e-07	-5.168146e-06	-4.847629e-09	-3.675417e+01	-3.177083e+02
4.600000e-07	-5.050608e-06	-4.788935e-09	-3.591828e+01	-3.143291e+02
4.700000e-07	-4.931282e-06	-4.728519e-09	-3.506967e+01	-3.108590e+02
4.800000e-07	-4.810132e-06	-4.680261e-09	-3.420809e+01	-3.073014e+02
4.900000e-07	-4.687230e-06	-4.635221e-09	-3.333405e+01	-3.036574e+02
5.000000e-07	-4.562647e-06	-4.574035e-09	-3.244806e+01	-2.999253e+02
5.100000e-07	-4.436418e-06	-4.514070e-09	-3.155036e+01	-2.960999e+02
5.200000e-07	-4.308563e-06	-4.449026e-09	-3.064110e+01	-2.921732e+02
5.300000e-07	-4.179070e-06	-4.382648e-09	-2.972019e+01	-2.881343e+02
5.400000e-07	-4.048068e-06	-4.312809e-09	-2.878854e+01	-2.839713e+02
5.500000e-07	-3.915539e-06	-4.248071e-09	-2.784604e+01	-2.796724e+02
5.600000e-07	-3.781566e-06	-4.182639e-09	-2.689327e+01	-2.752273e+02
5.700000e-07	-3.646234e-06	-4.111887e-09	-2.593083e+01	-2.706285e+02
5.800000e-07	-3.509398e-06	-4.041937e-09	-2.495769e+01	-2.658722e+02
5.900000e-07	-3.371126e-06	-3.967746e-09	-2.397435e+01	-2.609585e+02
6.000000e-07	-3.231527e-06	-3.892640e-09	-2.298157e+01	-2.558910e+02
6.100000e-07	-3.090492e-06	-3.812033e-09	-2.197857e+01	-2.506753e+02
6.200000e-07	-2.948047e-06	-3.733392e-09	-2.096555e+01	-2.453183e+02
6.300000e-07	-2.804444e-06	-3.650976e-09	-1.994429e+01	-2.398253e+02
6.400000e-07	-2.659886e-06	-3.564104e-09	-1.891624e+01	-2.341989e+02
6.500000e-07	-2.514417e-06	-3.476757e-09	-1.788171e+01	-2.284372e+02
6.600000e-07	-2.368082e-06	-3.382073e-09	-1.684103e+01	-2.225330e+02
6.700000e-07	-2.220986e-06	-3.284410e-09	-1.579493e+01	-2.164737e+02
6.800000e-07	-2.073169e-06	-3.187177e-09	-1.474370e+01	-2.102417e+02
6.900000e-07	-1.924666e-06	-3.094219e-09	-1.368760e+01	-2.038164e+02
7.000000e-07	-1.775591e-06	-2.996078e-09	-1.262743e+01	-1.971757e+02
7.100000e-07	-1.626006e-06	-2.890066e-09	-1.156362e+01	-1.902986e+02
7.200000e-07	-1.475918e-06	-2.781529e-09	-1.049625e+01	-1.831672e+02
7.300000e-07	-1.325319e-06	-2.668066e-09	-9.425234e+00	-1.757685e+02
7.400000e-07	-1.174225e-06	-2.548688e-09	-8.350707e+00	-1.680950e+02
7.500000e-07	-1.022735e-06	-2.429287e-09	-7.273361e+00	-1.601445e+02
7.600000e-07	-8.709219e-07	-2.309922e-09	-6.193713e+00	-1.519191e+02
7.700000e-07	-7.188371e-07	-2.180584e-09	-5.112135e+00	-1.434225e+02
7.800000e-07	-5.664731e-07	-2.043275e-09	-4.028573e+00	-1.346573e+02
7.900000e-07	-4.137716e-07	-1.903901e-09	-2.942609e+00	-1.256217e+02
8.000000e-07	-2.608588e-07	-1.760160e-09	-1.855143e+00	-1.163067e+02
8.100000e-07	-1.078891e-07	-1.608185e-09	-7.672720e-01	-1.066940e+02
8.200000e-07	4.516842e-08	-1.451575e-09	3.212231e-01	-9.675515e+01
8.300000e-07	1.983172e-07	-1.294150e-09	1.410367e+00	-8.645206e+01
8.400000e-07	3.514290e-07	-1.133548e-09	2.499249e+00	-7.573991e+01
8.500000e-07	5.044106e-07	-9.622171e-10	3.587204e+00	-6.457102e+01
8.600000e-07	6.572121e-07	-7.821985e-10	4.673879e+00	-5.290039e+01
8.700000e-07	8.097163e-07	-5.989229e-10	5.758439e+00	-4.069184e+01
8.800000e-07	9.619325e-07	-4.055075e-10	6.840951e+00	-2.792433e+01
8.900000e-07	1.113877e-06	-2.051223e-10	7.921534e+00	-1.459757e+01
9.000000e-07	1.265436e-06	2.179218e-12	8.999371e+00	-7.363274e-01
9.100000e-07	1.416512e-06	2.171004e-10	1.007377e+01	1.360734e+01
9.200000e-07	1.567069e-06	4.419549e-10	1.114448e+01	2.835407e+01
9.300000e-07	1.716985e-06	6.741537e-10	1.221064e+01	4.339978e+01
9.400000e-07	1.866271e-06	9.059121e-10	1.327231e+01	5.862048e+01
9.500000e-07	2.014976e-06	1.138979e-09	1.432985e+01	7.387908e+01
9.600000e-07	2.162936e-06	1.370238e-09	1.538210e+01	8.903339e+01
9.700000e-07	2.310093e-06	1.597069e-09	1.642863e+01	1.039446e+02
9.800000e-07	2.456445e-06	1.814853e-09	1.746943e+01	1.184856e+02
9.900000e-07	2.601936e-06	2.025662e-09	1.850412e+01	1.325475e+02
1.000000e-06	2.746433e-06	2.229978e-09	1.953174e+01	1.460453e+02
1.010000e-06	2.889861e-06	2.424982e-09	2.055175e+01	1.589204e+02
1.020000e-06	3.032141e-06	2.609596e-09	2.156360e+01	1.711412e+02
1.030000e-06	3.173175e-06	2.782855e-09	2.256659e+01	1.827012e+02
1.040000e-06	3.312944e-06	2.944870e-09	2.356058e+01	1.936153e+02
1.050000e-06	3.451398e-06	3.099599e-09	2.454522e+01	2.039145e+02
1.060000e-06	3.588491e-06	3.248854e-09	2.552018e+01	2.136405e+02
1.070000e-06	3.724242e-06	3.391439e-09	2.648560e+01	2.228393e+02
1.080000e-06	3.858613e-06	3.527136e-09	2.744120e+01	2.315563e+02
1.090000e-06	3.991592e-06	3.656555e-09	2.838691e+01	2.398326e+02
1.100000e-06	4.123218e-06	3.778641e-09	2.932298e+01	2.477025e+02
1.110000e-06	4.253408e-06	3.894299e-09	3.024885e+01	2.551925e+02
1.120000e-06	4.382086e-06	4.004415e-09	3.116397e+01	2.623220e+02
1.130000e-06	4.509224e-06	4.107027e-09	3.206813e+01	2.691051e+02
1.140000e-06	4.634840e-06	4.201849e-09	3.296147e+01	2.755530e+02
1.150000e-06	4.758868e-06	4.292108e-09	3.384352e+01	2.816767e+02
1.160000e-06	4.881200e-06	4.379415e-09	3.471350e+01	2.874890e+02
1.170000e-06	5.001766e-06	4.462604e-09	3.557093e+01	2.930063e+02
1.180000e-06	5.120532e-06	4.542515e-09	3.641555e+01	2.982494e+02
1.190000e-06	5.237399e-06	4.619361e-09	3.724667e+01	3.032425e+02
1.200000e-06	5.352239e-06	4.694366e-09	3.806338e+01	3.080126e+02
1.210000e-06	5.464960e-06	4.765359e-09	3.886501e+01	3.125871e+02
1.220000e-06	5.575644e-06	4.833524e-09	3.965216e+01	3.169914e+02
1.230000e-06	5.684460e-06	4.898328e-09	4.042603e+01	3.212472e+02
1.240000e-06	5.791277e-06	4.958795e-09	4.118568e+01	3.253700e+02
1.250000e-06	5.895874e-06	5.016077e-09	4.192953e+01	3.293687e+02
1.260000e-06	5.998255e-06	5.073363e-09	4.265763e+01	3.332449e+02
1.270000e-06	6.098459e-06	5.131699e-09	4.337026e+01	3.369939e+02
1.280000e-06	6.196386e-06	5.188556e-09	4.406668e+01	3.406065e+02
1.290000e-06	6.291959e-06	5.240951e-09	4.474637e+01	3.440705e+02
1.300000e-06	6.385284e-06	5.288975e-09	4.541006e+01	3.473738e+02
1.310000e-06	6.476393e-06	5.333998e-09	4.605800e+01	3.505065e+02
1.320000e-06	6.565186e-06	5.376527e-09	4.668947e+01	3.534622e+02
1.330000e-06	6.651652e-06	5.417878e-09	4.730438e+01	3.562402e+02
1.340000e-06	6.735802e-06	5.457943e-09	4.790283e+01	3.588448e+02
1.350000e-06	6.817549e-06	5.494484e-09	4.848419e+01	3.612857e+02
1.360000e-06	6.896792e-06	5.529051e-09	4.904774e+01	3.635762e+02
1.370000e-06	6.973456e-06	5.564205e-09	4.959295e+01	3.657319e+02
1.380000e-06	7.047469e-06	5.597289e-09	5.011931e+01	3.677686e+02
1.390000e-06	7.118916e-06	5.625850e-09	5.062741e+01	3.697003e+02
1.400000e-06	7.187891e-06	5.652276e-09	5.111794e+01	3.715380e+02
1.410000e-06	7.254311e-06	5.677366e-09	5.159030e+01	3.732887e+02
1.420000e-06	7.318117e-06	5.701369e-09	5.204407e+01	3.749549e+02
1.430000e-06	7.379397e-06	5.726930e-09	5.247987e+01	3.765355e+02
1.440000e-06	7.438132e-06	5.751762e-09	5.289757e+01	3.780264e+02
1.450000e-06	7.494262e-06	5.772024e-09	5.329675e+01	3.794220e+02
1.460000e-06	7.547601e-06	5.788709e-09	5.367608e+01	3.807169e+02
1.470000e-06	7.597815e-06	5.804404e-09	5.403319e+01	3.819072e+02
1.480000e-06	7.645029e-06	5.821327e-09	5.436896e+01	3.829915e+02
1.490000e-06	7.689598e-06	5.838023e-09	5.468591e+01	3.839719e+02
1.500000e-06	7.731455e-06	5.853734e-09	5.498359e+01	3.848533e+02
1.510000e-06	7.770502e-06	5.867274e-09	5.526128e+01	3.856436e+02
1.520000e-06	7.806942e-06	5.877257e-09	5.552043e+01	3.863521e+02
1.530000e-06	7.840636e-06	5.886745e-09	5.576005e+01	3.869887e+02
1.540000e-06	7.871427e-06	5.896270e-09	5.597902e+01	3.875622e+02
1.550000e-06	7.899452e-06	5.905967e-09	5.617833e+01	3.880793e+02
1.560000e-06	7.924566e-06	5.914376e-09	5.635693e+01	3.885440e+02
1.570000e-06	7.946785e-06	5.920602e-09	5.651494e+01	3.889569e+02
1.580000e-06	7.966312e-06	5.925794e-09	5.665382e+01	3.893155e+02
1.590000e-06	7.982937e-06	5.930255e-09	5.677205e+01	3.896152e+02
1.600000e-06	7.996507e-06	5.934239e-09	5.686855e+01	3.898496e+02
1.610000e-06	8.006997e-06	5.937760e-09	5.694316e+01	3.900125e+02
1.620000e-06	8.014431e-06	5.939440e-09	5.699602e+01	3.900984e+02
1.630000e-06	8.019030e-06	5.938632e-09	5.702873e+01	3.901039e+02
1.640000e-06	8.020826e-06	5.939081e-09	5.704150e+01	3.900282e+02
1.650000e-06	8.019808e-06	5.940935e-09	5.703426e+01	3.898735e+02
1.660000e-06	8.016201e-06	5.932601e-09	5.700861e+01	3.896445e+02
1.670000e-06	8.009887e-06	5.928133e-09	5.696371e+01	3.893477e+02
1.680000e-06	8.000803e-06	5.923591e-09	5.689910e+01	3.889910e+02
1.690000e-06	7.988969e-06	5.918256e-09	5.681495e+01	3.885822e+02
1.700000e-06	7.974286e-06	5.914871e-09	5.671052e+01	3.881282e+02
1.710000e-06	7.957071e-06	5.910947e-09	5.658810e+01	3.876341e+02
1.720000e-06	7.937622e-06	5.904417e-09	5.644978e+01	3.871031e+02
1.730000e-06	7.915637e-06	5.825338e-09	5.629344e+01	3.865357e+02
1.740000e-06	7.890429e-06	5.786702e-09	5.611416e+01	3.859305e+02
1.750000e-06	7.861570e-06	5.847142e-09	5.590893e+01	3.852846e+02
1.760000e-06	7.829386e-06	5.852523e-09	5.568005e+01	3.845939e+02
1.770000e-06	7.794650e-06	5.818590e-09	5.543301e+01	3.838543e+02
1.780000e-06	7.757576e-06	5.847447e-09	5.516936e+01	3.830621e+02
1.790000e-06	7.718260e-06	5.890616e-09	5.488975e+01	3.822142e+02
1.800000e-06	7.676899e-06	5.733514e-09	5.459561e+01	3.813085e+02
1.810000e-06	7.633119e-06	5.791484e-09	5.428426e+01	3.803439e+02
1.820000e-06	7.586669e-06	5.828339e-09	5.395392e+01	3.793195e+02
1.830000e-06	7.537473e-06	5.735166e-09	5.360406e+01	3.782343e+02
1.840000e-06	7.485203e-06	5.812052e-09	5.323233e+01	3.770871e+02
1.850000e-06	7.429986e-06	5.694058e-09	5.283964e+01	3.758755e+02
1.860000e-06	7.372077e-06	5.741654e-09	5.242781e+01	3.745958e+02
1.870000e-06	7.311561e-06	5.703385e-09	5.199744e+01	3.732436e+02
1.880000e-06	7.248302e-06	5.632927e-09	5.154756e+01	3.718136e+02
1.890000e-06	7.182190e-06	5.709155e-09	5.107740e+01	3.703003e+02
1.900000e-06	7.113366e-06	5.609470e-09	5.058795e+01	3.686990e+02
1.910000e-06	7.041672e-06	5.620989e-09	5.007808e+01	3.670060e+02
1.920000e-06	6.967296e-06	5.566831e-09	4.954914e+01	3.652197e+02
1.930000e-06	6.890225e-06	5.563779e-09	4.900104e+01	3.633409e+02
1.940000e-06	6.810364e-06	5.522538e-09	4.843309e+01	3.613722e+02
1.950000e-06	6.728080e-06	5.441269e-09	4.784792e+01	3.593185e+02
1.960000e-06	6.643334e-06	5.491453e-09	4.724523e+01	3.571859e+02
1.970000e-06	6.556025e-06	5.410583e-09	4.662432e+01	3.549806e+02
1.980000e-06	6.466355e-06	5.392679e-09	4.598661e+01	3.527083e+02
1.990000e-06	6.374535e-06	5.346797e-09	4.533362e+01	3.503732e+02
2.000000e-06	6.280453e-06	5.319994e-09	4.466454e+01	3.479768e+02
2.010000e-06	6.184068e-06	5.267938e-09	4.397908e+01	3.455182e+02
2.020000e-06	6.085509e-06	5.213725e-09	4.327816e+01	3.429939e+02
2.030000e-06	5.984723e-06	5.208846e-09	4.256140e+01	3.403978e+02
2.040000e-06	5.881716e-06	5.162017e-09	4.182885e+01	3.377229e+02
2.050000e-06	5.776670e-06	5.119393e-09	4.108179e+01	3.349613e+02
2.060000e-06	5.669726e-06	5.048413e-09	4.032124e+01	3.321064e+02
2.070000e-06	5.560861e-06	5.025510e-09	3.954703e+01	3.291527e+02
2.080000e-06	5.450048e-06	4.973187e-09	3.875897e+01	3.260976e+02
2.090000e-06	5.337168e-06	4.928742e-09	3.795620e+01	3.229406e+02
2.100000e-06	5.222183e-06	4.885876e-09	3.713847e+01	3.196837e+02
2.110000e-06	5.105162e-06	4.844241e-09	3.630625e+01	3.163307e+02
2.120000e-06	4.986144e-06	4.782636e-09	3.545983e+01	3.128857e+02
2.130000e-06	4.865259e-06	4.714768e-09	3.460014e+01	3.093523e+02
2.140000e-06	4.742711e-06	4.664780e-09	3.372861e+01	3.057326e+02
2.150000e-06	4.618432e-06	4.608642e-09	3.284478e+01	3.020255e+02
2.160000e-06	4.492382e-06	4.556924e-09	3.194836e+01	2.982270e+02
2.170000e-06	4.364692e-06	4.496664e-09	3.104027e+01	2.943297e+02
2.180000e-06	4.235430e-06	4.445803e-09	3.012100e+01	2.903235e+02
2.190000e-06	4.104718e-06	4.379265e-09	2.919142e+01	2.861967e+02
2.200000e-06	3.972435e-06	4.312253e-09	2.825066e+01	2.819373e+02
2.210000e-06	3.838604e-06	4.237828e-09	2.729890e+01	2.775344e+02
2.220000e-06	3.703297e-06	4.169431e-09	2.633664e+01	2.729796e+02
2.230000e-06	3.566607e-06	4.097215e-09	2.536455e+01	2.682679e+02
2.240000e-06	3.428604e-06	4.024859e-09	2.438312e+01	2.633985e+02
2.250000e-06	3.289293e-06	3.951011e-09	2.339238e+01	2.583739e+02
2.260000e-06	3.148670e-06	3.871189e-09	2.239232e+01	2.531994e+02
2.270000e-06	3.006751e-06	3.788017e-09	2.138303e+01	2.478816e+02
2.280000e-06	2.863659e-06	3.702170e-09	2.036541e+01	2.424265e+02
2.290000e-06	2.719479e-06	3.620851e-09	1.934005e+01	2.368377e+02
2.300000e-06	2.574382e-06	3.535291e-09	1.830817e+01	2.311146e+02
2.310000e-06	2.428465e-06	3.449373e-09	1.727046e+01	2.252517e+02
2.320000e-06	2.281785e-06	3.357006e-09	1.622731e+01	2.192378e+02
2.330000e-06	2.134344e-06	3.258635e-09	1.517876e+01	2.130567e+02
2.340000e-06	1.986110e-06	3.157533e-09	1.412456e+01	2.066883e+02
2.350000e-06	1.837165e-06	3.057801e-09	1.306532e+01	2.001109e+02
2.360000e-06	1.687584e-06	2.955696e-09	1.200155e+01	1.933028e+02
2.370000e-06	1.537485e-06	2.846754e-09	1.093409e+01	1.862452e+02
2.380000e-06	1.386920e-06	2.734950e-09	9.863323e+00	1.789234e+02
2.390000e-06	1.235850e-06	2.619113e-09	8.788963e+00	1.713283e+02
2.400000e-06	1.084351e-06	2.497880e-09	7.711553e+00	1.634564e+02
2.410000e-06	9.324979e-07	2.374249e-09	6.631621e+00	1.553087e+02
2.420000e-06	7.803269e-07	2.249226e-09	5.549431e+00	1.468887e+02
2.430000e-06	6.279034e-07	2.120368e-09	4.465445e+00	1.381996e+02
2.440000e-06	4.752968e-07	1.985450e-09	3.380156e+00	1.292413e+02
2.450000e-06	3.225438e-07	1.846340e-09	2.293826e+00	1.200071e+02
2.460000e-06	1.697026e-07	1.702711e-09	1.206870e+00	1.104815e+02
2.470000e-06	1.680075e-08	1.551019e-09	1.194815e-01	1.006388e+02
2.480000e-06	-1.361201e-07	1.393277e-09	-9.680420e-01	9.044361e+01
2.490000e-06	-2.890307e-07	1.232470e-09	-2.055492e+00	7.985266e+01
2.500000e-06	-4.418962e-07	1.065359e-09	-3.142622e+00	6.881860e+01
2.510000e-06	-5.945967e-07	8.885094e-10	-4.228578e+00	5.729502e+01
2.520000e-06	-7.471556e-07	7.026506e-10	-5.313528e+00	4.524258e+01
2.530000e-06	-8.995531e-07	5.113651e-10	-6.397329e+00	3.263530e+01
2.540000e-06	-1.051697e-06	3.129917e-10	-7.479329e+00	1.946646e+01
2.550000e-06	-1.203489e-06	1.043150e-10	-8.558821e+00	5.753325e+00
2.560000e-06	-1.354770e-06	-1.133676e-10	-9.634682e+00	-8.459935e+00
2.570000e-06	-1.505464e-06	-3.367329e-10	-1.070637e+01	-2.310162e+01
2.580000e-06	-1.655588e-06	-5.642436e-10	-1.177400e+01	-3.807430e+01
2.590000e-06	-1.805169e-06	-7.969957e-10	-1.283777e+01	-5.325906e+01
2.600000e-06	-1.954094e-06	-1.032881e-09	-1.389688e+01	-6.852178e+01
2.610000e-06	-2.102172e-06	-1.269033e-09	-1.494996e+01	-8.372085e+01
2.620000e-06	-2.249421e-06	-1.502159e-09	-1.599715e+01	-9.871568e+01
2.630000e-06	-2.395884e-06	-1.728196e-09	-1.703875e+01	-1.133750e+02
2.640000e-06	-2.541465e-06	-1.946217e-09	-1.807407e+01	-1.275841e+02
2.650000e-06	-2.686173e-06	-2.156662e-09	-1.910319e+01	-1.412507e+02
2.660000e-06	-2.829835e-06	-2.357353e-09	-2.012487e+01	-1.543086e+02
2.670000e-06	-2.972320e-06	-2.545034e-09	-2.113817e+01	-1.667185e+02
2.680000e-06	-3.113601e-06	-2.721116e-09	-2.214292e+01	-1.784671e+02
2.690000e-06	-3.253663e-06	-2.887323e-09	-2.313899e+01	-1.895637e+02
2.700000e-06	-3.392482e-06	-3.045437e-09	-2.412623e+01	-2.000352e+02
2.710000e-06	-3.529959e-06	-3.198568e-09	-2.510392e+01	-2.099209e+02
2.720000e-06	-3.666114e-06	-3.345559e-09	-2.607221e+01	-2.192660e+02
2.730000e-06	-3.800940e-06	-3.482057e-09	-2.703104e+01	-2.281167e+02
2.740000e-06	-3.934373e-06	-3.609992e-09	-2.797998e+01	-2.365157e+02
2.750000e-06	-4.066379e-06	-3.732321e-09	-2.891876e+01	-2.444992e+02
2.760000e-06	-4.196953e-06	-3.849178e-09	-2.984736e+01	-2.520959e+02
2.770000e-06	-4.326122e-06	-3.959110e-09	-3.076597e+01	-2.593273e+02
2.780000e-06	-4.453851e-06	-4.062338e-09	-3.167434e+01	-2.662086e+02
2.790000e-06	-4.580058e-06	-4.160256e-09	-3.257188e+01	-2.727517e+02
2.800000e-06	-4.704702e-06	-4.252971e-09	-3.345831e+01	-2.789673e+02
2.810000e-06	-4.827669e-06	-4.342380e-09	-3.433281e+01	-2.848676e+02
2.820000e-06	-4.948917e-06	-4.427551e-09	-3.519508e+01	-2.904678e+02
2.830000e-06	-5.068370e-06	-4.509450e-09	-3.604460e+01	-2.957874e+02
2.840000e-06	-5.185813e-06	-4.586843e-09	-3.687981e+01	-3.008498e+02
2.850000e-06	-5.301090e-06	-4.659882e-09	-3.769963e+01	-3.056813e+02
2.860000e-06	-5.414121e-06	-4.733663e-09	-3.850347e+01	-3.103094e+02
2.870000e-06	-5.525031e-06	-4.805919e-09	-3.929222e+01	-3.147604e+02
2.880000e-06	-5.633952e-06	-4.871858e-09	-4.006683e+01	-3.190573e+02
2.890000e-06	-5.740975e-06	-4.933339e-09	-4.082794e+01	-3.232174e+02
2.900000e-06	-5.846066e-06	-4.994588e-09	-4.157532e+01	-3.272516e+02
2.910000e-06	-5.948977e-06	-5.056953e-09	-4.230719e+01	-3.311635e+02
2.920000e-06	-6.049598e-06	-5.116966e-09	-4.302277e+01	-3.349501e+02
2.930000e-06	-6.148015e-06	-5.172951e-09	-4.372268e+01	-3.386033e+02
2.940000e-06	-6.244274e-06	-5.227121e-09	-4.440724e+01	-3.421115e+02
