# Temperatura_=_47.1
# Concentracion g/m^3_=_5000.0
# C_Vs_to_Am_M_A/Vsm_=_65563218390.804596
# pendiente_HvsI_1/m_=_3716.3
# ordenada_HvsI_A/m_=_1297.0
# frecuencia_Hz_=_302504.9534065006

Tiempo_(s)	Campo_(V.s)	Magnetizacion_(V.s)	Campo_(kA/m)	Magnetizacion_(A/m)
0.000000e+00	-7.919520e-06	-5.912350e-09	-5.686371e+01	-3.870493e+02
1.000000e-08	-7.915023e-06	-5.909065e-09	-5.683143e+01	-3.868169e+02
2.000000e-08	-7.907987e-06	-5.901475e-09	-5.678091e+01	-3.865202e+02
3.000000e-08	-7.898354e-06	-5.897974e-09	-5.671174e+01	-3.861689e+02
4.000000e-08	-7.885846e-06	-5.895362e-09	-5.662193e+01	-3.857730e+02
5.000000e-08	-7.870352e-06	-5.889426e-09	-5.651068e+01	-3.853406e+02
6.000000e-08	-7.852197e-06	-5.881319e-09	-5.638032e+01	-3.848772e+02
7.000000e-08	-7.831772e-06	-5.868936e-09	-5.623367e+01	-3.843851e+02
8.000000e-08	-7.808790e-06	-5.880865e-09	-5.606865e+01	-3.838628e+02
9.000000e-08	-7.782637e-06	-5.918357e-09	-5.588087e+01	-3.833057e+02
1.000000e-07	-7.753272e-06	-5.886336e-09	-5.567002e+01	-3.827066e+02
1.100000e-07	-7.721066e-06	-5.835803e-09	-5.543878e+01	-3.820570e+02
1.200000e-07	-7.686171e-06	-5.818058e-09	-5.518823e+01	-3.813478e+02
1.300000e-07	-7.648793e-06	-5.804198e-09	-5.491984e+01	-3.805708e+02
1.400000e-07	-7.609369e-06	-5.766494e-09	-5.463677e+01	-3.797198e+02
1.500000e-07	-7.567806e-06	-5.747341e-09	-5.433834e+01	-3.787906e+02
1.600000e-07	-7.523541e-06	-5.815048e-09	-5.402051e+01	-3.777817e+02
1.700000e-07	-7.476533e-06	-5.742567e-09	-5.368298e+01	-3.766940e+02
1.800000e-07	-7.426779e-06	-5.707897e-09	-5.332574e+01	-3.755298e+02
1.900000e-07	-7.374036e-06	-5.736356e-09	-5.294703e+01	-3.742928e+02
2.000000e-07	-7.318495e-06	-5.659227e-09	-5.254823e+01	-3.729864e+02
2.100000e-07	-7.260251e-06	-5.669897e-09	-5.213003e+01	-3.716139e+02
2.200000e-07	-7.199349e-06	-5.657611e-09	-5.169274e+01	-3.701769e+02
2.300000e-07	-7.135847e-06	-5.625312e-09	-5.123679e+01	-3.686757e+02
2.400000e-07	-7.069558e-06	-5.594329e-09	-5.076082e+01	-3.671094e+02
2.500000e-07	-7.000584e-06	-5.560102e-09	-5.026557e+01	-3.654755e+02
2.600000e-07	-6.929014e-06	-5.552134e-09	-4.975169e+01	-3.637711e+02
2.700000e-07	-6.854665e-06	-5.519085e-09	-4.921784e+01	-3.619933e+02
2.800000e-07	-6.777511e-06	-5.498605e-09	-4.866386e+01	-3.601395e+02
2.900000e-07	-6.697639e-06	-5.458949e-09	-4.809037e+01	-3.582081e+02
3.000000e-07	-6.615224e-06	-5.439697e-09	-4.749861e+01	-3.561985e+02
3.100000e-07	-6.530553e-06	-5.416214e-09	-4.689066e+01	-3.541113e+02
3.200000e-07	-6.443611e-06	-5.357376e-09	-4.626640e+01	-3.519474e+02
3.300000e-07	-6.354367e-06	-5.333325e-09	-4.562561e+01	-3.497084e+02
3.400000e-07	-6.262908e-06	-5.298987e-09	-4.496891e+01	-3.473953e+02
3.500000e-07	-6.169232e-06	-5.262860e-09	-4.429630e+01	-3.450082e+02
3.600000e-07	-6.073298e-06	-5.226395e-09	-4.360748e+01	-3.425462e+02
3.700000e-07	-5.975053e-06	-5.198211e-09	-4.290206e+01	-3.400071e+02
3.800000e-07	-5.874591e-06	-5.162190e-09	-4.218073e+01	-3.373874e+02
3.900000e-07	-5.772037e-06	-5.105294e-09	-4.144436e+01	-3.346830e+02
4.000000e-07	-5.667523e-06	-5.056215e-09	-4.069393e+01	-3.318894e+02
4.100000e-07	-5.561043e-06	-5.010511e-09	-3.992939e+01	-3.290029e+02
4.200000e-07	-5.452525e-06	-4.977110e-09	-3.915020e+01	-3.260204e+02
4.300000e-07	-5.342052e-06	-4.927949e-09	-3.835699e+01	-3.229404e+02
4.400000e-07	-5.229615e-06	-4.877132e-09	-3.754967e+01	-3.197628e+02
4.500000e-07	-5.115104e-06	-4.826788e-09	-3.672745e+01	-3.164891e+02
4.600000e-07	-4.998605e-06	-4.771948e-09	-3.589097e+01	-3.131213e+02
4.700000e-07	-4.880307e-06	-4.715915e-09	-3.504156e+01	-3.096617e+02
4.800000e-07	-4.760262e-06	-4.666277e-09	-3.417962e+01	-3.061118e+02
4.900000e-07	-4.638458e-06	-4.619720e-09	-3.330504e+01	-3.024715e+02
5.000000e-07	-4.514941e-06	-4.558761e-09	-3.241817e+01	-2.987384e+02
5.100000e-07	-4.389819e-06	-4.494295e-09	-3.151976e+01	-2.949079e+02
5.200000e-07	-4.263081e-06	-4.431720e-09	-3.060976e+01	-2.909728e+02
5.300000e-07	-4.134845e-06	-4.368062e-09	-2.968900e+01	-2.869241e+02
5.400000e-07	-4.005120e-06	-4.295364e-09	-2.875755e+01	-2.827521e+02
5.500000e-07	-3.873823e-06	-4.225437e-09	-2.781481e+01	-2.784469e+02
5.600000e-07	-3.740992e-06	-4.161067e-09	-2.686106e+01	-2.740003e+02
5.700000e-07	-3.606747e-06	-4.094650e-09	-2.589716e+01	-2.694064e+02
5.800000e-07	-3.471218e-06	-4.023907e-09	-2.492403e+01	-2.646624e+02
5.900000e-07	-3.334377e-06	-3.949696e-09	-2.394149e+01	-2.597686e+02
6.000000e-07	-3.196167e-06	-3.872818e-09	-2.294911e+01	-2.547285e+02
6.100000e-07	-3.056602e-06	-3.788931e-09	-2.194700e+01	-2.495471e+02
6.200000e-07	-2.915762e-06	-3.707143e-09	-2.093574e+01	-2.442301e+02
6.300000e-07	-2.773777e-06	-3.626874e-09	-1.991627e+01	-2.387823e+02
6.400000e-07	-2.630735e-06	-3.542466e-09	-1.888919e+01	-2.332054e+02
6.500000e-07	-2.486617e-06	-3.453361e-09	-1.785440e+01	-2.274971e+02
6.600000e-07	-2.341553e-06	-3.358952e-09	-1.681282e+01	-2.216501e+02
6.700000e-07	-2.195647e-06	-3.265558e-09	-1.576518e+01	-2.156520e+02
6.800000e-07	-2.048932e-06	-3.173241e-09	-1.471173e+01	-2.094855e+02
6.900000e-07	-1.901548e-06	-3.080219e-09	-1.365349e+01	-2.031305e+02
7.000000e-07	-1.753667e-06	-2.980980e-09	-1.259168e+01	-1.965649e+02
7.100000e-07	-1.605342e-06	-2.873868e-09	-1.152667e+01	-1.897677e+02
7.200000e-07	-1.456547e-06	-2.765451e-09	-1.045830e+01	-1.827203e+02
7.300000e-07	-1.307296e-06	-2.654275e-09	-9.386643e+00	-1.754086e+02
7.400000e-07	-1.157600e-06	-2.536679e-09	-8.311796e+00	-1.678236e+02
7.500000e-07	-1.007464e-06	-2.416106e-09	-7.233790e+00	-1.599614e+02
7.600000e-07	-8.569916e-07	-2.294934e-09	-6.153369e+00	-1.518225e+02
7.700000e-07	-7.062634e-07	-2.170658e-09	-5.071111e+00	-1.434091e+02
7.800000e-07	-5.552760e-07	-2.041873e-09	-3.986991e+00	-1.347233e+02
7.900000e-07	-4.040960e-07	-1.906550e-09	-2.901489e+00	-1.257634e+02
8.000000e-07	-2.528161e-07	-1.761731e-09	-1.815269e+00	-1.165213e+02
8.100000e-07	-1.014427e-07	-1.607143e-09	-7.283785e-01	-1.069806e+02
8.200000e-07	5.003229e-08	-1.449678e-09	3.592417e-01	-9.711538e+01
8.300000e-07	2.015430e-07	-1.291937e-09	1.447119e+00	-8.689083e+01
8.400000e-07	3.530502e-07	-1.132121e-09	2.534970e+00	-7.626523e+01
8.500000e-07	5.044457e-07	-9.631577e-10	3.622020e+00	-6.519375e+01
8.600000e-07	6.556575e-07	-7.856799e-10	4.707750e+00	-5.363350e+01
8.700000e-07	8.066564e-07	-6.063155e-10	5.791952e+00	-4.154933e+01
8.800000e-07	9.574158e-07	-4.215783e-10	6.874434e+00	-2.891992e+01
8.900000e-07	1.107912e-06	-2.285433e-10	7.955027e+00	-1.574335e+01
9.000000e-07	1.258021e-06	-2.014780e-11	9.032839e+00	-2.041400e+00
9.100000e-07	1.407700e-06	2.000677e-10	1.010757e+01	1.213787e+01
9.200000e-07	1.556926e-06	4.267401e-10	1.117904e+01	2.671984e+01
9.300000e-07	1.705645e-06	6.570120e-10	1.224686e+01	4.160539e+01
9.400000e-07	1.853759e-06	8.859456e-10	1.331036e+01	5.667533e+01
9.500000e-07	2.001216e-06	1.115387e-09	1.436913e+01	7.179672e+01
9.600000e-07	2.147997e-06	1.342387e-09	1.542304e+01	8.683059e+01
9.700000e-07	2.293890e-06	1.563718e-09	1.647058e+01	1.016402e+02
9.800000e-07	2.438788e-06	1.777288e-09	1.751098e+01	1.160993e+02
9.900000e-07	2.582835e-06	1.986401e-09	1.854527e+01	1.300988e+02
1.000000e-06	2.725874e-06	2.192868e-09	1.957232e+01	1.435525e+02
1.010000e-06	2.867767e-06	2.391328e-09	2.059114e+01	1.564000e+02
1.020000e-06	3.008597e-06	2.577143e-09	2.160232e+01	1.686076e+02
1.030000e-06	3.148185e-06	2.749513e-09	2.260459e+01	1.801669e+02
1.040000e-06	3.286425e-06	2.911386e-09	2.359718e+01	1.910909e+02
1.050000e-06	3.423376e-06	3.066306e-09	2.458052e+01	2.014093e+02
1.060000e-06	3.559056e-06	3.213996e-09	2.555473e+01	2.111627e+02
1.070000e-06	3.693435e-06	3.355560e-09	2.651959e+01	2.203965e+02
1.080000e-06	3.826556e-06	3.489265e-09	2.747543e+01	2.291558e+02
1.090000e-06	3.958276e-06	3.615918e-09	2.842120e+01	2.374811e+02
1.100000e-06	4.088453e-06	3.737527e-09	2.935590e+01	2.454060e+02
1.110000e-06	4.217207e-06	3.855788e-09	3.028038e+01	2.529558e+02
1.120000e-06	4.344582e-06	3.970403e-09	3.119495e+01	2.601484e+02
1.130000e-06	4.470534e-06	4.076182e-09	3.209931e+01	2.669956e+02
1.140000e-06	4.594960e-06	4.172237e-09	3.299272e+01	2.735063e+02
1.150000e-06	4.717724e-06	4.261486e-09	3.387419e+01	2.796886e+02
1.160000e-06	4.838763e-06	4.347341e-09	3.474327e+01	2.855529e+02
1.170000e-06	4.958087e-06	4.430705e-09	3.560004e+01	2.911134e+02
1.180000e-06	5.075641e-06	4.510827e-09	3.644410e+01	2.963894e+02
1.190000e-06	5.191234e-06	4.587905e-09	3.727409e+01	3.014046e+02
1.200000e-06	5.304768e-06	4.663574e-09	3.808928e+01	3.061864e+02
1.210000e-06	5.416323e-06	4.736439e-09	3.889027e+01	3.107635e+02
1.220000e-06	5.525992e-06	4.805091e-09	3.967771e+01	3.151636e+02
1.230000e-06	5.633746e-06	4.869935e-09	4.045141e+01	3.194110e+02
1.240000e-06	5.739431e-06	4.931791e-09	4.121025e+01	3.235243e+02
1.250000e-06	5.842989e-06	4.989917e-09	4.195381e+01	3.275149e+02
1.260000e-06	5.944376e-06	5.045336e-09	4.268179e+01	3.313868e+02
1.270000e-06	6.043571e-06	5.099462e-09	4.339403e+01	3.351369e+02
1.280000e-06	6.140503e-06	5.153404e-09	4.409002e+01	3.387562e+02
1.290000e-06	6.235141e-06	5.205969e-09	4.476954e+01	3.422324e+02
1.300000e-06	6.327551e-06	5.256200e-09	4.543306e+01	3.455520e+02
1.310000e-06	6.417762e-06	5.303451e-09	4.608079e+01	3.487030e+02
1.320000e-06	6.505705e-06	5.347035e-09	4.671224e+01	3.516768e+02
1.330000e-06	6.591320e-06	5.387309e-09	4.732698e+01	3.544703e+02
1.340000e-06	6.674640e-06	5.426473e-09	4.792523e+01	3.570858e+02
1.350000e-06	6.755530e-06	5.464188e-09	4.850604e+01	3.595314e+02
1.360000e-06	6.833931e-06	5.498673e-09	4.906897e+01	3.618199e+02
1.370000e-06	6.909796e-06	5.530988e-09	4.961370e+01	3.639669e+02
1.380000e-06	6.983002e-06	5.561563e-09	5.013933e+01	3.659889e+02
1.390000e-06	7.053663e-06	5.591088e-09	5.064669e+01	3.679014e+02
1.400000e-06	7.121907e-06	5.619725e-09	5.113670e+01	3.697172e+02
1.410000e-06	7.187596e-06	5.647811e-09	5.160836e+01	3.714451e+02
1.420000e-06	7.250733e-06	5.674807e-09	5.206169e+01	3.730893e+02
1.430000e-06	7.311466e-06	5.698497e-09	5.249776e+01	3.746499e+02
1.440000e-06	7.369624e-06	5.720309e-09	5.291535e+01	3.761237e+02
1.450000e-06	7.425102e-06	5.739973e-09	5.331370e+01	3.775054e+02
1.460000e-06	7.477742e-06	5.757139e-09	5.369166e+01	3.787896e+02
1.470000e-06	7.527233e-06	5.772095e-09	5.404702e+01	3.799719e+02
1.480000e-06	7.573852e-06	5.785743e-09	5.438175e+01	3.810504e+02
1.490000e-06	7.617970e-06	5.799478e-09	5.469853e+01	3.820265e+02
1.500000e-06	7.659346e-06	5.813521e-09	5.499561e+01	3.829051e+02
1.510000e-06	7.697912e-06	5.829953e-09	5.527253e+01	3.836937e+02
1.520000e-06	7.733887e-06	5.845200e-09	5.553083e+01	3.844023e+02
1.530000e-06	7.767077e-06	5.857783e-09	5.576915e+01	3.850410e+02
1.540000e-06	7.797463e-06	5.868411e-09	5.598732e+01	3.856196e+02
1.550000e-06	7.825221e-06	5.875878e-09	5.618663e+01	3.861453e+02
1.560000e-06	7.850041e-06	5.882728e-09	5.636485e+01	3.866225e+02
1.570000e-06	7.871984e-06	5.888825e-09	5.652240e+01	3.870519e+02
1.580000e-06	7.891247e-06	5.891960e-09	5.666071e+01	3.874307e+02
1.590000e-06	7.907569e-06	5.893413e-09	5.677790e+01	3.877533e+02
1.600000e-06	7.920873e-06	5.896651e-09	5.687343e+01	3.880123e+02
1.610000e-06	7.931076e-06	5.902563e-09	5.694669e+01	3.882001e+02
1.620000e-06	7.938268e-06	5.907523e-09	5.699833e+01	3.883099e+02
1.630000e-06	7.942689e-06	5.910480e-09	5.703008e+01	3.883373e+02
1.640000e-06	7.944280e-06	5.912458e-09	5.704150e+01	3.882813e+02
1.650000e-06	7.943126e-06	5.911652e-09	5.703321e+01	3.881442e+02
1.660000e-06	7.939395e-06	5.903054e-09	5.700642e+01	3.879315e+02
1.670000e-06	7.932987e-06	5.897019e-09	5.696041e+01	3.876517e+02
1.680000e-06	7.923909e-06	5.892767e-09	5.689523e+01	3.873145e+02
1.690000e-06	7.912166e-06	5.886790e-09	5.681091e+01	3.869300e+02
1.700000e-06	7.897654e-06	5.882456e-09	5.670671e+01	3.865069e+02
1.710000e-06	7.880592e-06	5.881239e-09	5.658420e+01	3.860515e+02
1.720000e-06	7.861260e-06	5.876864e-09	5.644540e+01	3.855671e+02
1.730000e-06	7.839430e-06	5.821582e-09	5.628865e+01	3.850533e+02
1.740000e-06	7.814407e-06	5.785406e-09	5.610898e+01	3.845063e+02
1.750000e-06	7.785719e-06	5.819357e-09	5.590300e+01	3.839196e+02
1.760000e-06	7.753684e-06	5.822761e-09	5.567298e+01	3.832849e+02
1.770000e-06	7.719162e-06	5.802722e-09	5.542511e+01	3.825931e+02
1.780000e-06	7.682363e-06	5.828717e-09	5.516088e+01	3.818358e+02
1.790000e-06	7.643325e-06	5.844910e-09	5.488058e+01	3.810060e+02
1.800000e-06	7.602274e-06	5.740657e-09	5.458583e+01	3.800990e+02
1.810000e-06	7.558781e-06	5.766950e-09	5.427354e+01	3.791124e+02
1.820000e-06	7.512652e-06	5.777991e-09	5.394232e+01	3.780465e+02
1.830000e-06	7.463811e-06	5.735762e-09	5.359163e+01	3.769034e+02
1.840000e-06	7.411944e-06	5.784101e-09	5.321922e+01	3.756864e+02
1.850000e-06	7.357172e-06	5.692036e-09	5.282594e+01	3.743990e+02
1.860000e-06	7.299670e-06	5.694688e-09	5.241307e+01	3.730447e+02
1.870000e-06	7.239602e-06	5.654567e-09	5.198177e+01	3.716256e+02
1.880000e-06	7.176886e-06	5.616174e-09	5.153146e+01	3.701423e+02
1.890000e-06	7.111342e-06	5.657715e-09	5.106084e+01	3.685943e+02
1.900000e-06	7.043100e-06	5.584015e-09	5.057085e+01	3.669796e+02
1.910000e-06	6.972074e-06	5.588839e-09	5.006087e+01	3.652952e+02
1.920000e-06	6.898318e-06	5.539381e-09	4.953128e+01	3.635382e+02
1.930000e-06	6.821874e-06	5.520089e-09	4.898240e+01	3.617059e+02
1.940000e-06	6.742655e-06	5.498014e-09	4.841359e+01	3.597963e+02
1.950000e-06	6.660924e-06	5.439131e-09	4.782675e+01	3.578086e+02
1.960000e-06	6.576866e-06	5.449788e-09	4.722320e+01	3.557430e+02
1.970000e-06	6.490399e-06	5.380420e-09	4.660234e+01	3.536004e+02
1.980000e-06	6.401503e-06	5.360574e-09	4.596405e+01	3.513823e+02
1.990000e-06	6.310405e-06	5.325278e-09	4.530995e+01	3.490898e+02
2.000000e-06	6.217110e-06	5.288985e-09	4.464008e+01	3.467234e+02
2.010000e-06	6.121511e-06	5.246078e-09	4.395366e+01	3.442826e+02
2.020000e-06	6.023692e-06	5.198992e-09	4.325129e+01	3.417653e+02
2.030000e-06	5.923873e-06	5.183565e-09	4.253457e+01	3.391686e+02
2.040000e-06	5.821975e-06	5.143802e-09	4.180293e+01	3.364884e+02
2.050000e-06	5.717862e-06	5.108293e-09	4.105538e+01	3.337203e+02
2.060000e-06	5.611794e-06	5.043289e-09	4.029379e+01	3.308602e+02
2.070000e-06	5.503876e-06	4.994727e-09	3.951892e+01	3.279049e+02
2.080000e-06	5.394027e-06	4.939864e-09	3.873018e+01	3.248523e+02
2.090000e-06	5.282132e-06	4.900160e-09	3.792675e+01	3.217021e+02
2.100000e-06	5.168246e-06	4.864677e-09	3.710903e+01	3.184552e+02
2.110000e-06	5.052467e-06	4.824603e-09	3.627771e+01	3.151136e+02
2.120000e-06	4.934687e-06	4.769053e-09	3.543202e+01	3.116796e+02
2.130000e-06	4.814964e-06	4.702416e-09	3.457239e+01	3.081550e+02
2.140000e-06	4.693445e-06	4.648070e-09	3.369986e+01	3.045401e+02
2.150000e-06	4.570224e-06	4.593105e-09	3.281511e+01	3.008335e+02
2.160000e-06	4.445341e-06	4.540705e-09	3.191843e+01	2.970310e+02
2.170000e-06	4.318764e-06	4.478680e-09	3.100958e+01	2.931261e+02
2.180000e-06	4.190579e-06	4.423415e-09	3.008918e+01	2.891104e+02
2.190000e-06	4.060908e-06	4.360202e-09	2.915812e+01	2.849742e+02
2.200000e-06	3.929812e-06	4.294698e-09	2.821683e+01	2.807075e+02
2.210000e-06	3.797329e-06	4.225540e-09	2.726557e+01	2.763016e+02
2.220000e-06	3.663327e-06	4.158425e-09	2.630341e+01	2.717498e+02
2.230000e-06	3.527850e-06	4.086559e-09	2.533066e+01	2.670483e+02
2.240000e-06	3.391073e-06	4.013167e-09	2.434857e+01	2.621966e+02
2.250000e-06	3.253038e-06	3.942036e-09	2.335745e+01	2.571974e+02
2.260000e-06	3.113865e-06	3.864975e-09	2.235817e+01	2.520553e+02
2.270000e-06	2.973494e-06	3.780152e-09	2.135027e+01	2.467761e+02
2.280000e-06	2.831865e-06	3.691275e-09	2.033335e+01	2.413649e+02
2.290000e-06	2.689034e-06	3.607207e-09	1.930779e+01	2.358244e+02
2.300000e-06	2.545236e-06	3.522894e-09	1.827529e+01	2.301537e+02
2.310000e-06	2.400658e-06	3.440057e-09	1.723720e+01	2.243470e+02
2.320000e-06	2.255283e-06	3.352588e-09	1.619338e+01	2.183931e+02
2.330000e-06	2.109089e-06	3.257145e-09	1.514367e+01	2.122762e+02
2.340000e-06	1.962141e-06	3.155066e-09	1.408856e+01	2.059768e+02
2.350000e-06	1.814592e-06	3.053264e-09	1.302913e+01	1.994731e+02
2.360000e-06	1.666568e-06	2.952358e-09	1.196629e+01	1.927437e+02
2.370000e-06	1.518100e-06	2.846419e-09	1.090026e+01	1.857690e+02
2.380000e-06	1.369111e-06	2.735692e-09	9.830484e+00	1.785335e+02
2.390000e-06	1.219632e-06	2.621090e-09	8.757201e+00	1.710267e+02
2.400000e-06	1.069703e-06	2.501488e-09	7.680681e+00	1.632434e+02
2.410000e-06	9.193618e-07	2.377996e-09	6.601199e+00	1.551829e+02
2.420000e-06	7.687174e-07	2.253819e-09	5.519543e+00	1.468472e+02
2.430000e-06	6.178228e-07	2.127424e-09	4.436089e+00	1.382387e+02
2.440000e-06	4.666794e-07	1.995051e-09	3.350850e+00	1.293571e+02
2.450000e-06	3.153060e-07	1.856352e-09	2.263960e+00	1.201965e+02
2.460000e-06	1.637428e-07	1.712005e-09	1.175705e+00	1.107429e+02
2.470000e-06	1.206110e-08	1.561223e-09	8.660105e-02	1.009731e+02
2.480000e-06	-1.396296e-07	1.405704e-09	-1.002568e+00	9.085480e+01
2.490000e-06	-2.912320e-07	1.245606e-09	-2.091104e+00	8.034785e+01
2.500000e-06	-4.427489e-07	1.078237e-09	-3.179024e+00	6.940787e+01
2.510000e-06	-5.941108e-07	9.027891e-10	-4.265833e+00	5.799085e+01
2.520000e-06	-7.452325e-07	7.216688e-10	-5.350916e+00	4.605880e+01
2.530000e-06	-8.961026e-07	5.344414e-10	-6.434194e+00	3.358586e+01
2.540000e-06	-1.046640e-06	3.378013e-10	-7.515079e+00	2.056405e+01
2.550000e-06	-1.196814e-06	1.314937e-10	-8.593364e+00	7.008016e+00
2.560000e-06	-1.346561e-06	-8.356653e-11	-9.668572e+00	-7.041809e+00
2.570000e-06	-1.495804e-06	-3.051334e-10	-1.074017e+01	-2.151829e+01
2.580000e-06	-1.644480e-06	-5.315394e-10	-1.180769e+01	-3.632895e+01
2.590000e-06	-1.792519e-06	-7.622841e-10	-1.287064e+01	-5.135976e+01
2.600000e-06	-1.939958e-06	-9.952179e-10	-1.392928e+01	-6.648097e+01
2.610000e-06	-2.086707e-06	-1.228059e-09	-1.498297e+01	-8.155451e+01
2.620000e-06	-2.232614e-06	-1.458401e-09	-1.603061e+01	-9.644218e+01
2.630000e-06	-2.377712e-06	-1.683137e-09	-1.707244e+01	-1.110139e+02
2.640000e-06	-2.521941e-06	-1.900102e-09	-1.810803e+01	-1.251550e+02
2.650000e-06	-2.665126e-06	-2.109103e-09	-1.913613e+01	-1.387724e+02
2.660000e-06	-2.807227e-06	-2.309925e-09	-2.015645e+01	-1.517981e+02
2.670000e-06	-2.948158e-06	-2.500453e-09	-2.116836e+01	-1.641910e+02
2.680000e-06	-3.087917e-06	-2.679699e-09	-2.217185e+01	-1.759355e+02
2.690000e-06	-3.226490e-06	-2.847372e-09	-2.316683e+01	-1.870390e+02
2.700000e-06	-3.363847e-06	-3.005177e-09	-2.415308e+01	-1.975272e+02
2.710000e-06	-3.499996e-06	-3.156650e-09	-2.513066e+01	-2.074380e+02
2.720000e-06	-3.634843e-06	-3.302238e-09	-2.609889e+01	-2.168160e+02
2.730000e-06	-3.768352e-06	-3.438778e-09	-2.705751e+01	-2.257069e+02
2.740000e-06	-3.900537e-06	-3.568593e-09	-2.800663e+01	-2.341529e+02
2.750000e-06	-4.031339e-06	-3.693409e-09	-2.894581e+01	-2.421897e+02
2.760000e-06	-4.160791e-06	-3.812105e-09	-2.987530e+01	-2.498450e+02
2.770000e-06	-4.288844e-06	-3.923864e-09	-3.079475e+01	-2.571386e+02
2.780000e-06	-4.415315e-06	-4.029555e-09	-3.170283e+01	-2.640840e+02
2.790000e-06	-4.540273e-06	-4.130024e-09	-3.260006e+01	-2.706905e+02
2.800000e-06	-4.663702e-06	-4.222682e-09	-3.348630e+01	-2.769661e+02
2.810000e-06	-4.785477e-06	-4.309118e-09	-3.436067e+01	-2.829205e+02
2.820000e-06	-4.905489e-06	-4.392593e-09	-3.522238e+01	-2.885665e+02
2.830000e-06	-5.023563e-06	-4.474887e-09	-3.607017e+01	-2.939220e+02
2.840000e-06	-5.139632e-06	-4.554379e-09	-3.690357e+01	-2.990096e+02
2.850000e-06	-5.253678e-06	-4.628942e-09	-3.772244e+01	-3.038556e+02
2.860000e-06	-5.365544e-06	-4.702270e-09	-3.852566e+01	-3.084887e+02
2.870000e-06	-5.475312e-06	-4.774806e-09	-3.931382e+01	-3.129371e+02
2.880000e-06	-5.583220e-06	-4.842989e-09	-4.008862e+01	-3.172265e+02
2.890000e-06	-5.689246e-06	-4.906220e-09	-4.084991e+01	-3.213770e+02
2.900000e-06	-5.793255e-06	-4.965590e-09	-4.159672e+01	-3.254024e+02
2.910000e-06	-5.895047e-06	-5.025181e-09	-4.232760e+01	-3.293088e+02
2.920000e-06	-5.994592e-06	-5.084680e-09	-4.304235e+01	-3.330948e+02
2.930000e-06	-6.092097e-06	-5.141764e-09	-4.374246e+01	-3.367531e+02
2.940000e-06	-6.187537e-06	-5.196206e-09	-4.442774e+01	-3.402720e+02
