# Temperatura_=_46.72
# Concentracion g/m^3_=_5000.0
# C_Vs_to_Am_M_A/Vsm_=_65563218390.804596
# pendiente_HvsI_1/m_=_3716.3
# ordenada_HvsI_A/m_=_1297.0
# frecuencia_Hz_=_302506.92393906135

Tiempo_(s)	Campo_(V.s)	Magnetizacion_(V.s)	Campo_(kA/m)	Magnetizacion_(A/m)
0.000000e+00	-7.974929e-06	-5.902548e-09	-5.686680e+01	-3.870253e+02
1.000000e-08	-7.970432e-06	-5.901624e-09	-5.683473e+01	-3.867842e+02
2.000000e-08	-7.963401e-06	-5.896004e-09	-5.678459e+01	-3.864729e+02
3.000000e-08	-7.953680e-06	-5.894475e-09	-5.671528e+01	-3.861034e+02
4.000000e-08	-7.941049e-06	-5.890192e-09	-5.662521e+01	-3.856879e+02
5.000000e-08	-7.925449e-06	-5.880959e-09	-5.651397e+01	-3.852373e+02
6.000000e-08	-7.907187e-06	-5.871735e-09	-5.638375e+01	-3.847600e+02
7.000000e-08	-7.886642e-06	-5.859756e-09	-5.623725e+01	-3.842606e+02
8.000000e-08	-7.863546e-06	-5.890252e-09	-5.607256e+01	-3.837398e+02
9.000000e-08	-7.837292e-06	-5.931936e-09	-5.588535e+01	-3.831940e+02
1.000000e-07	-7.807822e-06	-5.875617e-09	-5.567521e+01	-3.826167e+02
1.100000e-07	-7.775531e-06	-5.824146e-09	-5.544495e+01	-3.819987e+02
1.200000e-07	-7.740533e-06	-5.818620e-09	-5.519539e+01	-3.813299e+02
1.300000e-07	-7.703017e-06	-5.806046e-09	-5.492787e+01	-3.806005e+02
1.400000e-07	-7.663328e-06	-5.752907e-09	-5.464487e+01	-3.798020e+02
1.500000e-07	-7.621420e-06	-5.737817e-09	-5.434603e+01	-3.789280e+02
1.600000e-07	-7.576909e-06	-5.834363e-09	-5.402864e+01	-3.779747e+02
1.700000e-07	-7.529689e-06	-5.736887e-09	-5.369193e+01	-3.769408e+02
1.800000e-07	-7.479559e-06	-5.729574e-09	-5.333447e+01	-3.758271e+02
1.900000e-07	-7.426411e-06	-5.755471e-09	-5.295548e+01	-3.746356e+02
2.000000e-07	-7.370502e-06	-5.636622e-09	-5.255681e+01	-3.733690e+02
2.100000e-07	-7.311865e-06	-5.644330e-09	-5.213869e+01	-3.720296e+02
2.200000e-07	-7.250598e-06	-5.615883e-09	-5.170181e+01	-3.706189e+02
2.300000e-07	-7.186707e-06	-5.623910e-09	-5.124623e+01	-3.691371e+02
2.400000e-07	-7.119980e-06	-5.604515e-09	-5.077042e+01	-3.675832e+02
2.500000e-07	-7.050585e-06	-5.571031e-09	-5.027558e+01	-3.659554e+02
2.600000e-07	-6.978615e-06	-5.563612e-09	-4.976238e+01	-3.642512e+02
2.700000e-07	-6.903814e-06	-5.529088e-09	-4.922900e+01	-3.624683e+02
2.800000e-07	-6.826139e-06	-5.501632e-09	-4.867512e+01	-3.606052e+02
2.900000e-07	-6.745701e-06	-5.454551e-09	-4.810154e+01	-3.586616e+02
3.000000e-07	-6.662761e-06	-5.455593e-09	-4.751012e+01	-3.566384e+02
3.100000e-07	-6.577605e-06	-5.419888e-09	-4.690290e+01	-3.545377e+02
3.200000e-07	-6.490173e-06	-5.353826e-09	-4.627946e+01	-3.523628e+02
3.300000e-07	-6.400349e-06	-5.341875e-09	-4.563895e+01	-3.501168e+02
3.400000e-07	-6.308259e-06	-5.309389e-09	-4.498228e+01	-3.478027e+02
3.500000e-07	-6.213931e-06	-5.261719e-09	-4.430966e+01	-3.454225e+02
3.600000e-07	-6.117262e-06	-5.216315e-09	-4.362034e+01	-3.429764e+02
3.700000e-07	-6.018304e-06	-5.196610e-09	-4.291470e+01	-3.404628e+02
3.800000e-07	-5.917249e-06	-5.163792e-09	-4.219411e+01	-3.378783e+02
3.900000e-07	-5.814106e-06	-5.110199e-09	-4.145863e+01	-3.352181e+02
4.000000e-07	-5.708891e-06	-5.067871e-09	-4.070837e+01	-3.324764e+02
4.100000e-07	-5.601682e-06	-5.026212e-09	-3.994389e+01	-3.296473e+02
4.200000e-07	-5.492536e-06	-4.984103e-09	-3.916561e+01	-3.267254e+02
4.300000e-07	-5.381417e-06	-4.929359e-09	-3.837325e+01	-3.237067e+02
4.400000e-07	-5.268208e-06	-4.891253e-09	-3.756599e+01	-3.205885e+02
4.500000e-07	-5.152931e-06	-4.850362e-09	-3.674399e+01	-3.173701e+02
4.600000e-07	-5.035740e-06	-4.790215e-09	-3.590833e+01	-3.140518e+02
4.700000e-07	-4.916717e-06	-4.728518e-09	-3.505962e+01	-3.106347e+02
4.800000e-07	-4.795840e-06	-4.678073e-09	-3.419768e+01	-3.071201e+02
4.900000e-07	-4.673214e-06	-4.628479e-09	-3.332327e+01	-3.035083e+02
5.000000e-07	-4.548842e-06	-4.568330e-09	-3.243641e+01	-2.997980e+02
5.100000e-07	-4.422856e-06	-4.508014e-09	-3.153805e+01	-2.959859e+02
5.200000e-07	-4.295328e-06	-4.448189e-09	-3.062868e+01	-2.920666e+02
5.300000e-07	-4.166217e-06	-4.387012e-09	-2.970803e+01	-2.880329e+02
5.400000e-07	-4.035611e-06	-4.320280e-09	-2.877672e+01	-2.838762e+02
5.500000e-07	-3.903383e-06	-4.253034e-09	-2.783384e+01	-2.795878e+02
5.600000e-07	-3.769638e-06	-4.185374e-09	-2.688015e+01	-2.751599e+02
5.700000e-07	-3.634512e-06	-4.111854e-09	-2.591660e+01	-2.705863e+02
5.800000e-07	-3.497968e-06	-4.038178e-09	-2.494295e+01	-2.658635e+02
5.900000e-07	-3.360135e-06	-3.964594e-09	-2.396010e+01	-2.609904e+02
6.000000e-07	-3.220930e-06	-3.889434e-09	-2.296747e+01	-2.559691e+02
6.100000e-07	-3.080236e-06	-3.810587e-09	-2.196423e+01	-2.508030e+02
6.200000e-07	-2.938246e-06	-3.732046e-09	-2.095174e+01	-2.454964e+02
6.300000e-07	-2.795098e-06	-3.653149e-09	-1.993099e+01	-2.400529e+02
6.400000e-07	-2.650937e-06	-3.570734e-09	-1.890303e+01	-2.344737e+02
6.500000e-07	-2.505868e-06	-3.485166e-09	-1.786859e+01	-2.287563e+02
6.600000e-07	-2.359883e-06	-3.392702e-09	-1.682761e+01	-2.228942e+02
6.700000e-07	-2.213125e-06	-3.296785e-09	-1.578112e+01	-2.168757e+02
6.800000e-07	-2.065653e-06	-3.200440e-09	-1.472954e+01	-2.106852e+02
6.900000e-07	-1.917494e-06	-3.104625e-09	-1.367307e+01	-2.043039e+02
7.000000e-07	-1.768717e-06	-3.003185e-09	-1.261218e+01	-1.977115e+02
7.100000e-07	-1.619417e-06	-2.896641e-09	-1.154757e+01	-1.908880e+02
7.200000e-07	-1.469675e-06	-2.788769e-09	-1.047981e+01	-1.838161e+02
7.300000e-07	-1.319470e-06	-2.676335e-09	-9.408741e+00	-1.764821e+02
7.400000e-07	-1.168801e-06	-2.559926e-09	-8.334366e+00	-1.688770e+02
7.500000e-07	-1.017688e-06	-2.443978e-09	-7.256823e+00	-1.609967e+02
7.600000e-07	-8.661832e-07	-2.328473e-09	-6.176489e+00	-1.528406e+02
7.700000e-07	-7.143586e-07	-2.202163e-09	-5.093874e+00	-1.444100e+02
7.800000e-07	-5.622788e-07	-2.065214e-09	-4.009440e+00	-1.357056e+02
7.900000e-07	-4.099827e-07	-1.923349e-09	-2.923462e+00	-1.267245e+02
8.000000e-07	-2.575337e-07	-1.778170e-09	-1.836395e+00	-1.174576e+02
8.100000e-07	-1.049809e-07	-1.628709e-09	-7.485868e-01	-1.078874e+02
8.200000e-07	4.764379e-08	-1.474675e-09	3.397334e-01	-9.798760e+01
8.300000e-07	2.002889e-07	-1.317699e-09	1.428199e+00	-8.772290e+01
8.400000e-07	3.529073e-07	-1.155829e-09	2.516475e+00	-7.705162e+01
8.500000e-07	5.054285e-07	-9.869090e-10	3.604057e+00	-6.592920e+01
8.600000e-07	6.578043e-07	-8.107912e-10	4.690603e+00	-5.431314e+01
8.700000e-07	8.099881e-07	-6.281493e-10	5.775779e+00	-4.216884e+01
8.800000e-07	9.619012e-07	-4.353712e-10	6.859026e+00	-2.947555e+01
8.900000e-07	1.113509e-06	-2.358614e-10	7.940097e+00	-1.623196e+01
9.000000e-07	1.264753e-06	-3.024422e-11	9.018567e+00	-2.460428e+00
9.100000e-07	1.415492e-06	1.839717e-10	1.009344e+01	1.179040e+01
9.200000e-07	1.565634e-06	4.083978e-10	1.116406e+01	2.644531e+01
9.300000e-07	1.715193e-06	6.381350e-10	1.223052e+01	4.140456e+01
9.400000e-07	1.864203e-06	8.674548e-10	1.329306e+01	5.654826e+01
9.500000e-07	2.012558e-06	1.100138e-09	1.435094e+01	7.174269e+01
9.600000e-07	2.160125e-06	1.332889e-09	1.540319e+01	8.684800e+01
9.700000e-07	2.306880e-06	1.561045e-09	1.644966e+01	1.017265e+02
9.800000e-07	2.452812e-06	1.780856e-09	1.749026e+01	1.162508e+02
9.900000e-07	2.597841e-06	1.994306e-09	1.852442e+01	1.303109e+02
1.000000e-06	2.741878e-06	2.199225e-09	1.955150e+01	1.438196e+02
1.010000e-06	2.884880e-06	2.391905e-09	2.057120e+01	1.567155e+02
1.020000e-06	3.026783e-06	2.573453e-09	2.158307e+01	1.689643e+02
1.030000e-06	3.167493e-06	2.745393e-09	2.258643e+01	1.805570e+02
1.040000e-06	3.306873e-06	2.909702e-09	2.358031e+01	1.915065e+02
1.050000e-06	3.444919e-06	3.067802e-09	2.456467e+01	2.018424e+02
1.060000e-06	3.581650e-06	3.220215e-09	2.553966e+01	2.116055e+02
1.070000e-06	3.716955e-06	3.366564e-09	2.650448e+01	2.208418e+02
1.080000e-06	3.850912e-06	3.505620e-09	2.745969e+01	2.295969e+02
1.090000e-06	3.983523e-06	3.634385e-09	2.840529e+01	2.379124e+02
1.100000e-06	4.114665e-06	3.752758e-09	2.934043e+01	2.458226e+02
1.110000e-06	4.244432e-06	3.867098e-09	3.026576e+01	2.533540e+02
1.120000e-06	4.372744e-06	3.976678e-09	3.118071e+01	2.605254e+02
1.130000e-06	4.499456e-06	4.078824e-09	3.208426e+01	2.673498e+02
1.140000e-06	4.624708e-06	4.174976e-09	3.297739e+01	2.738370e+02
1.150000e-06	4.748393e-06	4.268643e-09	3.385935e+01	2.799963e+02
1.160000e-06	4.870400e-06	4.359894e-09	3.472935e+01	2.858387e+02
1.170000e-06	4.990667e-06	4.444218e-09	3.558693e+01	2.913794e+02
1.180000e-06	5.109044e-06	4.522917e-09	3.643104e+01	2.966380e+02
1.190000e-06	5.225500e-06	4.598062e-09	3.726145e+01	3.016386e+02
1.200000e-06	5.339988e-06	4.672256e-09	3.807783e+01	3.064087e+02
1.210000e-06	5.452411e-06	4.744227e-09	3.887949e+01	3.109768e+02
1.220000e-06	5.562805e-06	4.812254e-09	3.966668e+01	3.153701e+02
1.230000e-06	5.671256e-06	4.875700e-09	4.044001e+01	3.196122e+02
1.240000e-06	5.777690e-06	4.936713e-09	4.119895e+01	3.237208e+02
1.250000e-06	5.881988e-06	4.996686e-09	4.194267e+01	3.277063e+02
1.260000e-06	5.984142e-06	5.054614e-09	4.267110e+01	3.315719e+02
1.270000e-06	6.084109e-06	5.109236e-09	4.338394e+01	3.353136e+02
1.280000e-06	6.181745e-06	5.161910e-09	4.408015e+01	3.389219e+02
1.290000e-06	6.277046e-06	5.213771e-09	4.475971e+01	3.423845e+02
1.300000e-06	6.370120e-06	5.265311e-09	4.542339e+01	3.456881e+02
1.310000e-06	6.460977e-06	5.313923e-09	4.607127e+01	3.488214e+02
1.320000e-06	6.549447e-06	5.356716e-09	4.670212e+01	3.517773e+02
1.330000e-06	6.635611e-06	5.395414e-09	4.731652e+01	3.545538e+02
1.340000e-06	6.719534e-06	5.433687e-09	4.791496e+01	3.571552e+02
1.350000e-06	6.801028e-06	5.472042e-09	4.849607e+01	3.595909e+02
1.360000e-06	6.880001e-06	5.508435e-09	4.905920e+01	3.618751e+02
1.370000e-06	6.956386e-06	5.542946e-09	4.960388e+01	3.640242e+02
1.380000e-06	7.030166e-06	5.574807e-09	5.012998e+01	3.660549e+02
1.390000e-06	7.101374e-06	5.603648e-09	5.063774e+01	3.679821e+02
1.400000e-06	7.170086e-06	5.632235e-09	5.112770e+01	3.698175e+02
1.410000e-06	7.236238e-06	5.660394e-09	5.159942e+01	3.715678e+02
1.420000e-06	7.299763e-06	5.686205e-09	5.205239e+01	3.732348e+02
1.430000e-06	7.360876e-06	5.708423e-09	5.248817e+01	3.748161e+02
1.440000e-06	7.419491e-06	5.729023e-09	5.290614e+01	3.763058e+02
1.450000e-06	7.475427e-06	5.748936e-09	5.330500e+01	3.776962e+02
1.460000e-06	7.528564e-06	5.766934e-09	5.368391e+01	3.789802e+02
1.470000e-06	7.578653e-06	5.783413e-09	5.404107e+01	3.801527e+02
1.480000e-06	7.625765e-06	5.798175e-09	5.437702e+01	3.812117e+02
1.490000e-06	7.670200e-06	5.812545e-09	5.469387e+01	3.821598e+02
1.500000e-06	7.711900e-06	5.826984e-09	5.499121e+01	3.830037e+02
1.510000e-06	7.750750e-06	5.841521e-09	5.526825e+01	3.837538e+02
1.520000e-06	7.786944e-06	5.854319e-09	5.552634e+01	3.844230e+02
1.530000e-06	7.820388e-06	5.864772e-09	5.576481e+01	3.850247e+02
1.540000e-06	7.851025e-06	5.873304e-09	5.598327e+01	3.855713e+02
1.550000e-06	7.878951e-06	5.880705e-09	5.618241e+01	3.860725e+02
1.560000e-06	7.903951e-06	5.888245e-09	5.636067e+01	3.865340e+02
1.570000e-06	7.926071e-06	5.895062e-09	5.651841e+01	3.869568e+02
1.580000e-06	7.945487e-06	5.900711e-09	5.665686e+01	3.873377e+02
1.590000e-06	7.961977e-06	5.904880e-09	5.677444e+01	3.876693e+02
1.600000e-06	7.975439e-06	5.908745e-09	5.687043e+01	3.879421e+02
1.610000e-06	7.985776e-06	5.913470e-09	5.694415e+01	3.881456e+02
1.620000e-06	7.993076e-06	5.916867e-09	5.699620e+01	3.882704e+02
1.630000e-06	7.997652e-06	5.919266e-09	5.702883e+01	3.883095e+02
1.640000e-06	7.999429e-06	5.922508e-09	5.704150e+01	3.882597e+02
1.650000e-06	7.998387e-06	5.922918e-09	5.703407e+01	3.881223e+02
1.660000e-06	7.994733e-06	5.913208e-09	5.700802e+01	3.879026e+02
1.670000e-06	7.988372e-06	5.908673e-09	5.696265e+01	3.876098e+02
1.680000e-06	7.979263e-06	5.906299e-09	5.689770e+01	3.872552e+02
1.690000e-06	7.967415e-06	5.901032e-09	5.681322e+01	3.868512e+02
1.700000e-06	7.952777e-06	5.897767e-09	5.670884e+01	3.864091e+02
1.710000e-06	7.935624e-06	5.896779e-09	5.658653e+01	3.859383e+02
1.720000e-06	7.916248e-06	5.893549e-09	5.644836e+01	3.854445e+02
1.730000e-06	7.894345e-06	5.809053e-09	5.629218e+01	3.849295e+02
1.740000e-06	7.869210e-06	5.778819e-09	5.611295e+01	3.843910e+02
1.750000e-06	7.840424e-06	5.832976e-09	5.590768e+01	3.838231e+02
1.760000e-06	7.808259e-06	5.829967e-09	5.567832e+01	3.832173e+02
1.770000e-06	7.773506e-06	5.806453e-09	5.543051e+01	3.825636e+02
1.780000e-06	7.736454e-06	5.859847e-09	5.516631e+01	3.818520e+02
1.790000e-06	7.697248e-06	5.882638e-09	5.488674e+01	3.810734e+02
1.800000e-06	7.656011e-06	5.721923e-09	5.459269e+01	3.802210e+02
1.810000e-06	7.612307e-06	5.782724e-09	5.428105e+01	3.792902e+02
1.820000e-06	7.565953e-06	5.774308e-09	5.395051e+01	3.782789e+02
1.830000e-06	7.516855e-06	5.730972e-09	5.360041e+01	3.771873e+02
1.840000e-06	7.464684e-06	5.813540e-09	5.322840e+01	3.760174e+02
1.850000e-06	7.409604e-06	5.711316e-09	5.283564e+01	3.747715e+02
1.860000e-06	7.351814e-06	5.767451e-09	5.242355e+01	3.734522e+02
1.870000e-06	7.291450e-06	5.678909e-09	5.199311e+01	3.720613e+02
1.880000e-06	7.228392e-06	5.623971e-09	5.154347e+01	3.705994e+02
1.890000e-06	7.162494e-06	5.672224e-09	5.107357e+01	3.690658e+02
1.900000e-06	7.093890e-06	5.573453e-09	5.058438e+01	3.674589e+02
1.910000e-06	7.022435e-06	5.597033e-09	5.007485e+01	3.657763e+02
1.920000e-06	6.948254e-06	5.541511e-09	4.954589e+01	3.640156e+02
1.930000e-06	6.871329e-06	5.551254e-09	4.899736e+01	3.621751e+02
1.940000e-06	6.791639e-06	5.498318e-09	4.842911e+01	3.602539e+02
1.950000e-06	6.709481e-06	5.435324e-09	4.784327e+01	3.582528e+02
1.960000e-06	6.624912e-06	5.468813e-09	4.724023e+01	3.561736e+02
1.970000e-06	6.537870e-06	5.382127e-09	4.661957e+01	3.540190e+02
1.980000e-06	6.448443e-06	5.372604e-09	4.598189e+01	3.517925e+02
1.990000e-06	6.356845e-06	5.333160e-09	4.532874e+01	3.494972e+02
2.000000e-06	6.262966e-06	5.313656e-09	4.465931e+01	3.471353e+02
2.010000e-06	6.166734e-06	5.252079e-09	4.397311e+01	3.447076e+02
2.020000e-06	6.068320e-06	5.202641e-09	4.327135e+01	3.422131e+02
2.030000e-06	5.967727e-06	5.190971e-09	4.255405e+01	3.396489e+02
2.040000e-06	5.864980e-06	5.149618e-09	4.182139e+01	3.370104e+02
2.050000e-06	5.760176e-06	5.112686e-09	4.107406e+01	3.342921e+02
2.060000e-06	5.653447e-06	5.050505e-09	4.031302e+01	3.314881e+02
2.070000e-06	5.544804e-06	5.020350e-09	3.953831e+01	3.285927e+02
2.080000e-06	5.434155e-06	4.954951e-09	3.874931e+01	3.256015e+02
2.090000e-06	5.321453e-06	4.908373e-09	3.794566e+01	3.225115e+02
2.100000e-06	5.206766e-06	4.864876e-09	3.712787e+01	3.193213e+02
2.110000e-06	5.090115e-06	4.827403e-09	3.629607e+01	3.160309e+02
2.120000e-06	4.971452e-06	4.771888e-09	3.544992e+01	3.126414e+02
2.130000e-06	4.850863e-06	4.716528e-09	3.459003e+01	3.091542e+02
2.140000e-06	4.728546e-06	4.670078e-09	3.371782e+01	3.055697e+02
2.150000e-06	4.604555e-06	4.611929e-09	3.283368e+01	3.018873e+02
2.160000e-06	4.478874e-06	4.550559e-09	3.193749e+01	2.981043e+02
2.170000e-06	4.351559e-06	4.483547e-09	3.102965e+01	2.942159e+02
2.180000e-06	4.222623e-06	4.428830e-09	3.011024e+01	2.902152e+02
2.190000e-06	4.092147e-06	4.363793e-09	2.917986e+01	2.860940e+02
2.200000e-06	3.960126e-06	4.301439e-09	2.823846e+01	2.818437e+02
2.210000e-06	3.826629e-06	4.233093e-09	2.728653e+01	2.774559e+02
2.220000e-06	3.691650e-06	4.170410e-09	2.632404e+01	2.729240e+02
2.230000e-06	3.555213e-06	4.101598e-09	2.535114e+01	2.682435e+02
2.240000e-06	3.417442e-06	4.032555e-09	2.436874e+01	2.634128e+02
2.250000e-06	3.278383e-06	3.959095e-09	2.337716e+01	2.584331e+02
2.260000e-06	3.138122e-06	3.877403e-09	2.237699e+01	2.533074e+02
2.270000e-06	2.996654e-06	3.789589e-09	2.136823e+01	2.480401e+02
2.280000e-06	2.853952e-06	3.700183e-09	2.035067e+01	2.426350e+02
2.290000e-06	2.710163e-06	3.615061e-09	1.932535e+01	2.370941e+02
2.300000e-06	2.565471e-06	3.528977e-09	1.829360e+01	2.314163e+02
2.310000e-06	2.419945e-06	3.445405e-09	1.725589e+01	2.255960e+02
2.320000e-06	2.273649e-06	3.356287e-09	1.621270e+01	2.196232e+02
2.330000e-06	2.126580e-06	3.262245e-09	1.516400e+01	2.134832e+02
2.340000e-06	1.978765e-06	3.165542e-09	1.410997e+01	2.071579e+02
2.350000e-06	1.830213e-06	3.067048e-09	1.305070e+01	2.006274e+02
2.360000e-06	1.681006e-06	2.964068e-09	1.198674e+01	1.938715e+02
2.370000e-06	1.531312e-06	2.854467e-09	1.091932e+01	1.868717e+02
2.380000e-06	1.381185e-06	2.742263e-09	9.848810e+00	1.796132e+02
2.390000e-06	1.230702e-06	2.627527e-09	8.775759e+00	1.720857e+02
2.400000e-06	1.079855e-06	2.506141e-09	7.700119e+00	1.642837e+02
2.410000e-06	9.285690e-07	2.382126e-09	6.621344e+00	1.562058e+02
2.420000e-06	7.768933e-07	2.256536e-09	5.539791e+00	1.478531e+02
2.430000e-06	6.249296e-07	2.129404e-09	4.456183e+00	1.392266e+02
2.440000e-06	4.727048e-07	1.996730e-09	3.370715e+00	1.303247e+02
2.450000e-06	3.202994e-07	1.858367e-09	2.283958e+00	1.211403e+02
2.460000e-06	1.677397e-07	1.715813e-09	1.196101e+00	1.116586e+02
2.470000e-06	1.504730e-08	1.563425e-09	1.072977e-01	1.018557e+02
2.480000e-06	-1.376643e-07	1.405687e-09	-9.816426e-01	9.169885e+01
2.490000e-06	-2.903479e-07	1.244900e-09	-2.070383e+00	8.114777e+01
2.500000e-06	-4.429725e-07	1.078506e-09	-3.158703e+00	7.015831e+01
2.510000e-06	-5.954617e-07	9.043780e-10	-4.246056e+00	5.868682e+01
2.520000e-06	-7.476941e-07	7.212149e-10	-5.331580e+00	4.669580e+01
2.530000e-06	-8.996606e-07	5.300384e-10	-6.415206e+00	3.415998e+01
2.540000e-06	-1.051320e-06	3.306932e-10	-7.496641e+00	2.107197e+01
2.550000e-06	-1.202500e-06	1.227535e-10	-8.574662e+00	7.447025e+00
2.560000e-06	-1.353222e-06	-9.305900e-11	-9.649417e+00	-6.673860e+00
2.570000e-06	-1.503480e-06	-3.157164e-10	-1.072086e+01	-2.122295e+01
2.580000e-06	-1.653160e-06	-5.427864e-10	-1.178818e+01	-3.610717e+01
2.590000e-06	-1.802346e-06	-7.731407e-10	-1.285198e+01	-5.121181e+01
2.600000e-06	-1.950926e-06	-1.005129e-09	-1.391146e+01	-6.640637e+01
2.610000e-06	-2.098613e-06	-1.237692e-09	-1.496457e+01	-8.155191e+01
2.620000e-06	-2.245470e-06	-1.469059e-09	-1.601176e+01	-9.650929e+01
2.630000e-06	-2.391549e-06	-1.695201e-09	-1.705341e+01	-1.111474e+02
2.640000e-06	-2.536767e-06	-1.914180e-09	-1.808892e+01	-1.253506e+02
2.650000e-06	-2.681061e-06	-2.123025e-09	-1.911784e+01	-1.390247e+02
2.660000e-06	-2.824228e-06	-2.323040e-09	-2.013872e+01	-1.521008e+02
2.670000e-06	-2.966198e-06	-2.513449e-09	-2.115106e+01	-1.645369e+02
2.680000e-06	-3.107057e-06	-2.693010e-09	-2.215548e+01	-1.763171e+02
2.690000e-06	-3.246740e-06	-2.860295e-09	-2.315151e+01	-1.874485e+02
2.700000e-06	-3.385148e-06	-3.015635e-09	-2.413846e+01	-1.979564e+02
2.710000e-06	-3.522317e-06	-3.165454e-09	-2.511657e+01	-2.078790e+02
2.720000e-06	-3.658156e-06	-3.311789e-09	-2.608520e+01	-2.172615e+02
2.730000e-06	-3.792631e-06	-3.450669e-09	-2.704410e+01	-2.261501e+02
2.740000e-06	-3.925809e-06	-3.582315e-09	-2.799375e+01	-2.345878e+02
2.750000e-06	-4.057543e-06	-3.707740e-09	-2.893310e+01	-2.426112e+02
2.760000e-06	-4.187791e-06	-3.824337e-09	-2.986186e+01	-2.502491e+02
2.770000e-06	-4.316700e-06	-3.933417e-09	-3.078108e+01	-2.575222e+02
2.780000e-06	-4.444178e-06	-4.038142e-09	-3.169008e+01	-2.644452e+02
2.790000e-06	-4.570107e-06	-4.138283e-09	-3.258805e+01	-2.710283e+02
2.800000e-06	-4.694393e-06	-4.230580e-09	-3.347429e+01	-2.772807e+02
2.810000e-06	-4.816947e-06	-4.316447e-09	-3.434818e+01	-2.832128e+02
2.820000e-06	-4.937792e-06	-4.402042e-09	-3.520989e+01	-2.888384e+02
2.830000e-06	-5.056790e-06	-4.486918e-09	-3.605843e+01	-2.941757e+02
2.840000e-06	-5.173805e-06	-4.566311e-09	-3.689283e+01	-2.992478e+02
2.850000e-06	-5.288718e-06	-4.639369e-09	-3.771224e+01	-3.040814e+02
2.860000e-06	-5.401449e-06	-4.710934e-09	-3.851609e+01	-3.087047e+02
2.870000e-06	-5.512067e-06	-4.781727e-09	-3.930488e+01	-3.131458e+02
2.880000e-06	-5.620746e-06	-4.847913e-09	-4.007983e+01	-3.174295e+02
2.890000e-06	-5.727526e-06	-4.910507e-09	-4.084125e+01	-3.215753e+02
2.900000e-06	-5.832260e-06	-4.972006e-09	-4.158807e+01	-3.255959e+02
2.910000e-06	-5.934808e-06	-5.033604e-09	-4.231932e+01	-3.294963e+02
2.920000e-06	-6.035094e-06	-5.093600e-09	-4.303442e+01	-3.332746e+02
2.930000e-06	-6.133222e-06	-5.152296e-09	-4.373415e+01	-3.369227e+02
2.940000e-06	-6.229188e-06	-5.208760e-09	-4.441845e+01	-3.404287e+02
