# Temperatura_=_41.29
# Concentracion g/m^3_=_5000.0
# C_Vs_to_Am_M_A/Vsm_=_65563218390.804596
# pendiente_HvsI_1/m_=_3716.3
# ordenada_HvsI_A/m_=_1297.0
# frecuencia_Hz_=_302506.0859746228

Tiempo_(s)	Campo_(V.s)	Magnetizacion_(V.s)	Campo_(kA/m)	Magnetizacion_(A/m)
0.000000e+00	-7.989273e-06	-5.781664e-09	-5.686536e+01	-3.790589e+02
1.000000e-08	-7.984847e-06	-5.781612e-09	-5.683386e+01	-3.788231e+02
2.000000e-08	-7.977830e-06	-5.775834e-09	-5.678391e+01	-3.785270e+02
3.000000e-08	-7.967994e-06	-5.774061e-09	-5.671390e+01	-3.781808e+02
4.000000e-08	-7.955276e-06	-5.770492e-09	-5.662338e+01	-3.777946e+02
5.000000e-08	-7.939664e-06	-5.762586e-09	-5.651226e+01	-3.773770e+02
6.000000e-08	-7.921379e-06	-5.752408e-09	-5.638212e+01	-3.769340e+02
7.000000e-08	-7.900860e-06	-5.740943e-09	-5.623607e+01	-3.764682e+02
8.000000e-08	-7.877784e-06	-5.763060e-09	-5.607182e+01	-3.759790e+02
9.000000e-08	-7.851488e-06	-5.803145e-09	-5.588465e+01	-3.754626e+02
1.000000e-07	-7.821937e-06	-5.755231e-09	-5.567432e+01	-3.749127e+02
1.100000e-07	-7.789530e-06	-5.706478e-09	-5.544365e+01	-3.743217e+02
1.200000e-07	-7.754462e-06	-5.702375e-09	-5.519405e+01	-3.736817e+02
1.300000e-07	-7.716902e-06	-5.693066e-09	-5.492670e+01	-3.729854e+02
1.400000e-07	-7.677119e-06	-5.643914e-09	-5.464354e+01	-3.722274e+02
1.500000e-07	-7.635086e-06	-5.621431e-09	-5.434436e+01	-3.714040e+02
1.600000e-07	-7.590446e-06	-5.709088e-09	-5.402663e+01	-3.705140e+02
1.700000e-07	-7.543080e-06	-5.602463e-09	-5.368949e+01	-3.695578e+02
1.800000e-07	-7.492936e-06	-5.600068e-09	-5.333258e+01	-3.685373e+02
1.900000e-07	-7.439789e-06	-5.647634e-09	-5.295430e+01	-3.674549e+02
2.000000e-07	-7.383718e-06	-5.544009e-09	-5.255519e+01	-3.663126e+02
2.100000e-07	-7.324928e-06	-5.560784e-09	-5.213674e+01	-3.651117e+02
2.200000e-07	-7.263555e-06	-5.534697e-09	-5.169991e+01	-3.638520e+02
2.300000e-07	-7.199548e-06	-5.527544e-09	-5.124433e+01	-3.625322e+02
2.400000e-07	-7.132743e-06	-5.497609e-09	-5.076883e+01	-3.611494e+02
2.500000e-07	-7.063273e-06	-5.467451e-09	-5.027436e+01	-3.597002e+02
2.600000e-07	-6.991078e-06	-5.461986e-09	-4.976050e+01	-3.581808e+02
2.700000e-07	-6.916013e-06	-5.421809e-09	-4.922621e+01	-3.565882e+02
2.800000e-07	-6.838166e-06	-5.398333e-09	-4.867211e+01	-3.549202e+02
2.900000e-07	-6.757602e-06	-5.365178e-09	-4.809868e+01	-3.531765e+02
3.000000e-07	-6.674594e-06	-5.370786e-09	-4.750785e+01	-3.513578e+02
3.100000e-07	-6.589332e-06	-5.343447e-09	-4.690098e+01	-3.494666e+02
3.200000e-07	-6.501762e-06	-5.282550e-09	-4.627768e+01	-3.475059e+02
3.300000e-07	-6.411879e-06	-5.271009e-09	-4.563793e+01	-3.454788e+02
3.400000e-07	-6.319616e-06	-5.239549e-09	-4.498122e+01	-3.433879e+02
3.500000e-07	-6.225048e-06	-5.196184e-09	-4.430812e+01	-3.412343e+02
3.600000e-07	-6.128243e-06	-5.156701e-09	-4.361909e+01	-3.390174e+02
3.700000e-07	-6.029172e-06	-5.138294e-09	-4.291392e+01	-3.367344e+02
3.800000e-07	-5.927925e-06	-5.109562e-09	-4.219328e+01	-3.343810e+02
3.900000e-07	-5.824577e-06	-5.061394e-09	-4.145768e+01	-3.319512e+02
4.000000e-07	-5.719199e-06	-5.026054e-09	-4.070762e+01	-3.294387e+02
4.100000e-07	-5.611813e-06	-4.985894e-09	-3.994328e+01	-3.268372e+02
4.200000e-07	-5.502449e-06	-4.943351e-09	-3.916486e+01	-3.241413e+02
4.300000e-07	-5.391131e-06	-4.887910e-09	-3.837253e+01	-3.213476e+02
4.400000e-07	-5.277734e-06	-4.848368e-09	-3.756540e+01	-3.184542e+02
4.500000e-07	-5.162239e-06	-4.812748e-09	-3.674334e+01	-3.154614e+02
4.600000e-07	-5.044823e-06	-4.763594e-09	-3.590761e+01	-3.123708e+02
4.700000e-07	-4.925549e-06	-4.710578e-09	-3.505865e+01	-3.091847e+02
4.800000e-07	-4.804437e-06	-4.662953e-09	-3.419661e+01	-3.059053e+02
4.900000e-07	-4.681599e-06	-4.615996e-09	-3.332229e+01	-3.025333e+02
5.000000e-07	-4.557059e-06	-4.556993e-09	-3.243585e+01	-2.990677e+02
5.100000e-07	-4.430911e-06	-4.500446e-09	-3.153796e+01	-2.955048e+02
5.200000e-07	-4.303163e-06	-4.444840e-09	-3.062869e+01	-2.918385e+02
5.300000e-07	-4.173794e-06	-4.385300e-09	-2.970787e+01	-2.880602e+02
5.400000e-07	-4.042929e-06	-4.319614e-09	-2.877641e+01	-2.841601e+02
5.500000e-07	-3.910495e-06	-4.256701e-09	-2.783379e+01	-2.801280e+02
5.600000e-07	-3.776632e-06	-4.196688e-09	-2.688099e+01	-2.759544e+02
5.700000e-07	-3.641334e-06	-4.129179e-09	-2.591798e+01	-2.716319e+02
5.800000e-07	-3.504534e-06	-4.059787e-09	-2.494427e+01	-2.671560e+02
5.900000e-07	-3.366385e-06	-3.990681e-09	-2.396097e+01	-2.625251e+02
6.000000e-07	-3.226851e-06	-3.919825e-09	-2.296780e+01	-2.577410e+02
6.100000e-07	-3.085890e-06	-3.842298e-09	-2.196449e+01	-2.528074e+02
6.200000e-07	-2.943597e-06	-3.763749e-09	-2.095168e+01	-2.477289e+02
6.300000e-07	-2.800180e-06	-3.685585e-09	-1.993088e+01	-2.425097e+02
6.400000e-07	-2.655782e-06	-3.605617e-09	-1.890310e+01	-2.371516e+02
6.500000e-07	-2.510454e-06	-3.523507e-09	-1.786870e+01	-2.316525e+02
6.600000e-07	-2.364238e-06	-3.436850e-09	-1.682797e+01	-2.260059e+02
6.700000e-07	-2.217236e-06	-3.347832e-09	-1.578165e+01	-2.202000e+02
6.800000e-07	-2.069544e-06	-3.255422e-09	-1.473042e+01	-2.142183e+02
6.900000e-07	-1.921162e-06	-3.161666e-09	-1.367428e+01	-2.080411e+02
7.000000e-07	-1.772139e-06	-3.063132e-09	-1.261358e+01	-2.016467e+02
7.100000e-07	-1.622627e-06	-2.959972e-09	-1.154940e+01	-1.950136e+02
7.200000e-07	-1.472707e-06	-2.854085e-09	-1.048230e+01	-1.881228e+02
7.300000e-07	-1.322329e-06	-2.744101e-09	-9.411960e+00	-1.809595e+02
7.400000e-07	-1.171443e-06	-2.629315e-09	-8.337998e+00	-1.735139e+02
7.500000e-07	-1.020041e-06	-2.513336e-09	-7.260362e+00	-1.657815e+02
7.600000e-07	-8.681846e-07	-2.398125e-09	-6.179490e+00	-1.577623e+02
7.700000e-07	-7.159949e-07	-2.274222e-09	-5.096247e+00	-1.494589e+02
7.800000e-07	-5.634942e-07	-2.142369e-09	-4.010791e+00	-1.408742e+02
7.900000e-07	-4.107144e-07	-2.004555e-09	-2.923348e+00	-1.320079e+02
8.000000e-07	-2.578594e-07	-1.861085e-09	-1.835370e+00	-1.228542e+02
8.100000e-07	-1.049592e-07	-1.712173e-09	-7.470699e-01	-1.133992e+02
8.200000e-07	4.806283e-08	-1.558645e-09	3.420975e-01	-1.036196e+02
8.300000e-07	2.011339e-07	-1.402393e-09	1.431614e+00	-9.348299e+01
8.400000e-07	3.541417e-07	-1.241266e-09	2.520680e+00	-8.294958e+01
8.500000e-07	5.070349e-07	-1.072628e-09	3.608929e+00	-7.197548e+01
8.600000e-07	6.598136e-07	-8.978267e-10	4.696365e+00	-6.051743e+01
8.700000e-07	8.123984e-07	-7.184524e-10	5.782420e+00	-4.853851e+01
8.800000e-07	9.647211e-07	-5.279204e-10	6.866610e+00	-3.601408e+01
8.900000e-07	1.116663e-06	-3.306060e-10	7.948085e+00	-2.293746e+01
9.000000e-07	1.268057e-06	-1.275159e-10	9.025667e+00	-9.324524e+00
9.100000e-07	1.418904e-06	8.373157e-11	1.009935e+01	4.783338e+00
9.200000e-07	1.569194e-06	3.052049e-10	1.116908e+01	1.931842e+01
9.300000e-07	1.718944e-06	5.349730e-10	1.223496e+01	3.418816e+01
9.400000e-07	1.868162e-06	7.664253e-10	1.329704e+01	4.927899e+01
9.500000e-07	2.016717e-06	9.998394e-10	1.435441e+01	6.446206e+01
9.600000e-07	2.164523e-06	1.230628e-09	1.540646e+01	7.960055e+01
9.700000e-07	2.311485e-06	1.455370e-09	1.645249e+01	9.455763e+01
9.800000e-07	2.457617e-06	1.674721e-09	1.749262e+01	1.092045e+02
9.900000e-07	2.602922e-06	1.889706e-09	1.852685e+01	1.234272e+02
1.000000e-06	2.747228e-06	2.097480e-09	1.955398e+01	1.371330e+02
1.010000e-06	2.890444e-06	2.294753e-09	2.057336e+01	1.502530e+02
1.020000e-06	3.032532e-06	2.480244e-09	2.158470e+01	1.627444e+02
1.030000e-06	3.173464e-06	2.657020e-09	2.258781e+01	1.745890e+02
1.040000e-06	3.313095e-06	2.827192e-09	2.358167e+01	1.857907e+02
1.050000e-06	3.451388e-06	2.989036e-09	2.456599e+01	1.963710e+02
1.060000e-06	3.588362e-06	3.141454e-09	2.554094e+01	2.063634e+02
1.070000e-06	3.723881e-06	3.286224e-09	2.650552e+01	2.158083e+02
1.080000e-06	3.858033e-06	3.423846e-09	2.746038e+01	2.247479e+02
1.090000e-06	3.990924e-06	3.553740e-09	2.840626e+01	2.332215e+02
1.100000e-06	4.122400e-06	3.676422e-09	2.934207e+01	2.412633e+02
1.110000e-06	4.252427e-06	3.794367e-09	3.026756e+01	2.489010e+02
1.120000e-06	4.380918e-06	3.907377e-09	3.118212e+01	2.561556e+02
1.130000e-06	4.507808e-06	4.012707e-09	3.208529e+01	2.630429e+02
1.140000e-06	4.633260e-06	4.109498e-09	3.297822e+01	2.695755e+02
1.150000e-06	4.757197e-06	4.203073e-09	3.386037e+01	2.757655e+02
1.160000e-06	4.879475e-06	4.292986e-09	3.473071e+01	2.816261e+02
1.170000e-06	4.999950e-06	4.376262e-09	3.558822e+01	2.871740e+02
1.180000e-06	5.118541e-06	4.454610e-09	3.643231e+01	2.924297e+02
1.190000e-06	5.235274e-06	4.529046e-09	3.726318e+01	2.974173e+02
1.200000e-06	5.350022e-06	4.602001e-09	3.807993e+01	3.021639e+02
1.210000e-06	5.462676e-06	4.672612e-09	3.888177e+01	3.066974e+02
1.220000e-06	5.573297e-06	4.739545e-09	3.966914e+01	3.110444e+02
1.230000e-06	5.681993e-06	4.803234e-09	4.044280e+01	3.152281e+02
1.240000e-06	5.788689e-06	4.864873e-09	4.120224e+01	3.192663e+02
1.250000e-06	5.893207e-06	4.923451e-09	4.194617e+01	3.231699e+02
1.260000e-06	5.995527e-06	4.979991e-09	4.267445e+01	3.269432e+02
1.270000e-06	6.095693e-06	5.033766e-09	4.338740e+01	3.305836e+02
1.280000e-06	6.193502e-06	5.084334e-09	4.408358e+01	3.340837e+02
1.290000e-06	6.288895e-06	5.132572e-09	4.476256e+01	3.374326e+02
1.300000e-06	6.382112e-06	5.180215e-09	4.542605e+01	3.406190e+02
1.310000e-06	6.473146e-06	5.226850e-09	4.607400e+01	3.436329e+02
1.320000e-06	6.561809e-06	5.269750e-09	4.670509e+01	3.464677e+02
1.330000e-06	6.648098e-06	5.308262e-09	4.731927e+01	3.491218e+02
1.340000e-06	6.732147e-06	5.344038e-09	4.791750e+01	3.515991e+02
1.350000e-06	6.813757e-06	5.379188e-09	4.849838e+01	3.539085e+02
1.360000e-06	6.892812e-06	5.412941e-09	4.906107e+01	3.560632e+02
1.370000e-06	6.969385e-06	5.444628e-09	4.960609e+01	3.580787e+02
1.380000e-06	7.043313e-06	5.473519e-09	5.013229e+01	3.599714e+02
1.390000e-06	7.114606e-06	5.499949e-09	5.063974e+01	3.617564e+02
1.400000e-06	7.183426e-06	5.526047e-09	5.112958e+01	3.634461e+02
1.410000e-06	7.249654e-06	5.551224e-09	5.160097e+01	3.650488e+02
1.420000e-06	7.313215e-06	5.575250e-09	5.205337e+01	3.665687e+02
1.430000e-06	7.374380e-06	5.597645e-09	5.248873e+01	3.680061e+02
1.440000e-06	7.433062e-06	5.616454e-09	5.290641e+01	3.693582e+02
1.450000e-06	7.489098e-06	5.632897e-09	5.330526e+01	3.706205e+02
1.460000e-06	7.542422e-06	5.650310e-09	5.368481e+01	3.717885e+02
1.470000e-06	7.592616e-06	5.667582e-09	5.404207e+01	3.728589e+02
1.480000e-06	7.639714e-06	5.682015e-09	5.437730e+01	3.738309e+02
1.490000e-06	7.684202e-06	5.693545e-09	5.469396e+01	3.747071e+02
1.500000e-06	7.725999e-06	5.704197e-09	5.499145e+01	3.754930e+02
1.510000e-06	7.764909e-06	5.717176e-09	5.526840e+01	3.761970e+02
1.520000e-06	7.801174e-06	5.730517e-09	5.552653e+01	3.768291e+02
1.530000e-06	7.834701e-06	5.742464e-09	5.576517e+01	3.773997e+02
1.540000e-06	7.865371e-06	5.751927e-09	5.598346e+01	3.779180e+02
1.550000e-06	7.893389e-06	5.759021e-09	5.618289e+01	3.783910e+02
1.560000e-06	7.918523e-06	5.765872e-09	5.636178e+01	3.788222e+02
1.570000e-06	7.940663e-06	5.772838e-09	5.651937e+01	3.792116e+02
1.580000e-06	7.960076e-06	5.779228e-09	5.665755e+01	3.795558e+02
1.590000e-06	7.976629e-06	5.783745e-09	5.677537e+01	3.798483e+02
1.600000e-06	7.990146e-06	5.787183e-09	5.687158e+01	3.800813e+02
1.610000e-06	8.000501e-06	5.790802e-09	5.694528e+01	3.802468e+02
1.620000e-06	8.007782e-06	5.794369e-09	5.699710e+01	3.803377e+02
1.630000e-06	8.012317e-06	5.795497e-09	5.702938e+01	3.803498e+02
1.640000e-06	8.014019e-06	5.793999e-09	5.704150e+01	3.802817e+02
1.650000e-06	8.012896e-06	5.792437e-09	5.703351e+01	3.801362e+02
1.660000e-06	8.009202e-06	5.783264e-09	5.700721e+01	3.799189e+02
1.670000e-06	8.002790e-06	5.779963e-09	5.696157e+01	3.796385e+02
1.680000e-06	7.993649e-06	5.780137e-09	5.689651e+01	3.793051e+02
1.690000e-06	7.981863e-06	5.777430e-09	5.681262e+01	3.789289e+02
1.700000e-06	7.967277e-06	5.772971e-09	5.670880e+01	3.785191e+02
1.710000e-06	7.950080e-06	5.766905e-09	5.658640e+01	3.780824e+02
1.720000e-06	7.930588e-06	5.759518e-09	5.644766e+01	3.776226e+02
1.730000e-06	7.908583e-06	5.688674e-09	5.629103e+01	3.771399e+02
1.740000e-06	7.883308e-06	5.656627e-09	5.611114e+01	3.766313e+02
1.750000e-06	7.854334e-06	5.708865e-09	5.590490e+01	3.760913e+02
1.760000e-06	7.822064e-06	5.712000e-09	5.567522e+01	3.755124e+02
1.770000e-06	7.787318e-06	5.685284e-09	5.542791e+01	3.748866e+02
1.780000e-06	7.750353e-06	5.728159e-09	5.516480e+01	3.742066e+02
1.790000e-06	7.711131e-06	5.764775e-09	5.488563e+01	3.734662e+02
1.800000e-06	7.669788e-06	5.610831e-09	5.459136e+01	3.726613e+02
1.810000e-06	7.625913e-06	5.675787e-09	5.427907e+01	3.717899e+02
1.820000e-06	7.579370e-06	5.689523e-09	5.394779e+01	3.708520e+02
1.830000e-06	7.530169e-06	5.608701e-09	5.359759e+01	3.698491e+02
1.840000e-06	7.477948e-06	5.689303e-09	5.322590e+01	3.687837e+02
1.850000e-06	7.422800e-06	5.581567e-09	5.283337e+01	3.676578e+02
1.860000e-06	7.364920e-06	5.626938e-09	5.242140e+01	3.664731e+02
1.870000e-06	7.304381e-06	5.579029e-09	5.199050e+01	3.652299e+02
1.880000e-06	7.241123e-06	5.532298e-09	5.154025e+01	3.639270e+02
1.890000e-06	7.175071e-06	5.593091e-09	5.107011e+01	3.625621e+02
1.900000e-06	7.106247e-06	5.484813e-09	5.058023e+01	3.611317e+02
1.910000e-06	7.034587e-06	5.504047e-09	5.007019e+01	3.596323e+02
1.920000e-06	6.960262e-06	5.458616e-09	4.954116e+01	3.580603e+02
1.930000e-06	6.883228e-06	5.461272e-09	4.899285e+01	3.564136e+02
1.940000e-06	6.803381e-06	5.429492e-09	4.842452e+01	3.546910e+02
1.950000e-06	6.721052e-06	5.356349e-09	4.783853e+01	3.528931e+02
1.960000e-06	6.636255e-06	5.390835e-09	4.723497e+01	3.510218e+02
1.970000e-06	6.548958e-06	5.307974e-09	4.661361e+01	3.490802e+02
1.980000e-06	6.459338e-06	5.300505e-09	4.597572e+01	3.470713e+02
1.990000e-06	6.367502e-06	5.274740e-09	4.532206e+01	3.449979e+02
2.000000e-06	6.273382e-06	5.252416e-09	4.465215e+01	3.428618e+02
2.010000e-06	6.176981e-06	5.197803e-09	4.396599e+01	3.406626e+02
2.020000e-06	6.078440e-06	5.142008e-09	4.326460e+01	3.383984e+02
2.030000e-06	5.977727e-06	5.134145e-09	4.254775e+01	3.360652e+02
2.040000e-06	5.874859e-06	5.092883e-09	4.181557e+01	3.336574e+02
2.050000e-06	5.769881e-06	5.062969e-09	4.106837e+01	3.311688e+02
2.060000e-06	5.662991e-06	5.009599e-09	4.030755e+01	3.285928e+02
2.070000e-06	5.554211e-06	4.984777e-09	3.953329e+01	3.259239e+02
2.080000e-06	5.443421e-06	4.930587e-09	3.874471e+01	3.231579e+02
2.090000e-06	5.330578e-06	4.885281e-09	3.794154e+01	3.202925e+02
2.100000e-06	5.215654e-06	4.844548e-09	3.712354e+01	3.173276e+02
2.110000e-06	5.098762e-06	4.805312e-09	3.629153e+01	3.142642e+02
2.120000e-06	4.979917e-06	4.751658e-09	3.544563e+01	3.111047e+02
2.130000e-06	4.859136e-06	4.695606e-09	3.458594e+01	3.078513e+02
2.140000e-06	4.736586e-06	4.654807e-09	3.371367e+01	3.045052e+02
2.150000e-06	4.612314e-06	4.604295e-09	3.282913e+01	3.010662e+02
2.160000e-06	4.486345e-06	4.550589e-09	3.193253e+01	2.975311e+02
2.170000e-06	4.358746e-06	4.487444e-09	3.102431e+01	2.938947e+02
2.180000e-06	4.229541e-06	4.437520e-09	3.010467e+01	2.901489e+02
2.190000e-06	4.098869e-06	4.378948e-09	2.917458e+01	2.862842e+02
2.200000e-06	3.966651e-06	4.319486e-09	2.823349e+01	2.822903e+02
2.210000e-06	3.832949e-06	4.253715e-09	2.728183e+01	2.781575e+02
2.220000e-06	3.697866e-06	4.190342e-09	2.632036e+01	2.738777e+02
2.230000e-06	3.561317e-06	4.121825e-09	2.534844e+01	2.694454e+02
2.240000e-06	3.423412e-06	4.052280e-09	2.436687e+01	2.648583e+02
2.250000e-06	3.284217e-06	3.983668e-09	2.337612e+01	2.601172e+02
2.260000e-06	3.143710e-06	3.910064e-09	2.237603e+01	2.552254e+02
2.270000e-06	3.001944e-06	3.830291e-09	2.136698e+01	2.501873e+02
2.280000e-06	2.859015e-06	3.745290e-09	2.034965e+01	2.450076e+02
2.290000e-06	2.714950e-06	3.664066e-09	1.932424e+01	2.396887e+02
2.300000e-06	2.569916e-06	3.580000e-09	1.829193e+01	2.342299e+02
2.310000e-06	2.424143e-06	3.496345e-09	1.725436e+01	2.286259e+02
2.320000e-06	2.277711e-06	3.408643e-09	1.621210e+01	2.228665e+02
2.330000e-06	2.130500e-06	3.316681e-09	1.516429e+01	2.169365e+02
2.340000e-06	1.982359e-06	3.222004e-09	1.410987e+01	2.108169e+02
2.350000e-06	1.833443e-06	3.126220e-09	1.304992e+01	2.044862e+02
2.360000e-06	1.683944e-06	3.026145e-09	1.198583e+01	1.979229e+02
2.370000e-06	1.533961e-06	2.920059e-09	1.091830e+01	1.911070e+02
2.380000e-06	1.383561e-06	2.811584e-09	9.847795e+00	1.840224e+02
2.390000e-06	1.232747e-06	2.698941e-09	8.774341e+00	1.766576e+02
2.400000e-06	1.081546e-06	2.580760e-09	7.698136e+00	1.690068e+02
2.410000e-06	9.299588e-07	2.459997e-09	6.619181e+00	1.610689e+02
2.420000e-06	7.780004e-07	2.337538e-09	5.537584e+00	1.528459e+02
2.430000e-06	6.257689e-07	2.210351e-09	4.454044e+00	1.443409e+02
2.440000e-06	4.733297e-07	2.075793e-09	3.369026e+00	1.355549e+02
2.450000e-06	3.206643e-07	1.937858e-09	2.282397e+00	1.264839e+02
2.460000e-06	1.677796e-07	1.798596e-09	1.194207e+00	1.171165e+02
2.470000e-06	1.478061e-08	1.652425e-09	1.052042e-01	1.074320e+02
2.480000e-06	-1.382254e-07	1.498304e-09	-9.838486e-01	9.740074e+01
2.490000e-06	-2.912052e-07	1.338853e-09	-2.072715e+00	8.698462e+01
2.500000e-06	-4.441062e-07	1.173743e-09	-3.161021e+00	7.614049e+01
2.510000e-06	-5.968436e-07	1.002847e-09	-4.248162e+00	6.482440e+01
2.520000e-06	-7.493635e-07	8.246367e-10	-5.333755e+00	5.299699e+01
2.530000e-06	-9.016039e-07	6.361274e-10	-6.417359e+00	4.062950e+01
2.540000e-06	-1.053523e-06	4.374353e-10	-7.498675e+00	2.770961e+01
2.550000e-06	-1.204995e-06	2.294259e-10	-8.576810e+00	1.424637e+01
2.560000e-06	-1.355948e-06	1.429489e-11	-9.651250e+00	2.736720e-01
2.570000e-06	-1.506468e-06	-2.064123e-10	-1.072261e+01	-1.414823e+01
2.580000e-06	-1.656534e-06	-4.304238e-10	-1.179074e+01	-2.893359e+01
2.590000e-06	-1.806031e-06	-6.574270e-10	-1.285481e+01	-4.397433e+01
2.600000e-06	-1.954824e-06	-8.889368e-10	-1.391388e+01	-5.914528e+01
2.610000e-06	-2.102778e-06	-1.123232e-09	-1.496698e+01	-7.431110e+01
2.620000e-06	-2.249888e-06	-1.356678e-09	-1.601406e+01	-8.933413e+01
2.630000e-06	-2.396214e-06	-1.583872e-09	-1.705557e+01	-1.040825e+02
2.640000e-06	-2.541720e-06	-1.803635e-09	-1.809123e+01	-1.184374e+02
2.650000e-06	-2.686263e-06	-2.017342e-09	-1.912005e+01	-1.322994e+02
2.660000e-06	-2.829748e-06	-2.222573e-09	-2.014134e+01	-1.455928e+02
2.670000e-06	-2.972148e-06	-2.418596e-09	-2.115490e+01	-1.582672e+02
2.680000e-06	-3.113302e-06	-2.603305e-09	-2.215960e+01	-1.702975e+02
2.690000e-06	-3.253117e-06	-2.774677e-09	-2.315476e+01	-1.816819e+02
2.700000e-06	-3.391691e-06	-2.934355e-09	-2.414109e+01	-1.924372e+02
2.710000e-06	-3.529032e-06	-3.086154e-09	-2.511865e+01	-2.025941e+02
2.720000e-06	-3.665021e-06	-3.233808e-09	-2.608657e+01	-2.121916e+02
2.730000e-06	-3.799701e-06	-3.374657e-09	-2.704519e+01	-2.212718e+02
2.740000e-06	-3.933021e-06	-3.508725e-09	-2.799412e+01	-2.298753e+02
2.750000e-06	-4.064875e-06	-3.636536e-09	-2.893262e+01	-2.380378e+02
2.760000e-06	-4.195391e-06	-3.755795e-09	-2.986160e+01	-2.457891e+02
2.770000e-06	-4.324564e-06	-3.867109e-09	-3.078101e+01	-2.531518e+02
2.780000e-06	-4.452183e-06	-3.973415e-09	-3.168936e+01	-2.601431e+02
2.790000e-06	-4.578210e-06	-4.074815e-09	-3.258639e+01	-2.667763e+02
2.800000e-06	-4.702637e-06	-4.168713e-09	-3.347203e+01	-2.730634e+02
2.810000e-06	-4.825410e-06	-4.255925e-09	-3.434589e+01	-2.790171e+02
2.820000e-06	-4.946539e-06	-4.339979e-09	-3.520805e+01	-2.846529e+02
2.830000e-06	-5.065820e-06	-4.422282e-09	-3.605706e+01	-2.899902e+02
2.840000e-06	-5.182974e-06	-4.501616e-09	-3.689093e+01	-2.950522e+02
2.850000e-06	-5.298012e-06	-4.576742e-09	-3.770974e+01	-2.998653e+02
2.860000e-06	-5.410987e-06	-4.649168e-09	-3.851386e+01	-3.044573e+02
2.870000e-06	-5.521792e-06	-4.718877e-09	-3.930254e+01	-3.088556e+02
2.880000e-06	-5.630595e-06	-4.783871e-09	-4.007697e+01	-3.130843e+02
2.890000e-06	-5.737569e-06	-4.845587e-09	-4.083838e+01	-3.171631e+02
2.900000e-06	-5.842589e-06	-4.905658e-09	-4.158588e+01	-3.211050e+02
2.910000e-06	-5.945384e-06	-4.965821e-09	-4.231755e+01	-3.249159e+02
2.920000e-06	-6.045864e-06	-5.024004e-09	-4.303274e+01	-3.285954e+02
2.930000e-06	-6.144178e-06	-5.079222e-09	-4.373250e+01	-3.321370e+02
2.940000e-06	-6.240381e-06	-5.133410e-09	-4.441725e+01	-3.355308e+02
