# Temperatura_=_34.34
# Concentracion g/m^3_=_5000.0
# C_Vs_to_Am_M_A/Vsm_=_65563218390.804596
# pendiente_HvsI_1/m_=_3716.3
# ordenada_HvsI_A/m_=_1297.0
# frecuencia_Hz_=_302492.2638143478

Tiempo_(s)	Campo_(V.s)	Magnetizacion_(V.s)	Campo_(kA/m)	Magnetizacion_(A/m)
0.000000e+00	-7.930460e-06	-5.690969e-09	-5.686761e+01	-3.724150e+02
1.000000e-08	-7.925846e-06	-5.688767e-09	-5.683452e+01	-3.722248e+02
2.000000e-08	-7.918675e-06	-5.682819e-09	-5.678310e+01	-3.719732e+02
3.000000e-08	-7.908752e-06	-5.682802e-09	-5.671195e+01	-3.716683e+02
4.000000e-08	-7.895930e-06	-5.681873e-09	-5.662000e+01	-3.713188e+02
5.000000e-08	-7.880211e-06	-5.675374e-09	-5.650729e+01	-3.709327e+02
6.000000e-08	-7.861912e-06	-5.666178e-09	-5.637607e+01	-3.705165e+02
7.000000e-08	-7.841365e-06	-5.651496e-09	-5.622873e+01	-3.700743e+02
8.000000e-08	-7.818176e-06	-5.682319e-09	-5.606244e+01	-3.696078e+02
9.000000e-08	-7.791821e-06	-5.728156e-09	-5.587346e+01	-3.691158e+02
1.000000e-07	-7.762304e-06	-5.666758e-09	-5.566180e+01	-3.685950e+02
1.100000e-07	-7.729952e-06	-5.613133e-09	-5.542981e+01	-3.680403e+02
1.200000e-07	-7.694916e-06	-5.615378e-09	-5.517858e+01	-3.674458e+02
1.300000e-07	-7.657446e-06	-5.604392e-09	-5.490989e+01	-3.668056e+02
1.400000e-07	-7.617917e-06	-5.556888e-09	-5.462643e+01	-3.661144e+02
1.500000e-07	-7.576101e-06	-5.557902e-09	-5.432658e+01	-3.653679e+02
1.600000e-07	-7.531607e-06	-5.639655e-09	-5.400752e+01	-3.645631e+02
1.700000e-07	-7.484493e-06	-5.510268e-09	-5.366968e+01	-3.636984e+02
1.800000e-07	-7.434548e-06	-5.513105e-09	-5.331153e+01	-3.627731e+02
1.900000e-07	-7.381520e-06	-5.558526e-09	-5.293128e+01	-3.617867e+02
2.000000e-07	-7.325680e-06	-5.466768e-09	-5.253086e+01	-3.607391e+02
2.100000e-07	-7.267184e-06	-5.502516e-09	-5.211140e+01	-3.596294e+02
2.200000e-07	-7.206073e-06	-5.467514e-09	-5.167319e+01	-3.584563e+02
2.300000e-07	-7.142353e-06	-5.452580e-09	-5.121626e+01	-3.572176e+02
2.400000e-07	-7.075875e-06	-5.419323e-09	-5.073957e+01	-3.559106e+02
2.500000e-07	-7.006768e-06	-5.398102e-09	-5.024402e+01	-3.545325e+02
2.600000e-07	-6.934984e-06	-5.393480e-09	-4.972927e+01	-3.530809e+02
2.700000e-07	-6.860384e-06	-5.346164e-09	-4.919433e+01	-3.515538e+02
2.800000e-07	-6.782918e-06	-5.320196e-09	-4.863883e+01	-3.499509e+02
2.900000e-07	-6.702656e-06	-5.278572e-09	-4.806329e+01	-3.482728e+02
3.000000e-07	-6.620036e-06	-5.288750e-09	-4.747084e+01	-3.465217e+02
3.100000e-07	-6.535211e-06	-5.267339e-09	-4.686258e+01	-3.447007e+02
3.200000e-07	-6.448138e-06	-5.212250e-09	-4.623820e+01	-3.428133e+02
3.300000e-07	-6.358740e-06	-5.199810e-09	-4.559715e+01	-3.408627e+02
3.400000e-07	-6.266983e-06	-5.166309e-09	-4.493918e+01	-3.388512e+02
3.500000e-07	-6.173007e-06	-5.130290e-09	-4.426529e+01	-3.367794e+02
3.600000e-07	-6.076804e-06	-5.094428e-09	-4.357544e+01	-3.346460e+02
3.700000e-07	-5.978329e-06	-5.078783e-09	-4.286930e+01	-3.324475e+02
3.800000e-07	-5.877684e-06	-5.045586e-09	-4.214760e+01	-3.301786e+02
3.900000e-07	-5.775034e-06	-4.992070e-09	-4.141152e+01	-3.278326e+02
4.000000e-07	-5.670333e-06	-4.952479e-09	-4.066073e+01	-3.254023e+02
4.100000e-07	-5.563532e-06	-4.916422e-09	-3.989488e+01	-3.228808e+02
4.200000e-07	-5.454748e-06	-4.882582e-09	-3.911481e+01	-3.202624e+02
4.300000e-07	-5.344102e-06	-4.826518e-09	-3.832140e+01	-3.175434e+02
4.400000e-07	-5.231494e-06	-4.783190e-09	-3.751391e+01	-3.147221e+02
4.500000e-07	-5.116745e-06	-4.748166e-09	-3.669107e+01	-3.117993e+02
4.600000e-07	-5.000015e-06	-4.703891e-09	-3.585402e+01	-3.087774e+02
4.700000e-07	-4.881529e-06	-4.653466e-09	-3.500439e+01	-3.056600e+02
4.800000e-07	-4.761271e-06	-4.607129e-09	-3.414204e+01	-3.024506e+02
4.900000e-07	-4.639197e-06	-4.557801e-09	-3.326667e+01	-2.991517e+02
5.000000e-07	-4.515431e-06	-4.495391e-09	-3.237917e+01	-2.957641e+02
5.100000e-07	-4.390081e-06	-4.439989e-09	-3.148032e+01	-2.922855e+02
5.200000e-07	-4.263150e-06	-4.391794e-09	-3.057013e+01	-2.887112e+02
5.300000e-07	-4.134741e-06	-4.338148e-09	-2.964933e+01	-2.850335e+02
5.400000e-07	-4.004811e-06	-4.271333e-09	-2.871763e+01	-2.812428e+02
5.500000e-07	-3.873233e-06	-4.205555e-09	-2.777411e+01	-2.773284e+02
5.600000e-07	-3.740207e-06	-4.145904e-09	-2.682022e+01	-2.732799e+02
5.700000e-07	-3.605845e-06	-4.081938e-09	-2.585673e+01	-2.690884e+02
5.800000e-07	-3.470122e-06	-4.016991e-09	-2.488349e+01	-2.647472e+02
5.900000e-07	-3.333007e-06	-3.951553e-09	-2.390027e+01	-2.602528e+02
6.000000e-07	-3.194471e-06	-3.882423e-09	-2.290686e+01	-2.556050e+02
6.100000e-07	-3.054526e-06	-3.806252e-09	-2.190335e+01	-2.508058e+02
6.200000e-07	-2.913257e-06	-3.730063e-09	-2.089033e+01	-2.458593e+02
6.300000e-07	-2.770858e-06	-3.654059e-09	-1.986922e+01	-2.407692e+02
6.400000e-07	-2.627380e-06	-3.572956e-09	-1.884037e+01	-2.355383e+02
6.500000e-07	-2.482884e-06	-3.489451e-09	-1.780422e+01	-2.301659e+02
6.600000e-07	-2.337548e-06	-3.404667e-09	-1.676205e+01	-2.246476e+02
6.700000e-07	-2.191443e-06	-3.319489e-09	-1.571437e+01	-2.189740e+02
6.800000e-07	-2.044615e-06	-3.231591e-09	-1.466149e+01	-2.131308e+02
6.900000e-07	-1.897179e-06	-3.141111e-09	-1.360426e+01	-2.071003e+02
7.000000e-07	-1.749205e-06	-3.044423e-09	-1.254317e+01	-2.008621e+02
7.100000e-07	-1.600736e-06	-2.942484e-09	-1.147853e+01	-1.943951e+02
7.200000e-07	-1.451724e-06	-2.839193e-09	-1.041000e+01	-1.876799e+02
7.300000e-07	-1.302226e-06	-2.733169e-09	-9.337977e+00	-1.807006e+02
7.400000e-07	-1.152383e-06	-2.621455e-09	-8.263486e+00	-1.734457e+02
7.500000e-07	-1.002193e-06	-2.507388e-09	-7.186511e+00	-1.659092e+02
7.600000e-07	-8.516811e-07	-2.393321e-09	-6.107220e+00	-1.580900e+02
7.700000e-07	-7.008438e-07	-2.271672e-09	-5.025599e+00	-1.499905e+02
7.800000e-07	-5.496622e-07	-2.143232e-09	-3.941509e+00	-1.416145e+02
7.900000e-07	-3.982613e-07	-2.010645e-09	-2.855845e+00	-1.329647e+02
8.000000e-07	-2.467046e-07	-1.873309e-09	-1.769065e+00	-1.240394e+02
8.100000e-07	-9.501802e-08	-1.728677e-09	-6.813536e-01	-1.148304e+02
8.200000e-07	5.675658e-08	-1.578649e-09	4.069891e-01	-1.053209e+02
8.300000e-07	2.085918e-07	-1.427716e-09	1.495767e+00	-9.548538e+01
8.400000e-07	3.603917e-07	-1.273490e-09	2.584291e+00	-8.529014e+01
8.500000e-07	5.120844e-07	-1.110638e-09	3.672046e+00	-7.469596e+01
8.600000e-07	6.635983e-07	-9.401508e-10	4.758519e+00	-6.366192e+01
8.700000e-07	8.148666e-07	-7.662231e-10	5.843232e+00	-5.215044e+01
8.800000e-07	9.658447e-07	-5.848018e-10	6.925863e+00	-4.013278e+01
8.900000e-07	1.116420e-06	-3.976707e-10	8.005608e+00	-2.759470e+01
9.000000e-07	1.266629e-06	-2.039267e-10	9.082719e+00	-1.454127e+01
9.100000e-07	1.416475e-06	-1.085612e-12	1.015724e+01	-1.000469e+00
9.200000e-07	1.565805e-06	2.127170e-10	1.122805e+01	1.297505e+01
9.300000e-07	1.714587e-06	4.350845e-10	1.229493e+01	2.730835e+01
9.400000e-07	1.862787e-06	6.581370e-10	1.335764e+01	4.190078e+01
9.500000e-07	2.010344e-06	8.827049e-10	1.441574e+01	5.663659e+01
9.600000e-07	2.157140e-06	1.106305e-09	1.546839e+01	7.138917e+01
9.700000e-07	2.303070e-06	1.326655e-09	1.651482e+01	8.602835e+01
9.800000e-07	2.448190e-06	1.542665e-09	1.755544e+01	1.004279e+02
9.900000e-07	2.592428e-06	1.753918e-09	1.858974e+01	1.144730e+02
1.000000e-06	2.735632e-06	1.960022e-09	1.961662e+01	1.280656e+02
1.010000e-06	2.877778e-06	2.158256e-09	2.063592e+01	1.411295e+02
1.020000e-06	3.018779e-06	2.346308e-09	2.164701e+01	1.536122e+02
1.030000e-06	3.158545e-06	2.524787e-09	2.264924e+01	1.654852e+02
1.040000e-06	3.296988e-06	2.694209e-09	2.364199e+01	1.767420e+02
1.050000e-06	3.434096e-06	2.854842e-09	2.462516e+01	1.873950e+02
1.060000e-06	3.569902e-06	3.007124e-09	2.559899e+01	1.974702e+02
1.070000e-06	3.704405e-06	3.151738e-09	2.656348e+01	2.070025e+02
1.080000e-06	3.837597e-06	3.288238e-09	2.751857e+01	2.160306e+02
1.090000e-06	3.969394e-06	3.418912e-09	2.846366e+01	2.245926e+02
1.100000e-06	4.099737e-06	3.543388e-09	2.939832e+01	2.327227e+02
1.110000e-06	4.228670e-06	3.663157e-09	3.032288e+01	2.404493e+02
1.120000e-06	4.356131e-06	3.778739e-09	3.123687e+01	2.477947e+02
1.130000e-06	4.482077e-06	3.887497e-09	3.214000e+01	2.547754e+02
1.140000e-06	4.606581e-06	3.989079e-09	3.303279e+01	2.614042e+02
1.150000e-06	4.729484e-06	4.084482e-09	3.391410e+01	2.676923e+02
1.160000e-06	4.850676e-06	4.172642e-09	3.478315e+01	2.736510e+02
1.170000e-06	4.970061e-06	4.254041e-09	3.563923e+01	2.792944e+02
1.180000e-06	5.087599e-06	4.331538e-09	3.648207e+01	2.846400e+02
1.190000e-06	5.203279e-06	4.406975e-09	3.731159e+01	2.897090e+02
1.200000e-06	5.316947e-06	4.481947e-09	3.812667e+01	2.945260e+02
1.210000e-06	5.428540e-06	4.554538e-09	3.892688e+01	2.991174e+02
1.220000e-06	5.538191e-06	4.624857e-09	3.971317e+01	3.035095e+02
1.230000e-06	5.645969e-06	4.691279e-09	4.048602e+01	3.077265e+02
1.240000e-06	5.751729e-06	4.753361e-09	4.124440e+01	3.117882e+02
1.250000e-06	5.855321e-06	4.810737e-09	4.198724e+01	3.157086e+02
1.260000e-06	5.956737e-06	4.864354e-09	4.271447e+01	3.194952e+02
1.270000e-06	6.055977e-06	4.914652e-09	4.342610e+01	3.231489e+02
1.280000e-06	6.152908e-06	4.964583e-09	4.412117e+01	3.266649e+02
1.290000e-06	6.247565e-06	5.016879e-09	4.479993e+01	3.300345e+02
1.300000e-06	6.340014e-06	5.068544e-09	4.546287e+01	3.332467e+02
1.310000e-06	6.430228e-06	5.114334e-09	4.610977e+01	3.362909e+02
1.320000e-06	6.518123e-06	5.153842e-09	4.674005e+01	3.391590e+02
1.330000e-06	6.603690e-06	5.192667e-09	4.735363e+01	3.418467e+02
1.340000e-06	6.687014e-06	5.230998e-09	4.795113e+01	3.443548e+02
1.350000e-06	6.767916e-06	5.264827e-09	4.853126e+01	3.466894e+02
1.360000e-06	6.846282e-06	5.295057e-09	4.909320e+01	3.488614e+02
1.370000e-06	6.922177e-06	5.324294e-09	4.963743e+01	3.508851e+02
1.380000e-06	6.995407e-06	5.353276e-09	5.016255e+01	3.527768e+02
1.390000e-06	7.066033e-06	5.381437e-09	5.066899e+01	3.545529e+02
1.400000e-06	7.134238e-06	5.408133e-09	5.115807e+01	3.562280e+02
1.410000e-06	7.199874e-06	5.432590e-09	5.162874e+01	3.578139e+02
1.420000e-06	7.262930e-06	5.454876e-09	5.208089e+01	3.593186e+02
1.430000e-06	7.323589e-06	5.475934e-09	5.251587e+01	3.607458e+02
1.440000e-06	7.381790e-06	5.496392e-09	5.293322e+01	3.620960e+02
1.450000e-06	7.437274e-06	5.514065e-09	5.333108e+01	3.633667e+02
1.460000e-06	7.489908e-06	5.528273e-09	5.370851e+01	3.645542e+02
1.470000e-06	7.539492e-06	5.541482e-09	5.406406e+01	3.656548e+02
1.480000e-06	7.586156e-06	5.555203e-09	5.439868e+01	3.666657e+02
1.490000e-06	7.630195e-06	5.569643e-09	5.471448e+01	3.675868e+02
1.500000e-06	7.671472e-06	5.585680e-09	5.501046e+01	3.684202e+02
1.510000e-06	7.709925e-06	5.601467e-09	5.528620e+01	3.691708e+02
1.520000e-06	7.745767e-06	5.614165e-09	5.554321e+01	3.698454e+02
1.530000e-06	7.778854e-06	5.622798e-09	5.578048e+01	3.704521e+02
1.540000e-06	7.809119e-06	5.628535e-09	5.599750e+01	3.709988e+02
1.550000e-06	7.836712e-06	5.634701e-09	5.619536e+01	3.714925e+02
1.560000e-06	7.861414e-06	5.642116e-09	5.637250e+01	3.719379e+02
1.570000e-06	7.883228e-06	5.649032e-09	5.652892e+01	3.723370e+02
1.580000e-06	7.902346e-06	5.655067e-09	5.666601e+01	3.726891e+02
1.590000e-06	7.918592e-06	5.661592e-09	5.678251e+01	3.729908e+02
1.600000e-06	7.931779e-06	5.667725e-09	5.687706e+01	3.732369e+02
1.610000e-06	7.941851e-06	5.671817e-09	5.694929e+01	3.734212e+02
1.620000e-06	7.948917e-06	5.673363e-09	5.699996e+01	3.735381e+02
1.630000e-06	7.953219e-06	5.674139e-09	5.703081e+01	3.735832e+02
1.640000e-06	7.954710e-06	5.676056e-09	5.704150e+01	3.735544e+02
1.650000e-06	7.953393e-06	5.676960e-09	5.703205e+01	3.734524e+02
1.660000e-06	7.949469e-06	5.667236e-09	5.700392e+01	3.732808e+02
1.670000e-06	7.942902e-06	5.663994e-09	5.695683e+01	3.730456e+02
1.680000e-06	7.933700e-06	5.662015e-09	5.689084e+01	3.727547e+02
1.690000e-06	7.921811e-06	5.657059e-09	5.680559e+01	3.724167e+02
1.700000e-06	7.907083e-06	5.655552e-09	5.669998e+01	3.720399e+02
1.710000e-06	7.889811e-06	5.657512e-09	5.657613e+01	3.716314e+02
1.720000e-06	7.870359e-06	5.660318e-09	5.643664e+01	3.711960e+02
1.730000e-06	7.848385e-06	5.575661e-09	5.627907e+01	3.707361e+02
1.740000e-06	7.823145e-06	5.542679e-09	5.609807e+01	3.702513e+02
1.750000e-06	7.794253e-06	5.606237e-09	5.589090e+01	3.697388e+02
1.760000e-06	7.762041e-06	5.602061e-09	5.565991e+01	3.691940e+02
1.770000e-06	7.727303e-06	5.571379e-09	5.541081e+01	3.686112e+02
1.780000e-06	7.690292e-06	5.623303e-09	5.514541e+01	3.679843e+02
1.790000e-06	7.651065e-06	5.652773e-09	5.486413e+01	3.673077e+02
1.800000e-06	7.609787e-06	5.498157e-09	5.456813e+01	3.665770e+02
1.810000e-06	7.566136e-06	5.581155e-09	5.425512e+01	3.657888e+02
1.820000e-06	7.519856e-06	5.580436e-09	5.392326e+01	3.649410e+02
1.830000e-06	7.470847e-06	5.522849e-09	5.357183e+01	3.640326e+02
1.840000e-06	7.418899e-06	5.606467e-09	5.319932e+01	3.630634e+02
1.850000e-06	7.364056e-06	5.471118e-09	5.280605e+01	3.620329e+02
1.860000e-06	7.306459e-06	5.527257e-09	5.239303e+01	3.609407e+02
1.870000e-06	7.246300e-06	5.462436e-09	5.196165e+01	3.597855e+02
1.880000e-06	7.183411e-06	5.430355e-09	5.151068e+01	3.585655e+02
1.890000e-06	7.117672e-06	5.506601e-09	5.103928e+01	3.572779e+02
1.900000e-06	7.049227e-06	5.402907e-09	5.054848e+01	3.559201e+02
1.910000e-06	6.977950e-06	5.432526e-09	5.003737e+01	3.544893e+02
1.920000e-06	6.904040e-06	5.367552e-09	4.950737e+01	3.529836e+02
1.930000e-06	6.827395e-06	5.391391e-09	4.895777e+01	3.514020e+02
1.940000e-06	6.747988e-06	5.362577e-09	4.838836e+01	3.497448e+02
1.950000e-06	6.666182e-06	5.289382e-09	4.780175e+01	3.480140e+02
1.960000e-06	6.581987e-06	5.318692e-09	4.719800e+01	3.462123e+02
1.970000e-06	6.495285e-06	5.223964e-09	4.657628e+01	3.443431e+02
1.980000e-06	6.406158e-06	5.224238e-09	4.593717e+01	3.424099e+02
1.990000e-06	6.314887e-06	5.192245e-09	4.528269e+01	3.404153e+02
2.000000e-06	6.221402e-06	5.192022e-09	4.461233e+01	3.383604e+02
2.010000e-06	6.125617e-06	5.141799e-09	4.392547e+01	3.362445e+02
2.020000e-06	6.027646e-06	5.085863e-09	4.322294e+01	3.340647e+02
2.030000e-06	5.927596e-06	5.071657e-09	4.250551e+01	3.318162e+02
2.040000e-06	5.825417e-06	5.034730e-09	4.177280e+01	3.294926e+02
2.050000e-06	5.721041e-06	5.012627e-09	4.102434e+01	3.270868e+02
2.060000e-06	5.614750e-06	4.948358e-09	4.026216e+01	3.245916e+02
2.070000e-06	5.506645e-06	4.923435e-09	3.948696e+01	3.220010e+02
2.080000e-06	5.396589e-06	4.868016e-09	3.869777e+01	3.193106e+02
2.090000e-06	5.284480e-06	4.832060e-09	3.789386e+01	3.165183e+02
2.100000e-06	5.170366e-06	4.795808e-09	3.707557e+01	3.136239e+02
2.110000e-06	5.054317e-06	4.765463e-09	3.624341e+01	3.106297e+02
2.120000e-06	4.936269e-06	4.708650e-09	3.539691e+01	3.075388e+02
2.130000e-06	4.816252e-06	4.647153e-09	3.453630e+01	3.043550e+02
2.140000e-06	4.694511e-06	4.604745e-09	3.366332e+01	3.010812e+02
2.150000e-06	4.571121e-06	4.558428e-09	3.277851e+01	2.977186e+02
2.160000e-06	4.446003e-06	4.507212e-09	3.188133e+01	2.942660e+02
2.170000e-06	4.319183e-06	4.442409e-09	3.097192e+01	2.907194e+02
2.180000e-06	4.190731e-06	4.392578e-09	3.005082e+01	2.870718e+02
2.190000e-06	4.060828e-06	4.334299e-09	2.911932e+01	2.833141e+02
2.200000e-06	3.929467e-06	4.283234e-09	2.817736e+01	2.794358e+02
2.210000e-06	3.796660e-06	4.225107e-09	2.722502e+01	2.754263e+02
2.220000e-06	3.662401e-06	4.164892e-09	2.626228e+01	2.712760e+02
2.230000e-06	3.526744e-06	4.088327e-09	2.528952e+01	2.669777e+02
2.240000e-06	3.389786e-06	4.014551e-09	2.430742e+01	2.625269e+02
2.250000e-06	3.251575e-06	3.948646e-09	2.331634e+01	2.579224e+02
2.260000e-06	3.112165e-06	3.881415e-09	2.231666e+01	2.531658e+02
2.270000e-06	2.971473e-06	3.805721e-09	2.130779e+01	2.482606e+02
2.280000e-06	2.829533e-06	3.724622e-09	2.028996e+01	2.432108e+02
2.290000e-06	2.686461e-06	3.647140e-09	1.926403e+01	2.380197e+02
2.300000e-06	2.542457e-06	3.567790e-09	1.823140e+01	2.326876e+02
2.310000e-06	2.397589e-06	3.491247e-09	1.719259e+01	2.272114e+02
2.320000e-06	2.251947e-06	3.407453e-09	1.614822e+01	2.215830e+02
2.330000e-06	2.105623e-06	3.312972e-09	1.509897e+01	2.157896e+02
2.340000e-06	1.958528e-06	3.213736e-09	1.404418e+01	2.098143e+02
2.350000e-06	1.810747e-06	3.119624e-09	1.298448e+01	2.036372e+02
2.360000e-06	1.662421e-06	3.026163e-09	1.192086e+01	1.972373e+02
2.370000e-06	1.513638e-06	2.923465e-09	1.085397e+01	1.905945e+02
2.380000e-06	1.364390e-06	2.815720e-09	9.783744e+00	1.836917e+02
2.390000e-06	1.214663e-06	2.706592e-09	8.710082e+00	1.765160e+02
2.400000e-06	1.064504e-06	2.594112e-09	7.633331e+00	1.690599e+02
2.410000e-06	9.139693e-07	2.480214e-09	6.553876e+00	1.613210e+02
2.420000e-06	7.631255e-07	2.363525e-09	5.472207e+00	1.533008e+02
2.430000e-06	6.119915e-07	2.238482e-09	4.388458e+00	1.450031e+02
2.440000e-06	4.606091e-07	2.102393e-09	3.302928e+00	1.364312e+02
2.450000e-06	3.090553e-07	1.965048e-09	2.216169e+00	1.275847e+02
2.460000e-06	1.573979e-07	1.829963e-09	1.128666e+00	1.184577e+02
2.470000e-06	5.674741e-09	1.688936e-09	4.069234e-02	1.090359e+02
2.480000e-06	-1.460701e-07	1.539901e-09	-1.047437e+00	9.929633e+01
2.490000e-06	-2.977759e-07	1.385445e-09	-2.135286e+00	8.920733e+01
2.500000e-06	-4.494046e-07	1.225863e-09	-3.222583e+00	7.873097e+01
2.510000e-06	-6.009401e-07	1.061204e-09	-4.309211e+00	6.782633e+01
2.520000e-06	-7.523111e-07	8.906745e-10	-5.394660e+00	5.645433e+01
2.530000e-06	-9.034024e-07	7.103686e-10	-6.478103e+00	4.458312e+01
2.540000e-06	-1.054116e-06	5.189546e-10	-7.558834e+00	3.219378e+01
2.550000e-06	-1.204449e-06	3.174313e-10	-8.636841e+00	1.928543e+01
2.560000e-06	-1.354373e-06	1.112035e-10	-9.711912e+00	5.879241e+00
2.570000e-06	-1.503817e-06	-9.822026e-11	-1.078354e+01	-7.979247e+00
2.580000e-06	-1.652765e-06	-3.136181e-10	-1.185162e+01	-2.221987e+01
2.590000e-06	-1.801136e-06	-5.347784e-10	-1.291556e+01	-3.674979e+01
2.600000e-06	-1.948779e-06	-7.603155e-10	-1.397427e+01	-5.145756e+01
2.610000e-06	-2.095646e-06	-9.872642e-10	-1.502743e+01	-6.621898e+01
2.620000e-06	-2.241772e-06	-1.214477e-09	-1.607526e+01	-8.090411e+01
2.630000e-06	-2.387096e-06	-1.438538e-09	-1.711735e+01	-9.538486e+01
2.640000e-06	-2.531538e-06	-1.657011e-09	-1.815311e+01	-1.095424e+02
2.650000e-06	-2.674992e-06	-1.870750e-09	-1.918178e+01	-1.232734e+02
2.660000e-06	-2.817292e-06	-2.076524e-09	-2.020219e+01	-1.364951e+02
2.670000e-06	-2.958446e-06	-2.269497e-09	-2.121438e+01	-1.491482e+02
2.680000e-06	-3.098382e-06	-2.450512e-09	-2.221783e+01	-1.611973e+02
2.690000e-06	-3.237068e-06	-2.621496e-09	-2.321231e+01	-1.726301e+02
2.700000e-06	-3.374591e-06	-2.784607e-09	-2.419846e+01	-1.834538e+02
2.710000e-06	-3.510874e-06	-2.941810e-09	-2.517572e+01	-1.936911e+02
2.720000e-06	-3.645812e-06	-3.091349e-09	-2.614333e+01	-2.033750e+02
2.730000e-06	-3.779387e-06	-3.231421e-09	-2.710117e+01	-2.125436e+02
2.740000e-06	-3.911645e-06	-3.365564e-09	-2.804956e+01	-2.212354e+02
2.750000e-06	-4.042557e-06	-3.495575e-09	-2.898830e+01	-2.294860e+02
2.760000e-06	-4.172123e-06	-3.618433e-09	-2.991739e+01	-2.373258e+02
2.770000e-06	-4.300266e-06	-3.733119e-09	-3.083628e+01	-2.447785e+02
2.780000e-06	-4.426867e-06	-3.840677e-09	-3.174411e+01	-2.518623e+02
2.790000e-06	-4.551955e-06	-3.941203e-09	-3.264108e+01	-2.585909e+02
2.800000e-06	-4.675454e-06	-4.034753e-09	-3.352667e+01	-2.649755e+02
2.810000e-06	-4.797268e-06	-4.124189e-09	-3.440017e+01	-2.710275e+02
2.820000e-06	-4.917327e-06	-4.211709e-09	-3.526108e+01	-2.767597e+02
2.830000e-06	-5.035502e-06	-4.296780e-09	-3.610849e+01	-2.821887e+02
2.840000e-06	-5.151646e-06	-4.377752e-09	-3.694134e+01	-2.873347e+02
2.850000e-06	-5.265656e-06	-4.452946e-09	-3.775888e+01	-2.922214e+02
2.860000e-06	-5.377547e-06	-4.526130e-09	-3.856122e+01	-2.968749e+02
2.870000e-06	-5.487400e-06	-4.596444e-09	-3.934896e+01	-3.013217e+02
2.880000e-06	-5.595394e-06	-4.661072e-09	-4.012336e+01	-3.055869e+02
2.890000e-06	-5.701509e-06	-4.722485e-09	-4.088428e+01	-3.096916e+02
2.900000e-06	-5.805536e-06	-4.783363e-09	-4.163024e+01	-3.136516e+02
2.910000e-06	-5.907380e-06	-4.844525e-09	-4.236054e+01	-3.174764e+02
2.920000e-06	-6.007077e-06	-4.903837e-09	-4.307544e+01	-3.211687e+02
2.930000e-06	-6.104686e-06	-4.961356e-09	-4.377538e+01	-3.247252e+02
2.940000e-06	-6.200091e-06	-5.016518e-09	-4.445951e+01	-3.281381e+02
