# Temperatura_=_44.4
# Concentracion g/m^3_=_5000.0
# C_Vs_to_Am_M_A/Vsm_=_65563218390.804596
# pendiente_HvsI_1/m_=_3716.3
# ordenada_HvsI_A/m_=_1297.0
# frecuencia_Hz_=_302503.90540418646

Tiempo_(s)	Campo_(V.s)	Magnetizacion_(V.s)	Campo_(kA/m)	Magnetizacion_(A/m)
0.000000e+00	-7.994879e-06	-5.783879e-09	-5.686392e+01	-3.788292e+02
1.000000e-08	-7.990113e-06	-5.779905e-09	-5.683003e+01	-3.785691e+02
2.000000e-08	-7.982746e-06	-5.775695e-09	-5.677763e+01	-3.782553e+02
3.000000e-08	-7.972635e-06	-5.772941e-09	-5.670571e+01	-3.778998e+02
4.000000e-08	-7.959639e-06	-5.768746e-09	-5.661328e+01	-3.775130e+02
5.000000e-08	-7.943690e-06	-5.760323e-09	-5.649984e+01	-3.771028e+02
6.000000e-08	-7.925168e-06	-5.753422e-09	-5.636810e+01	-3.766732e+02
7.000000e-08	-7.904414e-06	-5.752313e-09	-5.622049e+01	-3.762243e+02
8.000000e-08	-7.880975e-06	-5.779347e-09	-5.605378e+01	-3.757522e+02
9.000000e-08	-7.854316e-06	-5.784793e-09	-5.586416e+01	-3.752498e+02
1.000000e-07	-7.824483e-06	-5.743792e-09	-5.565197e+01	-3.747080e+02
1.100000e-07	-7.791779e-06	-5.715017e-09	-5.541937e+01	-3.741173e+02
1.200000e-07	-7.756345e-06	-5.700788e-09	-5.516734e+01	-3.734683e+02
1.300000e-07	-7.718471e-06	-5.685097e-09	-5.489796e+01	-3.727539e+02
1.400000e-07	-7.678469e-06	-5.658354e-09	-5.461344e+01	-3.719693e+02
1.500000e-07	-7.636195e-06	-5.653313e-09	-5.431277e+01	-3.711124e+02
1.600000e-07	-7.591189e-06	-5.659846e-09	-5.399266e+01	-3.701840e+02
1.700000e-07	-7.543432e-06	-5.619060e-09	-5.365299e+01	-3.691865e+02
1.800000e-07	-7.492846e-06	-5.614420e-09	-5.329319e+01	-3.681236e+02
1.900000e-07	-7.439307e-06	-5.606570e-09	-5.291239e+01	-3.669987e+02
2.000000e-07	-7.383002e-06	-5.567232e-09	-5.251192e+01	-3.658142e+02
2.100000e-07	-7.323945e-06	-5.564440e-09	-5.209187e+01	-3.645709e+02
2.200000e-07	-7.262199e-06	-5.547513e-09	-5.165270e+01	-3.632672e+02
2.300000e-07	-7.197773e-06	-5.518899e-09	-5.119447e+01	-3.618998e+02
2.400000e-07	-7.130602e-06	-5.472549e-09	-5.071671e+01	-3.604636e+02
2.500000e-07	-7.060797e-06	-5.457677e-09	-5.022023e+01	-3.589529e+02
2.600000e-07	-6.988290e-06	-5.443844e-09	-4.970451e+01	-3.573621e+02
2.700000e-07	-6.912961e-06	-5.415737e-09	-4.916874e+01	-3.556869e+02
2.800000e-07	-6.834802e-06	-5.397494e-09	-4.861282e+01	-3.539248e+02
2.900000e-07	-6.753870e-06	-5.370695e-09	-4.803719e+01	-3.520758e+02
3.000000e-07	-6.670527e-06	-5.346468e-09	-4.744442e+01	-3.501422e+02
3.100000e-07	-6.585025e-06	-5.302676e-09	-4.683627e+01	-3.481283e+02
3.200000e-07	-6.497198e-06	-5.269202e-09	-4.621160e+01	-3.460395e+02
3.300000e-07	-6.406960e-06	-5.242253e-09	-4.556978e+01	-3.438817e+02
3.400000e-07	-6.314435e-06	-5.208654e-09	-4.491169e+01	-3.416595e+02
3.500000e-07	-6.219664e-06	-5.173118e-09	-4.423763e+01	-3.393761e+02
3.600000e-07	-6.122587e-06	-5.138851e-09	-4.354717e+01	-3.370322e+02
3.700000e-07	-6.023195e-06	-5.108928e-09	-4.284024e+01	-3.346256e+02
3.800000e-07	-5.921638e-06	-5.069032e-09	-4.211790e+01	-3.321519e+02
3.900000e-07	-5.818019e-06	-5.031122e-09	-4.138091e+01	-3.296045e+02
4.000000e-07	-5.712355e-06	-4.989099e-09	-4.062938e+01	-3.269761e+02
4.100000e-07	-5.604647e-06	-4.946510e-09	-3.986330e+01	-3.242593e+02
4.200000e-07	-5.494942e-06	-4.904781e-09	-3.908302e+01	-3.214479e+02
4.300000e-07	-5.383268e-06	-4.861411e-09	-3.828873e+01	-3.185376e+02
4.400000e-07	-5.269599e-06	-4.813787e-09	-3.748025e+01	-3.155264e+02
4.500000e-07	-5.153861e-06	-4.761576e-09	-3.665706e+01	-3.124147e+02
4.600000e-07	-5.036136e-06	-4.710314e-09	-3.581974e+01	-3.092047e+02
4.700000e-07	-4.916617e-06	-4.660434e-09	-3.496965e+01	-3.058995e+02
4.800000e-07	-4.795308e-06	-4.614639e-09	-3.410684e+01	-3.025021e+02
4.900000e-07	-4.672244e-06	-4.565547e-09	-3.323153e+01	-2.990144e+02
5.000000e-07	-4.547485e-06	-4.507102e-09	-3.234418e+01	-2.954360e+02
5.100000e-07	-4.421085e-06	-4.442637e-09	-3.144516e+01	-2.917634e+02
5.200000e-07	-4.293091e-06	-4.382179e-09	-3.053480e+01	-2.879906e+02
5.300000e-07	-4.163545e-06	-4.321497e-09	-2.961340e+01	-2.841085e+02
5.400000e-07	-4.032476e-06	-4.257116e-09	-2.868116e+01	-2.801068e+02
5.500000e-07	-3.899841e-06	-4.193221e-09	-2.773779e+01	-2.759742e+02
5.600000e-07	-3.765669e-06	-4.131778e-09	-2.678348e+01	-2.717009e+02
5.700000e-07	-3.630016e-06	-4.065308e-09	-2.581865e+01	-2.672787e+02
5.800000e-07	-3.492953e-06	-3.994911e-09	-2.484378e+01	-2.627030e+02
5.900000e-07	-3.354529e-06	-3.925684e-09	-2.385923e+01	-2.579727e+02
6.000000e-07	-3.214751e-06	-3.850694e-09	-2.286505e+01	-2.530898e+02
6.100000e-07	-3.073579e-06	-3.768403e-09	-2.186096e+01	-2.480592e+02
6.200000e-07	-2.931080e-06	-3.685611e-09	-2.084744e+01	-2.428869e+02
6.300000e-07	-2.787420e-06	-3.606190e-09	-1.982564e+01	-2.375783e+02
6.400000e-07	-2.642767e-06	-3.525341e-09	-1.879680e+01	-2.321362e+02
6.500000e-07	-2.497247e-06	-3.440717e-09	-1.776177e+01	-2.265598e+02
6.600000e-07	-2.350876e-06	-3.353389e-09	-1.672071e+01	-2.208430e+02
6.700000e-07	-2.203678e-06	-3.264746e-09	-1.567376e+01	-2.149744e+02
6.800000e-07	-2.055744e-06	-3.173224e-09	-1.462157e+01	-2.089375e+02
6.900000e-07	-1.907195e-06	-3.078684e-09	-1.356501e+01	-2.027120e+02
7.000000e-07	-1.758098e-06	-2.979837e-09	-1.250455e+01	-1.962758e+02
7.100000e-07	-1.608459e-06	-2.875228e-09	-1.144023e+01	-1.896069e+02
7.200000e-07	-1.458263e-06	-2.768273e-09	-1.037196e+01	-1.826858e+02
7.300000e-07	-1.307570e-06	-2.656458e-09	-9.300146e+00	-1.754971e+02
7.400000e-07	-1.156390e-06	-2.541704e-09	-8.224877e+00	-1.680309e+02
7.500000e-07	-1.004756e-06	-2.427171e-09	-7.146372e+00	-1.602824e+02
7.600000e-07	-8.527875e-07	-2.310718e-09	-6.065488e+00	-1.522514e+02
7.700000e-07	-7.005867e-07	-2.186782e-09	-4.982954e+00	-1.439401e+02
7.800000e-07	-5.481969e-07	-2.054675e-09	-3.899074e+00	-1.353505e+02
7.900000e-07	-3.956174e-07	-1.918385e-09	-2.813846e+00	-1.264813e+02
8.000000e-07	-2.428808e-07	-1.776769e-09	-1.727500e+00	-1.173249e+02
8.100000e-07	-9.006592e-08	-1.627842e-09	-6.405978e-01	-1.078653e+02
8.200000e-07	6.285549e-08	-1.472448e-09	4.470624e-01	-9.807711e+01
8.300000e-07	2.158372e-07	-1.313569e-09	1.535151e+00	-8.792559e+01
8.400000e-07	3.687828e-07	-1.154064e-09	2.622984e+00	-7.736915e+01
8.500000e-07	5.216288e-07	-9.887814e-10	3.710108e+00	-6.636292e+01
8.600000e-07	6.743072e-07	-8.161378e-10	4.796040e+00	-5.486387e+01
8.700000e-07	8.267930e-07	-6.369255e-10	5.880601e+00	-4.283678e+01
8.800000e-07	9.790384e-07	-4.462626e-10	6.963453e+00	-3.026040e+01
8.900000e-07	1.131028e-06	-2.474945e-10	8.044487e+00	-1.713311e+01
9.000000e-07	1.282696e-06	-4.063796e-11	9.123230e+00	-3.477354e+00
9.100000e-07	1.433875e-06	1.724693e-10	1.019849e+01	1.065787e+01
9.200000e-07	1.584442e-06	3.928352e-10	1.126941e+01	2.519668e+01
9.300000e-07	1.734367e-06	6.201560e-10	1.233576e+01	4.003855e+01
9.400000e-07	1.883630e-06	8.499457e-10	1.339740e+01	5.506279e+01
9.500000e-07	2.032238e-06	1.081723e-09	1.445438e+01	7.013508e+01
9.600000e-07	2.180151e-06	1.310122e-09	1.550642e+01	8.511531e+01
9.700000e-07	2.327214e-06	1.534088e-09	1.655241e+01	9.986596e+01
9.800000e-07	2.473359e-06	1.751219e-09	1.759188e+01	1.142603e+02
9.900000e-07	2.618648e-06	1.962074e-09	1.862525e+01	1.281892e+02
1.000000e-06	2.763051e-06	2.165888e-09	1.965232e+01	1.415670e+02
1.010000e-06	2.906359e-06	2.358005e-09	2.067161e+01	1.543338e+02
1.020000e-06	3.048405e-06	2.537498e-09	2.168191e+01	1.664567e+02
1.030000e-06	3.189263e-06	2.708232e-09	2.268377e+01	1.779277e+02
1.040000e-06	3.328913e-06	2.872499e-09	2.367704e+01	1.887605e+02
1.050000e-06	3.467266e-06	3.028784e-09	2.466108e+01	1.989851e+02
1.060000e-06	3.604270e-06	3.177025e-09	2.563553e+01	2.086417e+02
1.070000e-06	3.739882e-06	3.318778e-09	2.660007e+01	2.177756e+02
1.080000e-06	3.874057e-06	3.452340e-09	2.755440e+01	2.264313e+02
1.090000e-06	4.006865e-06	3.579685e-09	2.849900e+01	2.346488e+02
1.100000e-06	4.138352e-06	3.699224e-09	2.943421e+01	2.424613e+02
1.110000e-06	4.268371e-06	3.812449e-09	3.035897e+01	2.498940e+02
1.120000e-06	4.396841e-06	3.919836e-09	3.127272e+01	2.569649e+02
1.130000e-06	4.523699e-06	4.019577e-09	3.217501e+01	2.636867e+02
1.140000e-06	4.649065e-06	4.115034e-09	3.306667e+01	2.700692e+02
1.150000e-06	4.772942e-06	4.205699e-09	3.394776e+01	2.761220e+02
1.160000e-06	4.895122e-06	4.293235e-09	3.481677e+01	2.818569e+02
1.170000e-06	5.015503e-06	4.376669e-09	3.567298e+01	2.872896e+02
1.180000e-06	5.133966e-06	4.454954e-09	3.651556e+01	2.924403e+02
1.190000e-06	5.250522e-06	4.529311e-09	3.734457e+01	2.973335e+02
1.200000e-06	5.365170e-06	4.602071e-09	3.816000e+01	3.019966e+02
1.210000e-06	5.477720e-06	4.671298e-09	3.896052e+01	3.064576e+02
1.220000e-06	5.588201e-06	4.736632e-09	3.974632e+01	3.107431e+02
1.230000e-06	5.696715e-06	4.798104e-09	4.051813e+01	3.148758e+02
1.240000e-06	5.803223e-06	4.857622e-09	4.127567e+01	3.188723e+02
1.250000e-06	5.907638e-06	4.915840e-09	4.201833e+01	3.227424e+02
1.260000e-06	6.009843e-06	4.972052e-09	4.274527e+01	3.264886e+02
1.270000e-06	6.109816e-06	5.026623e-09	4.345633e+01	3.301067e+02
1.280000e-06	6.207492e-06	5.078358e-09	4.415106e+01	3.335877e+02
1.290000e-06	6.302852e-06	5.126907e-09	4.482931e+01	3.369200e+02
1.300000e-06	6.395961e-06	5.172807e-09	4.549155e+01	3.400913e+02
1.310000e-06	6.486752e-06	5.216441e-09	4.613730e+01	3.430915e+02
1.320000e-06	6.575207e-06	5.258467e-09	4.676644e+01	3.459145e+02
1.330000e-06	6.661398e-06	5.298549e-09	4.737948e+01	3.485592e+02
1.340000e-06	6.745291e-06	5.336354e-09	4.797618e+01	3.510301e+02
1.350000e-06	6.826768e-06	5.371159e-09	4.855568e+01	3.533367e+02
1.360000e-06	6.905708e-06	5.403394e-09	4.911715e+01	3.554925e+02
1.370000e-06	6.982056e-06	5.434485e-09	4.966018e+01	3.575130e+02
1.380000e-06	7.055803e-06	5.464006e-09	5.018471e+01	3.594140e+02
1.390000e-06	7.126975e-06	5.491818e-09	5.069092e+01	3.612096e+02
1.400000e-06	7.195616e-06	5.517430e-09	5.117913e+01	3.629109e+02
1.410000e-06	7.261703e-06	5.542194e-09	5.164918e+01	3.645253e+02
1.420000e-06	7.325195e-06	5.566416e-09	5.210077e+01	3.660558e+02
1.430000e-06	7.386146e-06	5.589316e-09	5.253428e+01	3.675021e+02
1.440000e-06	7.444545e-06	5.609584e-09	5.294965e+01	3.688613e+02
1.450000e-06	7.500288e-06	5.624336e-09	5.334612e+01	3.701295e+02
1.460000e-06	7.553208e-06	5.637010e-09	5.372252e+01	3.713032e+02
1.470000e-06	7.603067e-06	5.651513e-09	5.407714e+01	3.723808e+02
1.480000e-06	7.650027e-06	5.667530e-09	5.441114e+01	3.733634e+02
1.490000e-06	7.694376e-06	5.684130e-09	5.472658e+01	3.742550e+02
1.500000e-06	7.735918e-06	5.699717e-09	5.502205e+01	3.750627e+02
1.510000e-06	7.774578e-06	5.713978e-09	5.529702e+01	3.757953e+02
1.520000e-06	7.810525e-06	5.725789e-09	5.555269e+01	3.764627e+02
1.530000e-06	7.843704e-06	5.735314e-09	5.578868e+01	3.770740e+02
1.540000e-06	7.874128e-06	5.742856e-09	5.600507e+01	3.776363e+02
1.550000e-06	7.901846e-06	5.749271e-09	5.620222e+01	3.781537e+02
1.560000e-06	7.926653e-06	5.755810e-09	5.637866e+01	3.786267e+02
1.570000e-06	7.948533e-06	5.762975e-09	5.653428e+01	3.790520e+02
1.580000e-06	7.967668e-06	5.771042e-09	5.667038e+01	3.794232e+02
1.590000e-06	7.983938e-06	5.776774e-09	5.678611e+01	3.797321e+02
1.600000e-06	7.997167e-06	5.780491e-09	5.688020e+01	3.799698e+02
1.610000e-06	8.007248e-06	5.783723e-09	5.695190e+01	3.801284e+02
1.620000e-06	8.014261e-06	5.785541e-09	5.700178e+01	3.802026e+02
1.630000e-06	8.018467e-06	5.785897e-09	5.703169e+01	3.801904e+02
1.640000e-06	8.019846e-06	5.786198e-09	5.704150e+01	3.800941e+02
1.650000e-06	8.018446e-06	5.784404e-09	5.703155e+01	3.799198e+02
1.660000e-06	8.014410e-06	5.778616e-09	5.700284e+01	3.796767e+02
1.670000e-06	8.007598e-06	5.772914e-09	5.695439e+01	3.793765e+02
1.680000e-06	7.998104e-06	5.768775e-09	5.688686e+01	3.790311e+02
1.690000e-06	7.985933e-06	5.765976e-09	5.680029e+01	3.786518e+02
1.700000e-06	7.970953e-06	5.764471e-09	5.669375e+01	3.782471e+02
1.710000e-06	7.953454e-06	5.759348e-09	5.656929e+01	3.778224e+02
1.720000e-06	7.933759e-06	5.737018e-09	5.642921e+01	3.773787e+02
1.730000e-06	7.911464e-06	5.679301e-09	5.627063e+01	3.769132e+02
1.740000e-06	7.885881e-06	5.682565e-09	5.608867e+01	3.764198e+02
1.750000e-06	7.856677e-06	5.709158e-09	5.588095e+01	3.758897e+02
1.760000e-06	7.824149e-06	5.702887e-09	5.564960e+01	3.753134e+02
1.770000e-06	7.789123e-06	5.698577e-09	5.540047e+01	3.746814e+02
1.780000e-06	7.751811e-06	5.716767e-09	5.513509e+01	3.739857e+02
1.790000e-06	7.712303e-06	5.697342e-09	5.485409e+01	3.732209e+02
1.800000e-06	7.670708e-06	5.646263e-09	5.455824e+01	3.723842e+02
1.810000e-06	7.626594e-06	5.673338e-09	5.424448e+01	3.714755e+02
1.820000e-06	7.579843e-06	5.655295e-09	5.391196e+01	3.704969e+02
1.830000e-06	7.530317e-06	5.660818e-09	5.355970e+01	3.694517e+02
1.840000e-06	7.477706e-06	5.643818e-09	5.318551e+01	3.683436e+02
1.850000e-06	7.422202e-06	5.590977e-09	5.279073e+01	3.671755e+02
1.860000e-06	7.364042e-06	5.591690e-09	5.237707e+01	3.659485e+02
1.870000e-06	7.303289e-06	5.540625e-09	5.194496e+01	3.646618e+02
1.880000e-06	7.239755e-06	5.568545e-09	5.149307e+01	3.633125e+02
1.890000e-06	7.173366e-06	5.553843e-09	5.102087e+01	3.618960e+02
1.900000e-06	7.104219e-06	5.500748e-09	5.052906e+01	3.604066e+02
1.910000e-06	7.032225e-06	5.491185e-09	5.001701e+01	3.588387e+02
1.920000e-06	6.957556e-06	5.439217e-09	4.948592e+01	3.571874e+02
1.930000e-06	6.880170e-06	5.439436e-09	4.893551e+01	3.554497e+02
1.940000e-06	6.800053e-06	5.396451e-09	4.836567e+01	3.536248e+02
1.950000e-06	6.717498e-06	5.381915e-09	4.777850e+01	3.517145e+02
1.960000e-06	6.632495e-06	5.355629e-09	4.717391e+01	3.497224e+02
1.970000e-06	6.544964e-06	5.303234e-09	4.655134e+01	3.476539e+02
1.980000e-06	6.455051e-06	5.284825e-09	4.591183e+01	3.455147e+02
1.990000e-06	6.362960e-06	5.240813e-09	4.525683e+01	3.433099e+02
2.000000e-06	6.268609e-06	5.213605e-09	4.458575e+01	3.410433e+02
2.010000e-06	6.171967e-06	5.160955e-09	4.389839e+01	3.387162e+02
2.020000e-06	6.073133e-06	5.137649e-09	4.319542e+01	3.363274e+02
2.030000e-06	5.972118e-06	5.104695e-09	4.247695e+01	3.338729e+02
2.040000e-06	5.868914e-06	5.070985e-09	4.174290e+01	3.313467e+02
2.050000e-06	5.763674e-06	5.025537e-09	4.099438e+01	3.287417e+02
2.060000e-06	5.656551e-06	4.971982e-09	4.023247e+01	3.260503e+02
2.070000e-06	5.547482e-06	4.932415e-09	3.945671e+01	3.232659e+02
2.080000e-06	5.436351e-06	4.886218e-09	3.866628e+01	3.203837e+02
2.090000e-06	5.323115e-06	4.851721e-09	3.786089e+01	3.174008e+02
2.100000e-06	5.207905e-06	4.802485e-09	3.704145e+01	3.143171e+02
2.110000e-06	5.090710e-06	4.760796e-09	3.620789e+01	3.111343e+02
2.120000e-06	4.971492e-06	4.703815e-09	3.535995e+01	3.078554e+02
2.130000e-06	4.850409e-06	4.649331e-09	3.449874e+01	3.044836e+02
2.140000e-06	4.727614e-06	4.597251e-09	3.362536e+01	3.010211e+02
2.150000e-06	4.603102e-06	4.550726e-09	3.273976e+01	2.974682e+02
2.160000e-06	4.476924e-06	4.496138e-09	3.184231e+01	2.938225e+02
2.170000e-06	4.349126e-06	4.434931e-09	3.093335e+01	2.900786e+02
2.180000e-06	4.219744e-06	4.377138e-09	3.001311e+01	2.862282e+02
2.190000e-06	4.088878e-06	4.317731e-09	2.908232e+01	2.822612e+02
2.200000e-06	3.956454e-06	4.253901e-09	2.814045e+01	2.781666e+02
2.210000e-06	3.822485e-06	4.186228e-09	2.718759e+01	2.739339e+02
2.220000e-06	3.687036e-06	4.124576e-09	2.622420e+01	2.695543e+02
2.230000e-06	3.550205e-06	4.055806e-09	2.525099e+01	2.650222e+02
2.240000e-06	3.411989e-06	3.984553e-09	2.426792e+01	2.603354e+02
2.250000e-06	3.272468e-06	3.911248e-09	2.327557e+01	2.554952e+02
2.260000e-06	3.131689e-06	3.838792e-09	2.227427e+01	2.505057e+02
2.270000e-06	2.989668e-06	3.758103e-09	2.126414e+01	2.453727e+02
2.280000e-06	2.846490e-06	3.675336e-09	2.024578e+01	2.401020e+02
2.290000e-06	2.702279e-06	3.592606e-09	1.922007e+01	2.346974e+02
2.300000e-06	2.557190e-06	3.507913e-09	1.818813e+01	2.291592e+02
2.310000e-06	2.411220e-06	3.422396e-09	1.714991e+01	2.234829e+02
2.320000e-06	2.264388e-06	3.334193e-09	1.610556e+01	2.176586e+02
2.330000e-06	2.116767e-06	3.241413e-09	1.505560e+01	2.116712e+02
2.340000e-06	1.968440e-06	3.144417e-09	1.400062e+01	2.055012e+02
2.350000e-06	1.819443e-06	3.047663e-09	1.294087e+01	1.991270e+02
2.360000e-06	1.669852e-06	2.949130e-09	1.187689e+01	1.925262e+02
2.370000e-06	1.519730e-06	2.843819e-09	1.080914e+01	1.856783e+02
2.380000e-06	1.369101e-06	2.733255e-09	9.737791e+00	1.785668e+02
2.390000e-06	1.218027e-06	2.618609e-09	8.663272e+00	1.711801e+02
2.400000e-06	1.066534e-06	2.500217e-09	7.585766e+00	1.635119e+02
2.410000e-06	9.146993e-07	2.379406e-09	6.505838e+00	1.555609e+02
2.420000e-06	7.626470e-07	2.256258e-09	5.424360e+00	1.473289e+02
2.430000e-06	6.103626e-07	2.131131e-09	4.341230e+00	1.388182e+02
2.440000e-06	4.578451e-07	1.999656e-09	3.256443e+00	1.300288e+02
2.450000e-06	3.051619e-07	1.862484e-09	2.170478e+00	1.209551e+02
2.460000e-06	1.523925e-07	1.721056e-09	1.083898e+00	1.115838e+02
2.470000e-06	-5.001746e-10	1.573604e-09	-3.557513e-03	1.018921e+02
2.480000e-06	-1.534618e-07	1.419004e-09	-1.091504e+00	9.184778e+01
2.490000e-06	-3.063679e-07	1.257693e-09	-2.179055e+00	8.141101e+01
2.500000e-06	-4.591650e-07	1.090609e-09	-3.265831e+00	7.053732e+01
2.510000e-06	-6.118257e-07	9.169674e-10	-4.351637e+00	5.918259e+01
2.520000e-06	-7.643227e-07	7.361039e-10	-5.436278e+00	4.730871e+01
2.530000e-06	-9.166048e-07	5.489878e-10	-6.519391e+00	3.488984e+01
2.540000e-06	-1.068600e-06	3.540293e-10	-7.600463e+00	2.191823e+01
2.550000e-06	-1.220256e-06	1.484014e-10	-8.679126e+00	8.409106e+00
2.560000e-06	-1.371476e-06	-6.810678e-11	-9.754683e+00	-5.596262e+00
2.570000e-06	-1.522153e-06	-2.903008e-10	-1.082638e+01	-2.002956e+01
2.580000e-06	-1.672219e-06	-5.148558e-10	-1.189373e+01	-3.479693e+01
2.590000e-06	-1.821650e-06	-7.444226e-10	-1.295656e+01	-4.978286e+01
2.600000e-06	-1.970403e-06	-9.771379e-10	-1.401458e+01	-6.485617e+01
2.610000e-06	-2.118450e-06	-1.208888e-09	-1.506756e+01	-7.987755e+01
2.620000e-06	-2.265750e-06	-1.436628e-09	-1.611524e+01	-9.470789e+01
2.630000e-06	-2.412122e-06	-1.659150e-09	-1.715633e+01	-1.092166e+02
2.640000e-06	-2.557540e-06	-1.874602e-09	-1.819062e+01	-1.232889e+02
2.650000e-06	-2.701986e-06	-2.081292e-09	-1.921799e+01	-1.368320e+02
2.660000e-06	-2.845445e-06	-2.280448e-09	-2.023835e+01	-1.497784e+02
2.670000e-06	-2.987824e-06	-2.469503e-09	-2.125102e+01	-1.620876e+02
2.680000e-06	-3.128980e-06	-2.646174e-09	-2.225501e+01	-1.737449e+02
2.690000e-06	-3.268925e-06	-2.811818e-09	-2.325037e+01	-1.847582e+02
2.700000e-06	-3.407560e-06	-2.967931e-09	-2.423642e+01	-1.951533e+02
2.710000e-06	-3.544852e-06	-3.118035e-09	-2.521291e+01	-2.049683e+02
2.720000e-06	-3.680863e-06	-3.262287e-09	-2.618030e+01	-2.142474e+02
2.730000e-06	-3.815513e-06	-3.397229e-09	-2.713800e+01	-2.230359e+02
2.740000e-06	-3.948782e-06	-3.526074e-09	-2.808589e+01	-2.313755e+02
2.750000e-06	-4.080706e-06	-3.650605e-09	-2.902420e+01	-2.393013e+02
2.760000e-06	-4.211186e-06	-3.768213e-09	-2.995225e+01	-2.468409e+02
2.770000e-06	-4.340209e-06	-3.878127e-09	-3.086993e+01	-2.540142e+02
2.780000e-06	-4.467752e-06	-3.981236e-09	-3.177708e+01	-2.608353e+02
2.790000e-06	-4.593764e-06	-4.078331e-09	-3.267334e+01	-2.673144e+02
2.800000e-06	-4.718230e-06	-4.169350e-09	-3.355861e+01	-2.734609e+02
2.810000e-06	-4.840965e-06	-4.255416e-09	-3.443157e+01	-2.792857e+02
2.820000e-06	-4.961938e-06	-4.338686e-09	-3.529200e+01	-2.848034e+02
2.830000e-06	-5.081152e-06	-4.420585e-09	-3.613991e+01	-2.900329e+02
2.840000e-06	-5.198385e-06	-4.498356e-09	-3.697374e+01	-2.949975e+02
2.850000e-06	-5.313457e-06	-4.570691e-09	-3.779220e+01	-2.997240e+02
2.860000e-06	-5.426318e-06	-4.642418e-09	-3.859492e+01	-3.042405e+02
2.870000e-06	-5.537034e-06	-4.712247e-09	-3.938240e+01	-3.085742e+02
2.880000e-06	-5.645710e-06	-4.776822e-09	-4.015536e+01	-3.127491e+02
2.890000e-06	-5.752450e-06	-4.837605e-09	-4.091455e+01	-3.167837e+02
2.900000e-06	-5.857243e-06	-4.896465e-09	-4.165989e+01	-3.206900e+02
2.910000e-06	-5.959955e-06	-4.955735e-09	-4.239044e+01	-3.244722e+02
2.920000e-06	-6.060373e-06	-5.012525e-09	-4.310466e+01	-3.281282e+02
2.930000e-06	-6.158574e-06	-5.067349e-09	-4.380312e+01	-3.316501e+02
2.940000e-06	-6.254695e-06	-5.121812e-09	-4.448679e+01	-3.350266e+02
