# Temperatura_=_48.21
# Concentracion g/m^3_=_5000.0
# C_Vs_to_Am_M_A/Vsm_=_65563218390.804596
# pendiente_HvsI_1/m_=_3716.3
# ordenada_HvsI_A/m_=_1297.0
# frecuencia_Hz_=_302499.9300178967

Tiempo_(s)	Campo_(V.s)	Magnetizacion_(V.s)	Campo_(kA/m)	Magnetizacion_(A/m)
0.000000e+00	-7.933646e-06	-6.089536e-09	-5.687699e+01	-3.983851e+02
1.000000e-08	-7.931536e-06	-6.087406e-09	-5.686187e+01	-3.982014e+02
2.000000e-08	-7.926791e-06	-6.084864e-09	-5.682785e+01	-3.979398e+02
3.000000e-08	-7.919512e-06	-6.080114e-09	-5.677566e+01	-3.976079e+02
4.000000e-08	-7.909528e-06	-6.074815e-09	-5.670409e+01	-3.972146e+02
5.000000e-08	-7.896670e-06	-6.068120e-09	-5.661191e+01	-3.967692e+02
6.000000e-08	-7.880830e-06	-6.060978e-09	-5.649835e+01	-3.962798e+02
7.000000e-08	-7.862332e-06	-6.055991e-09	-5.636574e+01	-3.957528e+02
8.000000e-08	-7.841631e-06	-6.054481e-09	-5.621733e+01	-3.951921e+02
9.000000e-08	-7.818363e-06	-6.040034e-09	-5.605052e+01	-3.945988e+02
1.000000e-07	-7.791931e-06	-6.045670e-09	-5.586103e+01	-3.939713e+02
1.100000e-07	-7.762326e-06	-6.044184e-09	-5.564879e+01	-3.933056e+02
1.200000e-07	-7.729848e-06	-6.014723e-09	-5.541595e+01	-3.925961e+02
1.300000e-07	-7.694687e-06	-5.993188e-09	-5.516388e+01	-3.918364e+02
1.400000e-07	-7.657101e-06	-5.980163e-09	-5.489442e+01	-3.910199e+02
1.500000e-07	-7.617395e-06	-5.959259e-09	-5.460977e+01	-3.901405e+02
1.600000e-07	-7.575428e-06	-5.902417e-09	-5.430890e+01	-3.891932e+02
1.700000e-07	-7.530786e-06	-5.929776e-09	-5.398885e+01	-3.881740e+02
1.800000e-07	-7.483468e-06	-5.929494e-09	-5.364963e+01	-3.870798e+02
1.900000e-07	-7.433394e-06	-5.859561e-09	-5.329064e+01	-3.859087e+02
2.000000e-07	-7.380319e-06	-5.885647e-09	-5.291015e+01	-3.846591e+02
2.100000e-07	-7.324394e-06	-5.842839e-09	-5.250921e+01	-3.833294e+02
2.200000e-07	-7.265723e-06	-5.804651e-09	-5.208859e+01	-3.819184e+02
2.300000e-07	-7.204413e-06	-5.810383e-09	-5.164906e+01	-3.804243e+02
2.400000e-07	-7.140527e-06	-5.765536e-09	-5.119106e+01	-3.788454e+02
2.500000e-07	-7.073888e-06	-5.742070e-09	-5.071332e+01	-3.771799e+02
2.600000e-07	-7.004561e-06	-5.714789e-09	-5.021630e+01	-3.754266e+02
2.700000e-07	-6.932625e-06	-5.692529e-09	-4.970059e+01	-3.735849e+02
2.800000e-07	-6.857911e-06	-5.656106e-09	-4.916496e+01	-3.716552e+02
2.900000e-07	-6.780375e-06	-5.642525e-09	-4.860910e+01	-3.696390e+02
3.000000e-07	-6.700077e-06	-5.612468e-09	-4.803343e+01	-3.675389e+02
3.100000e-07	-6.617308e-06	-5.561233e-09	-4.744005e+01	-3.653581e+02
3.200000e-07	-6.532333e-06	-5.546733e-09	-4.683086e+01	-3.631002e+02
3.300000e-07	-6.445086e-06	-5.503218e-09	-4.620538e+01	-3.607685e+02
3.400000e-07	-6.355535e-06	-5.460276e-09	-4.556338e+01	-3.583654e+02
3.500000e-07	-6.263683e-06	-5.423459e-09	-4.490489e+01	-3.558917e+02
3.600000e-07	-6.169559e-06	-5.387882e-09	-4.423010e+01	-3.533469e+02
3.700000e-07	-6.073197e-06	-5.348343e-09	-4.353928e+01	-3.507284e+02
3.800000e-07	-5.974593e-06	-5.306309e-09	-4.283237e+01	-3.480321e+02
3.900000e-07	-5.873826e-06	-5.270219e-09	-4.210997e+01	-3.452528e+02
4.000000e-07	-5.770985e-06	-5.223915e-09	-4.137269e+01	-3.423850e+02
4.100000e-07	-5.666067e-06	-5.175454e-09	-4.062053e+01	-3.394236e+02
4.200000e-07	-5.559140e-06	-5.117034e-09	-3.985396e+01	-3.363646e+02
4.300000e-07	-5.450291e-06	-5.076228e-09	-3.907361e+01	-3.332055e+02
4.400000e-07	-5.339536e-06	-5.034627e-09	-3.827959e+01	-3.299460e+02
4.500000e-07	-5.226773e-06	-4.979646e-09	-3.747119e+01	-3.265874e+02
4.600000e-07	-5.111916e-06	-4.921364e-09	-3.664777e+01	-3.231323e+02
4.700000e-07	-4.995102e-06	-4.869415e-09	-3.581032e+01	-3.195839e+02
4.800000e-07	-4.876485e-06	-4.813329e-09	-3.495994e+01	-3.159452e+02
4.900000e-07	-4.756071e-06	-4.752139e-09	-3.409669e+01	-3.122175e+02
5.000000e-07	-4.633875e-06	-4.698498e-09	-3.322065e+01	-3.084001e+02
5.100000e-07	-4.509988e-06	-4.640991e-09	-3.233249e+01	-3.044895e+02
5.200000e-07	-4.384515e-06	-4.577200e-09	-3.143297e+01	-3.004793e+02
5.300000e-07	-4.257451e-06	-4.506758e-09	-3.052203e+01	-2.963605e+02
5.400000e-07	-4.128893e-06	-4.440854e-09	-2.960039e+01	-2.921223e+02
5.500000e-07	-3.998780e-06	-4.373318e-09	-2.866760e+01	-2.877535e+02
5.600000e-07	-3.867071e-06	-4.303548e-09	-2.772336e+01	-2.832434e+02
5.700000e-07	-3.733951e-06	-4.232104e-09	-2.676902e+01	-2.785833e+02
5.800000e-07	-3.599409e-06	-4.160420e-09	-2.580447e+01	-2.737676e+02
5.900000e-07	-3.463512e-06	-4.086159e-09	-2.483022e+01	-2.687941e+02
6.000000e-07	-3.326337e-06	-4.006194e-09	-2.384680e+01	-2.636644e+02
6.100000e-07	-3.187761e-06	-3.923237e-09	-2.285333e+01	-2.583829e+02
6.200000e-07	-3.047813e-06	-3.836007e-09	-2.185003e+01	-2.529559e+02
6.300000e-07	-2.906558e-06	-3.750059e-09	-2.083737e+01	-2.473901e+02
6.400000e-07	-2.764083e-06	-3.665493e-09	-1.981595e+01	-2.416903e+02
6.500000e-07	-2.620531e-06	-3.582315e-09	-1.878682e+01	-2.358584e+02
6.600000e-07	-2.475974e-06	-3.494254e-09	-1.775047e+01	-2.298917e+02
6.700000e-07	-2.330561e-06	-3.400696e-09	-1.670799e+01	-2.237822e+02
6.800000e-07	-2.184410e-06	-3.302963e-09	-1.566022e+01	-2.175165e+02
6.900000e-07	-2.037574e-06	-3.201693e-09	-1.460755e+01	-2.110772e+02
7.000000e-07	-1.890084e-06	-3.099195e-09	-1.355018e+01	-2.044436e+02
7.100000e-07	-1.742006e-06	-2.992947e-09	-1.248859e+01	-1.975941e+02
7.200000e-07	-1.593426e-06	-2.883875e-09	-1.142341e+01	-1.905084e+02
7.300000e-07	-1.444413e-06	-2.769992e-09	-1.035512e+01	-1.831693e+02
7.400000e-07	-1.295036e-06	-2.652297e-09	-9.284224e+00	-1.755645e+02
7.500000e-07	-1.145270e-06	-2.532814e-09	-8.210540e+00	-1.676867e+02
7.600000e-07	-9.950151e-07	-2.412794e-09	-7.133350e+00	-1.595338e+02
7.700000e-07	-8.442910e-07	-2.289746e-09	-6.052795e+00	-1.511076e+02
7.800000e-07	-6.932297e-07	-2.160500e-09	-4.969824e+00	-1.424109e+02
7.900000e-07	-5.419425e-07	-2.023601e-09	-3.885232e+00	-1.334453e+02
8.000000e-07	-3.904920e-07	-1.877878e-09	-2.799471e+00	-1.242082e+02
8.100000e-07	-2.388805e-07	-1.726506e-09	-1.712555e+00	-1.146894e+02
8.200000e-07	-8.716507e-08	-1.572288e-09	-6.248939e-01	-1.048702e+02
8.300000e-07	6.461818e-08	-1.415328e-09	4.632533e-01	-9.472202e+01
8.400000e-07	2.164110e-07	-1.254929e-09	1.551469e+00	-8.420746e+01
8.500000e-07	3.681290e-07	-1.090795e-09	2.639149e+00	-7.328307e+01
8.600000e-07	5.197376e-07	-9.178912e-10	3.726044e+00	-6.190329e+01
8.700000e-07	6.712144e-07	-7.377573e-10	4.811994e+00	-5.002580e+01
8.800000e-07	8.224811e-07	-5.513902e-10	5.896438e+00	-3.761747e+01
8.900000e-07	9.734659e-07	-3.561597e-10	6.978861e+00	-2.466046e+01
9.000000e-07	1.124113e-06	-1.531537e-10	8.058860e+00	-1.115751e+01
9.100000e-07	1.274270e-06	5.924634e-11	9.135352e+00	2.864058e+00
9.200000e-07	1.423935e-06	2.782181e-10	1.020832e+01	1.735030e+01
9.300000e-07	1.573205e-06	5.042122e-10	1.127844e+01	3.222089e+01
9.400000e-07	1.722041e-06	7.351536e-10	1.234546e+01	4.737175e+01
9.500000e-07	1.870308e-06	9.690414e-10	1.340840e+01	6.267993e+01
9.600000e-07	2.017879e-06	1.204833e-09	1.446635e+01	7.801033e+01
9.700000e-07	2.164688e-06	1.437469e-09	1.551883e+01	9.322356e+01
9.800000e-07	2.310701e-06	1.664303e-09	1.656561e+01	1.081843e+02
9.900000e-07	2.455854e-06	1.884173e-09	1.760623e+01	1.227691e+02
1.000000e-06	2.600057e-06	2.098859e-09	1.864003e+01	1.368734e+02
1.010000e-06	2.743232e-06	2.306319e-09	1.966647e+01	1.504158e+02
1.020000e-06	2.885317e-06	2.501705e-09	2.068509e+01	1.633414e+02
1.030000e-06	3.026275e-06	2.683043e-09	2.169562e+01	1.756219e+02
1.040000e-06	3.165955e-06	2.853701e-09	2.269700e+01	1.872535e+02
1.050000e-06	3.304364e-06	3.017821e-09	2.368927e+01	1.982529e+02
1.060000e-06	3.441558e-06	3.175156e-09	2.467283e+01	2.086526e+02
1.070000e-06	3.577359e-06	3.326172e-09	2.564640e+01	2.184943e+02
1.080000e-06	3.711782e-06	3.471669e-09	2.661008e+01	2.278240e+02
1.090000e-06	3.844998e-06	3.609855e-09	2.756512e+01	2.366859e+02
1.100000e-06	3.976859e-06	3.741292e-09	2.851044e+01	2.451193e+02
1.110000e-06	4.107210e-06	3.865840e-09	2.944494e+01	2.531561e+02
1.120000e-06	4.236108e-06	3.983185e-09	3.036902e+01	2.608196e+02
1.130000e-06	4.363471e-06	4.094558e-09	3.128210e+01	2.681259e+02
1.140000e-06	4.489357e-06	4.198649e-09	3.218459e+01	2.750855e+02
1.150000e-06	4.613765e-06	4.296431e-09	3.307648e+01	2.817060e+02
1.160000e-06	4.736588e-06	4.390407e-09	3.395701e+01	2.879948e+02
1.170000e-06	4.857747e-06	4.480050e-09	3.482561e+01	2.939618e+02
1.180000e-06	4.977079e-06	4.566017e-09	3.568111e+01	2.996214e+02
1.190000e-06	5.094597e-06	4.647947e-09	3.652361e+01	3.049926e+02
1.200000e-06	5.210211e-06	4.726632e-09	3.735246e+01	3.100997e+02
1.210000e-06	5.323763e-06	4.803286e-09	3.816652e+01	3.149702e+02
1.220000e-06	5.435309e-06	4.876278e-09	3.896620e+01	3.196331e+02
1.230000e-06	5.544946e-06	4.944909e-09	3.975220e+01	3.241168e+02
1.240000e-06	5.652664e-06	5.010300e-09	4.052444e+01	3.284458e+02
1.250000e-06	5.758317e-06	5.072479e-09	4.128187e+01	3.326395e+02
1.260000e-06	5.861777e-06	5.131108e-09	4.202359e+01	3.367102e+02
1.270000e-06	5.963107e-06	5.188454e-09	4.275003e+01	3.406627e+02
1.280000e-06	6.062292e-06	5.244448e-09	4.346110e+01	3.444949e+02
1.290000e-06	6.159114e-06	5.299149e-09	4.415522e+01	3.481991e+02
1.300000e-06	6.253603e-06	5.352841e-09	4.483262e+01	3.517638e+02
1.310000e-06	6.345906e-06	5.404642e-09	4.549435e+01	3.551762e+02
1.320000e-06	6.435939e-06	5.452890e-09	4.613981e+01	3.584248e+02
1.330000e-06	6.523633e-06	5.496682e-09	4.676849e+01	3.615009e+02
1.340000e-06	6.609078e-06	5.538383e-09	4.738105e+01	3.644007e+02
1.350000e-06	6.692286e-06	5.578557e-09	4.797758e+01	3.671255e+02
1.360000e-06	6.773111e-06	5.615612e-09	4.855702e+01	3.696816e+02
1.370000e-06	6.851392e-06	5.650358e-09	4.911822e+01	3.720797e+02
1.380000e-06	6.927087e-06	5.684845e-09	4.966088e+01	3.743333e+02
1.390000e-06	7.000184e-06	5.718492e-09	5.018493e+01	3.764567e+02
1.400000e-06	7.070761e-06	5.751121e-09	5.069090e+01	3.784635e+02
1.410000e-06	7.138875e-06	5.783272e-09	5.117921e+01	3.803649e+02
1.420000e-06	7.204385e-06	5.813097e-09	5.164886e+01	3.821687e+02
1.430000e-06	7.267356e-06	5.840155e-09	5.210030e+01	3.838789e+02
1.440000e-06	7.327872e-06	5.863806e-09	5.253415e+01	3.854959e+02
1.450000e-06	7.385836e-06	5.883407e-09	5.294970e+01	3.870171e+02
1.460000e-06	7.441138e-06	5.900233e-09	5.334616e+01	3.884386e+02
1.470000e-06	7.493606e-06	5.916819e-09	5.372231e+01	3.897561e+02
1.480000e-06	7.543003e-06	5.935069e-09	5.407644e+01	3.909667e+02
1.490000e-06	7.589504e-06	5.953165e-09	5.440981e+01	3.920696e+02
1.500000e-06	7.633403e-06	5.970347e-09	5.472453e+01	3.930672e+02
1.510000e-06	7.674560e-06	5.987113e-09	5.501959e+01	3.939646e+02
1.520000e-06	7.712971e-06	6.002437e-09	5.529496e+01	3.947698e+02
1.530000e-06	7.748732e-06	6.015378e-09	5.555133e+01	3.954923e+02
1.540000e-06	7.781746e-06	6.025077e-09	5.578801e+01	3.961421e+02
1.550000e-06	7.811988e-06	6.033375e-09	5.600482e+01	3.967284e+02
1.560000e-06	7.839496e-06	6.040236e-09	5.620203e+01	3.972583e+02
1.570000e-06	7.864118e-06	6.047358e-09	5.637854e+01	3.977360e+02
1.580000e-06	7.885869e-06	6.054043e-09	5.653447e+01	3.981625e+02
1.590000e-06	7.904897e-06	6.058947e-09	5.667089e+01	3.985352e+02
1.600000e-06	7.921060e-06	6.063334e-09	5.678677e+01	3.988492e+02
1.610000e-06	7.934177e-06	6.067712e-09	5.688080e+01	3.990975e+02
1.620000e-06	7.944130e-06	6.074024e-09	5.695216e+01	3.992730e+02
1.630000e-06	7.951091e-06	6.078511e-09	5.700206e+01	3.993692e+02
1.640000e-06	7.955282e-06	6.079651e-09	5.703211e+01	3.993815e+02
1.650000e-06	7.956592e-06	6.077936e-09	5.704150e+01	3.993082e+02
1.660000e-06	7.955128e-06	6.075698e-09	5.703100e+01	3.991505e+02
1.670000e-06	7.951114e-06	6.069452e-09	5.700222e+01	3.989130e+02
1.680000e-06	7.944457e-06	6.061824e-09	5.695450e+01	3.986024e+02
1.690000e-06	7.935140e-06	6.057843e-09	5.688770e+01	3.982276e+02
1.700000e-06	7.923101e-06	6.054263e-09	5.680140e+01	3.977978e+02
1.710000e-06	7.908278e-06	6.048547e-09	5.669513e+01	3.973214e+02
1.720000e-06	7.890976e-06	6.038025e-09	5.657109e+01	3.968057e+02
1.730000e-06	7.871363e-06	6.020836e-09	5.643048e+01	3.962554e+02
1.740000e-06	7.849134e-06	6.011679e-09	5.627112e+01	3.956724e+02
1.750000e-06	7.823673e-06	5.982081e-09	5.608859e+01	3.950560e+02
1.760000e-06	7.794617e-06	5.975035e-09	5.588028e+01	3.944028e+02
1.770000e-06	7.762342e-06	5.981423e-09	5.564890e+01	3.937078e+02
1.780000e-06	7.727539e-06	5.970556e-09	5.539939e+01	3.929647e+02
1.790000e-06	7.690478e-06	5.950334e-09	5.513370e+01	3.921669e+02
1.800000e-06	7.651268e-06	5.982815e-09	5.485260e+01	3.913081e+02
1.810000e-06	7.610000e-06	5.957411e-09	5.455675e+01	3.903829e+02
1.820000e-06	7.566234e-06	5.904467e-09	5.424298e+01	3.893869e+02
1.830000e-06	7.519776e-06	5.951924e-09	5.390993e+01	3.883168e+02
1.840000e-06	7.470587e-06	5.892177e-09	5.355728e+01	3.871704e+02
1.850000e-06	7.418401e-06	5.894774e-09	5.318316e+01	3.859459e+02
1.860000e-06	7.363316e-06	5.891394e-09	5.278825e+01	3.846419e+02
1.870000e-06	7.305548e-06	5.835248e-09	5.237410e+01	3.832569e+02
1.880000e-06	7.245217e-06	5.843306e-09	5.194159e+01	3.817895e+02
1.890000e-06	7.182154e-06	5.795418e-09	5.148948e+01	3.802377e+02
1.900000e-06	7.116240e-06	5.785285e-09	5.101694e+01	3.786000e+02
1.910000e-06	7.047578e-06	5.749214e-09	5.052470e+01	3.768748e+02
1.920000e-06	6.976182e-06	5.725056e-09	5.001285e+01	3.750612e+02
1.930000e-06	6.902092e-06	5.703420e-09	4.948169e+01	3.731595e+02
1.940000e-06	6.825224e-06	5.651191e-09	4.893062e+01	3.711706e+02
1.950000e-06	6.745676e-06	5.645329e-09	4.836034e+01	3.690969e+02
1.960000e-06	6.663717e-06	5.589161e-09	4.777277e+01	3.669414e+02
1.970000e-06	6.579320e-06	5.564713e-09	4.716771e+01	3.647076e+02
1.980000e-06	6.492433e-06	5.536292e-09	4.654481e+01	3.623991e+02
1.990000e-06	6.403182e-06	5.495672e-09	4.590497e+01	3.600185e+02
2.000000e-06	6.311737e-06	5.462800e-09	4.524939e+01	3.575673e+02
2.010000e-06	6.218082e-06	5.407107e-09	4.457797e+01	3.550453e+02
2.020000e-06	6.122152e-06	5.375143e-09	4.389024e+01	3.524506e+02
2.030000e-06	6.024007e-06	5.332450e-09	4.318663e+01	3.497795e+02
2.040000e-06	5.923757e-06	5.299573e-09	4.246793e+01	3.470272e+02
2.050000e-06	5.821376e-06	5.252776e-09	4.173395e+01	3.441882e+02
2.060000e-06	5.716882e-06	5.211950e-09	4.098482e+01	3.412572e+02
2.070000e-06	5.610467e-06	5.164979e-09	4.022193e+01	3.382297e+02
2.080000e-06	5.502179e-06	5.108890e-09	3.944559e+01	3.351026e+02
2.090000e-06	5.391920e-06	5.061333e-09	3.865514e+01	3.318751e+02
2.100000e-06	5.279661e-06	5.013232e-09	3.785035e+01	3.285478e+02
2.110000e-06	5.165467e-06	4.966133e-09	3.703168e+01	3.251231e+02
2.120000e-06	5.049285e-06	4.912852e-09	3.619876e+01	3.216041e+02
2.130000e-06	4.931046e-06	4.863409e-09	3.535110e+01	3.179940e+02
2.140000e-06	4.810922e-06	4.803735e-09	3.448992e+01	3.142946e+02
2.150000e-06	4.689088e-06	4.743918e-09	3.361648e+01	3.105060e+02
2.160000e-06	4.565593e-06	4.681900e-09	3.273113e+01	3.066257e+02
2.170000e-06	4.440437e-06	4.625598e-09	3.183388e+01	3.026481e+02
2.180000e-06	4.313576e-06	4.566374e-09	3.092440e+01	2.985651e+02
2.190000e-06	4.185066e-06	4.504342e-09	3.000310e+01	2.943662e+02
2.200000e-06	4.055072e-06	4.440757e-09	2.907116e+01	2.900404e+02
2.210000e-06	3.923625e-06	4.370223e-09	2.812881e+01	2.855765e+02
2.220000e-06	3.790749e-06	4.296549e-09	2.717621e+01	2.809652e+02
2.230000e-06	3.656376e-06	4.224738e-09	2.621288e+01	2.761996e+02
2.240000e-06	3.520571e-06	4.156666e-09	2.523928e+01	2.712766e+02
2.250000e-06	3.383538e-06	4.083040e-09	2.425688e+01	2.661965e+02
2.260000e-06	3.245259e-06	4.003730e-09	2.326554e+01	2.609629e+02
2.270000e-06	3.105692e-06	3.919591e-09	2.226498e+01	2.555817e+02
2.280000e-06	2.964881e-06	3.832823e-09	2.125549e+01	2.500596e+02
2.290000e-06	2.822815e-06	3.742912e-09	2.023700e+01	2.444022e+02
2.300000e-06	2.679600e-06	3.655381e-09	1.921028e+01	2.386126e+02
2.310000e-06	2.535501e-06	3.566094e-09	1.817723e+01	2.326896e+02
2.320000e-06	2.390659e-06	3.475204e-09	1.713884e+01	2.266269e+02
2.330000e-06	2.245061e-06	3.382491e-09	1.609503e+01	2.204130e+02
2.340000e-06	2.098656e-06	3.285270e-09	1.504545e+01	2.140314e+02
2.350000e-06	1.951508e-06	3.184072e-09	1.399053e+01	2.074623e+02
2.360000e-06	1.803694e-06	3.080738e-09	1.293084e+01	2.006842e+02
2.370000e-06	1.655368e-06	2.974777e-09	1.186748e+01	1.936763e+02
2.380000e-06	1.506575e-06	2.863091e-09	1.080076e+01	1.864200e+02
2.390000e-06	1.357296e-06	2.747088e-09	9.730574e+00	1.789014e+02
2.400000e-06	1.207583e-06	2.627393e-09	8.657270e+00	1.711115e+02
2.410000e-06	1.057384e-06	2.504363e-09	7.580479e+00	1.630468e+02
2.420000e-06	9.067614e-07	2.375357e-09	6.500651e+00	1.547078e+02
2.430000e-06	7.558552e-07	2.244577e-09	5.418792e+00	1.460975e+02
2.440000e-06	6.046333e-07	2.115440e-09	4.334668e+00	1.372182e+02
2.450000e-06	4.531220e-07	1.982060e-09	3.248471e+00	1.280687e+02
2.460000e-06	3.014532e-07	1.840286e-09	2.161144e+00	1.186419e+02
2.470000e-06	1.496206e-07	1.691280e-09	1.072643e+00	1.089217e+02
2.480000e-06	-2.353473e-09	1.535130e-09	-1.687225e-02	9.888264e+01
2.490000e-06	-1.543619e-07	1.372835e-09	-1.106634e+00	8.849009e+01
2.500000e-06	-3.063168e-07	1.205423e-09	-2.196011e+00	7.770215e+01
2.510000e-06	-4.581559e-07	1.032861e-09	-3.284559e+00	6.647339e+01
2.520000e-06	-6.098047e-07	8.543658e-10	-4.371743e+00	5.475980e+01
2.530000e-06	-7.612112e-07	6.674433e-10	-5.457189e+00	4.252464e+01
2.540000e-06	-9.123341e-07	4.738001e-10	-6.540602e+00	2.974453e+01
2.550000e-06	-1.063125e-06	2.733413e-10	-7.621637e+00	1.641507e+01
2.560000e-06	-1.213534e-06	6.240588e-11	-8.699933e+00	2.555365e+00
2.570000e-06	-1.363450e-06	-1.587602e-10	-9.774693e+00	-1.178929e+01
2.580000e-06	-1.512807e-06	-3.851739e-10	-1.084544e+01	-2.654688e+01
2.590000e-06	-1.661640e-06	-6.147796e-10	-1.191244e+01	-4.162053e+01
2.600000e-06	-1.809954e-06	-8.488501e-10	-1.297572e+01	-5.689269e+01
2.610000e-06	-1.957596e-06	-1.085883e-09	-1.403417e+01	-7.223136e+01
2.620000e-06	-2.104408e-06	-1.323182e-09	-1.508668e+01	-8.749763e+01
2.630000e-06	-2.250353e-06	-1.556137e-09	-1.613297e+01	-1.025540e+02
2.640000e-06	-2.395555e-06	-1.782044e-09	-1.717394e+01	-1.172723e+02
2.650000e-06	-2.540019e-06	-2.000460e-09	-1.820961e+01	-1.315413e+02
2.660000e-06	-2.683486e-06	-2.211779e-09	-1.923815e+01	-1.452718e+02
2.670000e-06	-2.825793e-06	-2.414192e-09	-2.025835e+01	-1.584003e+02
2.680000e-06	-2.966917e-06	-2.604791e-09	-2.127008e+01	-1.708900e+02
2.690000e-06	-3.106838e-06	-2.785286e-09	-2.227319e+01	-1.827295e+02
2.700000e-06	-3.245505e-06	-2.955804e-09	-2.326730e+01	-1.939294e+02
2.710000e-06	-3.382973e-06	-3.116231e-09	-2.425282e+01	-2.045179e+02
2.720000e-06	-3.519196e-06	-3.268357e-09	-2.522942e+01	-2.145343e+02
2.730000e-06	-3.654047e-06	-3.414143e-09	-2.619618e+01	-2.240238e+02
2.740000e-06	-3.787623e-06	-3.552542e-09	-2.715380e+01	-2.330317e+02
2.750000e-06	-3.919856e-06	-3.684782e-09	-2.810178e+01	-2.415993e+02
2.760000e-06	-4.050635e-06	-3.812000e-09	-2.903935e+01	-2.497608e+02
2.770000e-06	-4.180089e-06	-3.932794e-09	-2.996742e+01	-2.575425e+02
2.780000e-06	-4.308141e-06	-4.046594e-09	-3.088544e+01	-2.649625e+02
2.790000e-06	-4.434668e-06	-4.154039e-09	-3.179252e+01	-2.720329e+02
2.800000e-06	-4.559658e-06	-4.255657e-09	-3.268858e+01	-2.787619e+02
2.810000e-06	-4.683015e-06	-4.349747e-09	-3.357294e+01	-2.851566e+02
2.820000e-06	-4.804782e-06	-4.437593e-09	-3.444589e+01	-2.912260e+02
2.830000e-06	-4.924814e-06	-4.523084e-09	-3.530642e+01	-2.969828e+02
2.840000e-06	-5.042892e-06	-4.607737e-09	-3.615293e+01	-3.024446e+02
2.850000e-06	-5.158983e-06	-4.689480e-09	-3.698520e+01	-3.076339e+02
2.860000e-06	-5.272901e-06	-4.765692e-09	-3.780189e+01	-3.125775e+02
2.870000e-06	-5.384616e-06	-4.840019e-09	-3.860278e+01	-3.173043e+02
2.880000e-06	-5.494340e-06	-4.913138e-09	-3.938940e+01	-3.218429e+02
2.890000e-06	-5.602239e-06	-4.981010e-09	-4.016293e+01	-3.262195e+02
2.900000e-06	-5.708283e-06	-5.044390e-09	-4.092317e+01	-3.304553e+02
2.910000e-06	-5.812235e-06	-5.105949e-09	-4.166841e+01	-3.345649e+02
2.920000e-06	-5.913923e-06	-5.168149e-09	-4.239743e+01	-3.385555e+02
2.930000e-06	-6.013411e-06	-5.229562e-09	-4.311066e+01	-3.424273e+02
2.940000e-06	-6.110840e-06	-5.289647e-09	-4.380914e+01	-3.461739e+02
