# Temperatura_=_34.64
# Concentracion g/m^3_=_5000.0
# C_Vs_to_Am_M_A/Vsm_=_65563218390.804596
# pendiente_HvsI_1/m_=_3716.3
# ordenada_HvsI_A/m_=_1297.0
# frecuencia_Hz_=_302491.90345577063

Tiempo_(s)	Campo_(V.s)	Magnetizacion_(V.s)	Campo_(kA/m)	Magnetizacion_(A/m)
0.000000e+00	-7.928951e-06	-5.723770e-09	-5.688464e+01	-3.748797e+02
1.000000e-08	-7.926884e-06	-5.725779e-09	-5.686981e+01	-3.747519e+02
2.000000e-08	-7.922049e-06	-5.725515e-09	-5.683512e+01	-3.745507e+02
3.000000e-08	-7.914710e-06	-5.721240e-09	-5.678247e+01	-3.742809e+02
4.000000e-08	-7.904695e-06	-5.719561e-09	-5.671062e+01	-3.739498e+02
5.000000e-08	-7.891750e-06	-5.715430e-09	-5.661775e+01	-3.735663e+02
6.000000e-08	-7.875887e-06	-5.706504e-09	-5.650394e+01	-3.731402e+02
7.000000e-08	-7.857448e-06	-5.696005e-09	-5.637166e+01	-3.726807e+02
8.000000e-08	-7.836814e-06	-5.684129e-09	-5.622362e+01	-3.721957e+02
9.000000e-08	-7.813564e-06	-5.703034e-09	-5.605682e+01	-3.716911e+02
1.000000e-07	-7.787084e-06	-5.731945e-09	-5.586684e+01	-3.711700e+02
1.100000e-07	-7.757399e-06	-5.691312e-09	-5.565387e+01	-3.706326e+02
1.200000e-07	-7.724894e-06	-5.653317e-09	-5.542067e+01	-3.700766e+02
1.300000e-07	-7.689761e-06	-5.648964e-09	-5.516862e+01	-3.694970e+02
1.400000e-07	-7.652176e-06	-5.631981e-09	-5.489897e+01	-3.688871e+02
1.500000e-07	-7.612472e-06	-5.583534e-09	-5.461413e+01	-3.682390e+02
1.600000e-07	-7.570577e-06	-5.574862e-09	-5.431356e+01	-3.675444e+02
1.700000e-07	-7.526051e-06	-5.637843e-09	-5.399411e+01	-3.667952e+02
1.800000e-07	-7.478805e-06	-5.554622e-09	-5.365516e+01	-3.659839e+02
1.900000e-07	-7.428690e-06	-5.553859e-09	-5.329562e+01	-3.651039e+02
2.000000e-07	-7.375531e-06	-5.580797e-09	-5.291424e+01	-3.641502e+02
2.100000e-07	-7.319560e-06	-5.508264e-09	-5.251269e+01	-3.631188e+02
2.200000e-07	-7.260925e-06	-5.519888e-09	-5.209202e+01	-3.620075e+02
2.300000e-07	-7.199697e-06	-5.489440e-09	-5.165276e+01	-3.608150e+02
2.400000e-07	-7.135877e-06	-5.473054e-09	-5.119489e+01	-3.595413e+02
2.500000e-07	-7.069352e-06	-5.436326e-09	-5.071762e+01	-3.581875e+02
2.600000e-07	-7.000152e-06	-5.414067e-09	-5.022116e+01	-3.567555e+02
2.700000e-07	-6.928188e-06	-5.411975e-09	-4.970487e+01	-3.552478e+02
2.800000e-07	-6.853421e-06	-5.379016e-09	-4.916847e+01	-3.536675e+02
2.900000e-07	-6.775869e-06	-5.359563e-09	-4.861209e+01	-3.520179e+02
3.000000e-07	-6.695566e-06	-5.328726e-09	-4.803597e+01	-3.503024e+02
3.100000e-07	-6.612858e-06	-5.322474e-09	-4.744260e+01	-3.485236e+02
3.200000e-07	-6.527968e-06	-5.291238e-09	-4.683357e+01	-3.466835e+02
3.300000e-07	-6.440791e-06	-5.240953e-09	-4.620814e+01	-3.447832e+02
3.400000e-07	-6.351267e-06	-5.221598e-09	-4.556586e+01	-3.428220e+02
3.500000e-07	-6.259486e-06	-5.188256e-09	-4.490740e+01	-3.407980e+02
3.600000e-07	-6.165486e-06	-5.153881e-09	-4.423302e+01	-3.387078e+02
3.700000e-07	-6.069201e-06	-5.122954e-09	-4.354224e+01	-3.365466e+02
3.800000e-07	-5.970655e-06	-5.103040e-09	-4.283525e+01	-3.343088e+02
3.900000e-07	-5.869964e-06	-5.068733e-09	-4.211286e+01	-3.319885e+02
4.000000e-07	-5.767225e-06	-5.018387e-09	-4.137577e+01	-3.295803e+02
4.100000e-07	-5.662431e-06	-4.977360e-09	-4.062395e+01	-3.270797e+02
4.200000e-07	-5.555600e-06	-4.936954e-09	-3.985752e+01	-3.244835e+02
4.300000e-07	-5.446846e-06	-4.896952e-09	-3.907729e+01	-3.217907e+02
4.400000e-07	-5.336189e-06	-4.848869e-09	-3.828340e+01	-3.190018e+02
4.500000e-07	-5.223501e-06	-4.809382e-09	-3.747494e+01	-3.161193e+02
4.600000e-07	-5.108720e-06	-4.769881e-09	-3.665147e+01	-3.131466e+02
4.700000e-07	-4.991992e-06	-4.722589e-09	-3.581403e+01	-3.100874e+02
4.800000e-07	-4.873414e-06	-4.673738e-09	-3.496331e+01	-3.069450e+02
4.900000e-07	-4.753026e-06	-4.626342e-09	-3.409961e+01	-3.037209e+02
5.000000e-07	-4.630967e-06	-4.575515e-09	-3.322392e+01	-3.004146e+02
5.100000e-07	-4.507274e-06	-4.516928e-09	-3.233651e+01	-2.970228e+02
5.200000e-07	-4.381928e-06	-4.462019e-09	-3.143724e+01	-2.935392e+02
5.300000e-07	-4.254941e-06	-4.409225e-09	-3.052621e+01	-2.899550e+02
5.400000e-07	-4.126412e-06	-4.351892e-09	-2.960410e+01	-2.862594e+02
5.500000e-07	-3.996397e-06	-4.289859e-09	-2.867134e+01	-2.824409e+02
5.600000e-07	-3.864792e-06	-4.228534e-09	-2.772716e+01	-2.784882e+02
5.700000e-07	-3.731712e-06	-4.168284e-09	-2.677241e+01	-2.743916e+02
5.800000e-07	-3.597238e-06	-4.104336e-09	-2.580765e+01	-2.701438e+02
5.900000e-07	-3.461336e-06	-4.039520e-09	-2.483265e+01	-2.657409e+02
6.000000e-07	-3.324148e-06	-3.968946e-09	-2.384842e+01	-2.611823e+02
6.100000e-07	-3.185652e-06	-3.892821e-09	-2.285481e+01	-2.564704e+02
6.200000e-07	-3.045743e-06	-3.815311e-09	-2.185106e+01	-2.516096e+02
6.300000e-07	-2.904513e-06	-3.740092e-09	-2.083783e+01	-2.466053e+02
6.400000e-07	-2.762067e-06	-3.665061e-09	-1.981588e+01	-2.414620e+02
6.500000e-07	-2.618637e-06	-3.587264e-09	-1.878688e+01	-2.361816e+02
6.600000e-07	-2.474300e-06	-3.508126e-09	-1.775136e+01	-2.307626e+02
6.700000e-07	-2.329034e-06	-3.422153e-09	-1.670918e+01	-2.251988e+02
6.800000e-07	-2.182980e-06	-3.331402e-09	-1.566135e+01	-2.194789e+02
6.900000e-07	-2.036208e-06	-3.240090e-09	-1.460836e+01	-2.135876e+02
7.000000e-07	-1.888811e-06	-3.149290e-09	-1.355089e+01	-2.075057e+02
7.100000e-07	-1.740815e-06	-3.053947e-09	-1.248912e+01	-2.012126e+02
7.200000e-07	-1.592278e-06	-2.953170e-09	-1.142348e+01	-1.946878e+02
7.300000e-07	-1.443310e-06	-2.851442e-09	-1.035474e+01	-1.879129e+02
7.400000e-07	-1.293937e-06	-2.744577e-09	-9.283089e+00	-1.808733e+02
7.500000e-07	-1.144105e-06	-2.631407e-09	-8.208147e+00	-1.735591e+02
7.600000e-07	-9.938446e-07	-2.516031e-09	-7.130135e+00	-1.659654e+02
7.700000e-07	-8.432523e-07	-2.400425e-09	-6.049741e+00	-1.580918e+02
7.800000e-07	-6.923501e-07	-2.277764e-09	-4.967124e+00	-1.499406e+02
7.900000e-07	-5.411918e-07	-2.148575e-09	-3.882670e+00	-1.415146e+02
8.000000e-07	-3.898148e-07	-2.016308e-09	-2.796647e+00	-1.328145e+02
8.100000e-07	-2.382863e-07	-1.877712e-09	-1.709537e+00	-1.238363e+02
8.200000e-07	-8.668414e-08	-1.731514e-09	-6.218977e-01	-1.145692e+02
8.300000e-07	6.498694e-08	-1.579803e-09	4.662355e-01	-1.049941e+02
8.400000e-07	2.166864e-07	-1.427048e-09	1.554572e+00	-9.508342e+01
8.500000e-07	3.683540e-07	-1.272047e-09	2.642680e+00	-8.480268e+01
8.600000e-07	5.199406e-07	-1.109336e-09	3.730207e+00	-7.411298e+01
8.700000e-07	6.713530e-07	-9.389663e-10	4.816485e+00	-6.297506e+01
8.800000e-07	8.225521e-07	-7.625032e-10	5.901232e+00	-5.135417e+01
8.900000e-07	9.734902e-07	-5.774884e-10	6.984106e+00	-3.922547e+01
9.000000e-07	1.124082e-06	-3.874572e-10	8.064497e+00	-2.657909e+01
9.100000e-07	1.274283e-06	-1.919115e-10	9.142084e+00	-1.342463e+01
9.200000e-07	1.424029e-06	1.086534e-11	1.021641e+01	2.058289e-01
9.300000e-07	1.573310e-06	2.233834e-10	1.128739e+01	1.425644e+01
9.400000e-07	1.722041e-06	4.451275e-10	1.235443e+01	2.864830e+01
9.500000e-07	1.870086e-06	6.711005e-10	1.341655e+01	4.328225e+01
9.600000e-07	2.017401e-06	8.989671e-10	1.447343e+01	5.804354e+01
9.700000e-07	2.163994e-06	1.123951e-09	1.552513e+01	7.280791e+01
9.800000e-07	2.309848e-06	1.346424e-09	1.657153e+01	8.744856e+01
9.900000e-07	2.454895e-06	1.565803e-09	1.761214e+01	1.018434e+02
1.000000e-06	2.598960e-06	1.779280e-09	1.864571e+01	1.158815e+02
1.010000e-06	2.741944e-06	1.985443e-09	1.967152e+01	1.294692e+02
1.020000e-06	2.883916e-06	2.182064e-09	2.069006e+01	1.425333e+02
1.030000e-06	3.024740e-06	2.368032e-09	2.170038e+01	1.550238e+02
1.040000e-06	3.164278e-06	2.544413e-09	2.270147e+01	1.669135e+02
1.050000e-06	3.302524e-06	2.713499e-09	2.369328e+01	1.781962e+02
1.060000e-06	3.439492e-06	2.875196e-09	2.467593e+01	1.888835e+02
1.070000e-06	3.575197e-06	3.028864e-09	2.564952e+01	1.990003e+02
1.080000e-06	3.709586e-06	3.176650e-09	2.661367e+01	2.085798e+02
1.090000e-06	3.842665e-06	3.317972e-09	2.756842e+01	2.176589e+02
1.100000e-06	3.974372e-06	3.451618e-09	2.851332e+01	2.262742e+02
1.110000e-06	4.104597e-06	3.576455e-09	2.944759e+01	2.344585e+02
1.120000e-06	4.233388e-06	3.695546e-09	3.037157e+01	2.422393e+02
1.130000e-06	4.360696e-06	3.810018e-09	3.128492e+01	2.496384e+02
1.140000e-06	4.486524e-06	3.917743e-09	3.218765e+01	2.566719e+02
1.150000e-06	4.610856e-06	4.017740e-09	3.307965e+01	2.633526e+02
1.160000e-06	4.733527e-06	4.111882e-09	3.395972e+01	2.696911e+02
1.170000e-06	4.854510e-06	4.201690e-09	3.482769e+01	2.756985e+02
1.180000e-06	4.973791e-06	4.286534e-09	3.568345e+01	2.813879e+02
1.190000e-06	5.091241e-06	4.367711e-09	3.652607e+01	2.867757e+02
1.200000e-06	5.206769e-06	4.445727e-09	3.735490e+01	2.918821e+02
1.210000e-06	5.320280e-06	4.520752e-09	3.816926e+01	2.967302e+02
1.220000e-06	5.431753e-06	4.592004e-09	3.896900e+01	3.013455e+02
1.230000e-06	5.541307e-06	4.659513e-09	3.975498e+01	3.057536e+02
1.240000e-06	5.648945e-06	4.723274e-09	4.052720e+01	3.099784e+02
1.250000e-06	5.754486e-06	4.784001e-09	4.128439e+01	3.140404e+02
1.260000e-06	5.857880e-06	4.842702e-09	4.202616e+01	3.179549e+02
1.270000e-06	5.959186e-06	4.899906e-09	4.275297e+01	3.217314e+02
1.280000e-06	6.058282e-06	4.953719e-09	4.346390e+01	3.253732e+02
1.290000e-06	6.155085e-06	5.005037e-09	4.415840e+01	3.288782e+02
1.300000e-06	6.249658e-06	5.056692e-09	4.483689e+01	3.322403e+02
1.310000e-06	6.341970e-06	5.106220e-09	4.549917e+01	3.354507e+02
1.320000e-06	6.431981e-06	5.149725e-09	4.614493e+01	3.385006e+02
1.330000e-06	6.519669e-06	5.187938e-09	4.677403e+01	3.413825e+02
1.340000e-06	6.605101e-06	5.225526e-09	4.738695e+01	3.440922e+02
1.350000e-06	6.688287e-06	5.264233e-09	4.798375e+01	3.466294e+02
1.360000e-06	6.769082e-06	5.301085e-09	4.856339e+01	3.489988e+02
1.370000e-06	6.847320e-06	5.335016e-09	4.912470e+01	3.512089e+02
1.380000e-06	6.922936e-06	5.366997e-09	4.966719e+01	3.532718e+02
1.390000e-06	6.995941e-06	5.397950e-09	5.019095e+01	3.552013e+02
1.400000e-06	7.066416e-06	5.427743e-09	5.069656e+01	3.570117e+02
1.410000e-06	7.134467e-06	5.454639e-09	5.118477e+01	3.587162e+02
1.420000e-06	7.199940e-06	5.478825e-09	5.165450e+01	3.603255e+02
1.430000e-06	7.262834e-06	5.500055e-09	5.210572e+01	3.618470e+02
1.440000e-06	7.323290e-06	5.517797e-09	5.253945e+01	3.632846e+02
1.450000e-06	7.381180e-06	5.535040e-09	5.295477e+01	3.646390e+02
1.460000e-06	7.436420e-06	5.552474e-09	5.335108e+01	3.659085e+02
1.470000e-06	7.488834e-06	5.571672e-09	5.372711e+01	3.670899e+02
1.480000e-06	7.538172e-06	5.590211e-09	5.408108e+01	3.681798e+02
1.490000e-06	7.584619e-06	5.606254e-09	5.441430e+01	3.691761e+02
1.500000e-06	7.628442e-06	5.620496e-09	5.472870e+01	3.700785e+02
1.510000e-06	7.669529e-06	5.634372e-09	5.502347e+01	3.708895e+02
1.520000e-06	7.707792e-06	5.647616e-09	5.529798e+01	3.716139e+02
1.530000e-06	7.743481e-06	5.657270e-09	5.555402e+01	3.722589e+02
1.540000e-06	7.776480e-06	5.665100e-09	5.579077e+01	3.728332e+02
1.550000e-06	7.806619e-06	5.671911e-09	5.600700e+01	3.733457e+02
1.560000e-06	7.834031e-06	5.679679e-09	5.620366e+01	3.738045e+02
1.570000e-06	7.858569e-06	5.688484e-09	5.637969e+01	3.742162e+02
1.580000e-06	7.880231e-06	5.697027e-09	5.653511e+01	3.745844e+02
1.590000e-06	7.899206e-06	5.703721e-09	5.667124e+01	3.749099e+02
1.600000e-06	7.915333e-06	5.707398e-09	5.678694e+01	3.751907e+02
1.610000e-06	7.928466e-06	5.710062e-09	5.688116e+01	3.754220e+02
1.620000e-06	7.938442e-06	5.713050e-09	5.695273e+01	3.755976e+02
1.630000e-06	7.945343e-06	5.716271e-09	5.700224e+01	3.757107e+02
1.640000e-06	7.949486e-06	5.717892e-09	5.703196e+01	3.757552e+02
1.650000e-06	7.950815e-06	5.717550e-09	5.704150e+01	3.757266e+02
1.660000e-06	7.949397e-06	5.716037e-09	5.703132e+01	3.756227e+02
1.670000e-06	7.945446e-06	5.710104e-09	5.700298e+01	3.754445e+02
1.680000e-06	7.938802e-06	5.708715e-09	5.695531e+01	3.751959e+02
1.690000e-06	7.929443e-06	5.707832e-09	5.688817e+01	3.748835e+02
1.700000e-06	7.917399e-06	5.704079e-09	5.680176e+01	3.745157e+02
1.710000e-06	7.902556e-06	5.699294e-09	5.669528e+01	3.741021e+02
1.720000e-06	7.885176e-06	5.694255e-09	5.657058e+01	3.736522e+02
1.730000e-06	7.865571e-06	5.689309e-09	5.642993e+01	3.731746e+02
1.740000e-06	7.843433e-06	5.627236e-09	5.627110e+01	3.726756e+02
1.750000e-06	7.818051e-06	5.602549e-09	5.608901e+01	3.721595e+02
1.760000e-06	7.789016e-06	5.643248e-09	5.588070e+01	3.716273e+02
1.770000e-06	7.756667e-06	5.640037e-09	5.564862e+01	3.710776e+02
1.780000e-06	7.721873e-06	5.617404e-09	5.539900e+01	3.705061e+02
1.790000e-06	7.684855e-06	5.657606e-09	5.513343e+01	3.699066e+02
1.800000e-06	7.645638e-06	5.683053e-09	5.485207e+01	3.692715e+02
1.810000e-06	7.604343e-06	5.572435e-09	5.455581e+01	3.685927e+02
1.820000e-06	7.560535e-06	5.623330e-09	5.424151e+01	3.678618e+02
1.830000e-06	7.514111e-06	5.614781e-09	5.390846e+01	3.670710e+02
1.840000e-06	7.465012e-06	5.564959e-09	5.355621e+01	3.662136e+02
1.850000e-06	7.412936e-06	5.614682e-09	5.318259e+01	3.652839e+02
1.860000e-06	7.357947e-06	5.536109e-09	5.278809e+01	3.642777e+02
1.870000e-06	7.300173e-06	5.577219e-09	5.237360e+01	3.631921e+02
1.880000e-06	7.239850e-06	5.519593e-09	5.194082e+01	3.620256e+02
1.890000e-06	7.176856e-06	5.498935e-09	5.148888e+01	3.607778e+02
1.900000e-06	7.110995e-06	5.541591e-09	5.101638e+01	3.594495e+02
1.910000e-06	7.042360e-06	5.448471e-09	5.052397e+01	3.580422e+02
1.920000e-06	6.970950e-06	5.460276e-09	5.001166e+01	3.565583e+02
1.930000e-06	6.896910e-06	5.411681e-09	4.948047e+01	3.550009e+02
1.940000e-06	6.820130e-06	5.408983e-09	4.892963e+01	3.533731e+02
1.950000e-06	6.740614e-06	5.376814e-09	4.835916e+01	3.516783e+02
1.960000e-06	6.658655e-06	5.323024e-09	4.777116e+01	3.499194e+02
1.970000e-06	6.574313e-06	5.338737e-09	4.716607e+01	3.480987e+02
1.980000e-06	6.487496e-06	5.268864e-09	4.654321e+01	3.462176e+02
1.990000e-06	6.398257e-06	5.262766e-09	4.590299e+01	3.442760e+02
2.000000e-06	6.306894e-06	5.232066e-09	4.524752e+01	3.422724e+02
2.010000e-06	6.213278e-06	5.209681e-09	4.457589e+01	3.402037e+02
2.020000e-06	6.117303e-06	5.158010e-09	4.388734e+01	3.380658e+02
2.030000e-06	6.019176e-06	5.111068e-09	4.318335e+01	3.358531e+02
2.040000e-06	5.918975e-06	5.094759e-09	4.246447e+01	3.335598e+02
2.050000e-06	5.816681e-06	5.057837e-09	4.173059e+01	3.311803e+02
2.060000e-06	5.712295e-06	5.031637e-09	4.098169e+01	3.287096e+02
2.070000e-06	5.605962e-06	4.981032e-09	4.021883e+01	3.261443e+02
2.080000e-06	5.497736e-06	4.947528e-09	3.944238e+01	3.234824e+02
2.090000e-06	5.387567e-06	4.891783e-09	3.865200e+01	3.207240e+02
2.100000e-06	5.275424e-06	4.852669e-09	3.784745e+01	3.178712e+02
2.110000e-06	5.161317e-06	4.813080e-09	3.702882e+01	3.149269e+02
2.120000e-06	5.045217e-06	4.772658e-09	3.619588e+01	3.118950e+02
2.130000e-06	4.927113e-06	4.720351e-09	3.534856e+01	3.087789e+02
2.140000e-06	4.807087e-06	4.668707e-09	3.448746e+01	3.055808e+02
2.150000e-06	4.685292e-06	4.625188e-09	3.361367e+01	3.023011e+02
2.160000e-06	4.561819e-06	4.574192e-09	3.272784e+01	2.989371e+02
2.170000e-06	4.436699e-06	4.521780e-09	3.183019e+01	2.954837e+02
2.180000e-06	4.309934e-06	4.462014e-09	3.092074e+01	2.919328e+02
2.190000e-06	4.181539e-06	4.410544e-09	2.999960e+01	2.882741e+02
2.200000e-06	4.051654e-06	4.352918e-09	2.906777e+01	2.844963e+02
2.210000e-06	3.920282e-06	4.297772e-09	2.812526e+01	2.805877e+02
2.220000e-06	3.787409e-06	4.234355e-09	2.717199e+01	2.765381e+02
2.230000e-06	3.653106e-06	4.169325e-09	2.620846e+01	2.723394e+02
2.240000e-06	3.517484e-06	4.099429e-09	2.523547e+01	2.679864e+02
2.250000e-06	3.380568e-06	4.032915e-09	2.425320e+01	2.634776e+02
2.260000e-06	3.242345e-06	3.967758e-09	2.326154e+01	2.588144e+02
2.270000e-06	3.102816e-06	3.897982e-09	2.226052e+01	2.540008e+02
2.280000e-06	2.962038e-06	3.820193e-09	2.125053e+01	2.490419e+02
2.290000e-06	2.820104e-06	3.736645e-09	2.023226e+01	2.439428e+02
2.300000e-06	2.677089e-06	3.654739e-09	1.920623e+01	2.387063e+02
2.310000e-06	2.533127e-06	3.573041e-09	1.817340e+01	2.333321e+02
2.320000e-06	2.388263e-06	3.493789e-09	1.713410e+01	2.278157e+02
2.330000e-06	2.242614e-06	3.407901e-09	1.608917e+01	2.221474e+02
2.340000e-06	2.096272e-06	3.315719e-09	1.503928e+01	2.163129e+02
2.350000e-06	1.949250e-06	3.220607e-09	1.398449e+01	2.102943e+02
2.360000e-06	1.801520e-06	3.125421e-09	1.292464e+01	2.040713e+02
2.370000e-06	1.653158e-06	3.028085e-09	1.186024e+01	1.976230e+02
2.380000e-06	1.504297e-06	2.924923e-09	1.079227e+01	1.909301e+02
2.390000e-06	1.354950e-06	2.817836e-09	9.720815e+00	1.839768e+02
2.400000e-06	1.205151e-06	2.706377e-09	8.646108e+00	1.767514e+02
2.410000e-06	1.055022e-06	2.590429e-09	7.569038e+00	1.692477e+02
2.420000e-06	9.045933e-07	2.472871e-09	6.489820e+00	1.614638e+02
2.430000e-06	7.538362e-07	2.352683e-09	5.408244e+00	1.534013e+02
2.440000e-06	6.028482e-07	2.227624e-09	4.325011e+00	1.450633e+02
2.450000e-06	4.517007e-07	2.096191e-09	3.240634e+00	1.364513e+02
2.460000e-06	3.003764e-07	1.962162e-09	2.154989e+00	1.275632e+02
2.470000e-06	1.488593e-07	1.825111e-09	1.067961e+00	1.183905e+02
2.480000e-06	-2.738670e-09	1.680824e-09	-1.964803e-02	1.089168e+02
2.490000e-06	-1.543373e-07	1.530025e-09	-1.107262e+00	9.911732e+01
2.500000e-06	-3.058929e-07	1.373318e-09	-2.194566e+00	8.895949e+01
2.510000e-06	-4.573106e-07	1.210355e-09	-3.280882e+00	7.840545e+01
2.520000e-06	-6.086015e-07	1.042695e-09	-4.366287e+00	6.741557e+01
2.530000e-06	-7.597082e-07	8.700429e-10	-5.450371e+00	5.595308e+01
2.540000e-06	-9.105530e-07	6.889479e-10	-6.532576e+00	4.398935e+01
2.550000e-06	-1.061166e-06	4.971260e-10	-7.613117e+00	3.150919e+01
2.560000e-06	-1.211443e-06	2.963636e-10	-8.691247e+00	1.851553e+01
2.570000e-06	-1.361302e-06	9.014819e-11	-9.766382e+00	5.032979e+00
2.580000e-06	-1.510687e-06	-1.207313e-10	-1.083811e+01	-8.890259e+00
2.590000e-06	-1.659530e-06	-3.364817e-10	-1.190596e+01	-2.318249e+01
2.600000e-06	-1.807783e-06	-5.585253e-10	-1.296957e+01	-3.775065e+01
2.610000e-06	-1.955337e-06	-7.863518e-10	-1.402817e+01	-5.248438e+01
2.620000e-06	-2.102092e-06	-1.015327e-09	-1.508103e+01	-6.726176e+01
2.630000e-06	-2.248063e-06	-1.242006e-09	-1.612827e+01	-8.195600e+01
2.640000e-06	-2.393286e-06	-1.464609e-09	-1.717014e+01	-9.644272e+01
2.650000e-06	-2.537575e-06	-1.682571e-09	-1.820532e+01	-1.106068e+02
2.660000e-06	-2.680790e-06	-1.894413e-09	-1.923278e+01	-1.243484e+02
2.670000e-06	-2.822881e-06	-2.097788e-09	-2.025219e+01	-1.375876e+02
2.680000e-06	-2.963860e-06	-2.291578e-09	-2.126361e+01	-1.502666e+02
2.690000e-06	-3.103712e-06	-2.476113e-09	-2.226695e+01	-1.623512e+02
2.700000e-06	-3.242349e-06	-2.650496e-09	-2.326157e+01	-1.738287e+02
2.710000e-06	-3.379763e-06	-2.815004e-09	-2.424742e+01	-1.847053e+02
2.720000e-06	-3.515869e-06	-2.972222e-09	-2.522389e+01	-1.950023e+02
2.730000e-06	-3.650594e-06	-3.122098e-09	-2.619044e+01	-2.047507e+02
2.740000e-06	-3.784032e-06	-3.262754e-09	-2.714776e+01	-2.139867e+02
2.750000e-06	-3.916173e-06	-3.397835e-09	-2.809579e+01	-2.227474e+02
2.760000e-06	-4.046941e-06	-3.529221e-09	-2.903395e+01	-2.310671e+02
2.770000e-06	-4.176360e-06	-3.651833e-09	-2.996244e+01	-2.389751e+02
2.780000e-06	-4.304321e-06	-3.765811e-09	-3.088047e+01	-2.464950e+02
2.790000e-06	-4.430739e-06	-3.874017e-09	-3.178743e+01	-2.536447e+02
2.800000e-06	-4.555684e-06	-3.977624e-09	-3.268383e+01	-2.604377e+02
2.810000e-06	-4.679013e-06	-4.074363e-09	-3.356862e+01	-2.668852e+02
2.820000e-06	-4.800648e-06	-4.164795e-09	-3.444127e+01	-2.729978e+02
2.830000e-06	-4.920537e-06	-4.251943e-09	-3.530139e+01	-2.787880e+02
2.840000e-06	-5.038502e-06	-4.335940e-09	-3.614770e+01	-2.842709e+02
2.850000e-06	-5.154499e-06	-4.416441e-09	-3.697990e+01	-2.894655e+02
2.860000e-06	-5.268396e-06	-4.492565e-09	-3.779703e+01	-2.943941e+02
2.870000e-06	-5.380154e-06	-4.566377e-09	-3.859881e+01	-2.990815e+02
2.880000e-06	-5.489931e-06	-4.636994e-09	-3.938639e+01	-3.035536e+02
2.890000e-06	-5.597789e-06	-4.702476e-09	-4.016020e+01	-3.078350e+02
2.900000e-06	-5.703703e-06	-4.763930e-09	-4.092005e+01	-3.119475e+02
2.910000e-06	-5.807519e-06	-4.823641e-09	-4.166486e+01	-3.159083e+02
2.920000e-06	-5.909139e-06	-4.883257e-09	-4.239391e+01	-3.197286e+02
2.930000e-06	-6.008622e-06	-4.942132e-09	-4.310763e+01	-3.234138e+02
2.940000e-06	-6.106021e-06	-4.999792e-09	-4.380640e+01	-3.269635e+02
