# Temperatura_=_33.42
# Concentracion g/m^3_=_5000.0
# C_Vs_to_Am_M_A/Vsm_=_65563218390.804596
# pendiente_HvsI_1/m_=_3716.3
# ordenada_HvsI_A/m_=_1297.0
# frecuencia_Hz_=_302494.8445849599

Tiempo_(s)	Campo_(V.s)	Magnetizacion_(V.s)	Campo_(kA/m)	Magnetizacion_(A/m)
0.000000e+00	-7.906259e-06	-5.669493e-09	-5.688202e+01	-3.713945e+02
1.000000e-08	-7.903758e-06	-5.670285e-09	-5.686402e+01	-3.712301e+02
2.000000e-08	-7.898620e-06	-5.666033e-09	-5.682706e+01	-3.710013e+02
3.000000e-08	-7.890945e-06	-5.661792e-09	-5.677184e+01	-3.707166e+02
4.000000e-08	-7.880534e-06	-5.658914e-09	-5.669694e+01	-3.703858e+02
5.000000e-08	-7.867168e-06	-5.654345e-09	-5.660078e+01	-3.700190e+02
6.000000e-08	-7.850862e-06	-5.645820e-09	-5.648346e+01	-3.696250e+02
7.000000e-08	-7.832067e-06	-5.633831e-09	-5.634824e+01	-3.692105e+02
8.000000e-08	-7.811026e-06	-5.638395e-09	-5.619686e+01	-3.687791e+02
9.000000e-08	-7.787293e-06	-5.676240e-09	-5.602611e+01	-3.683310e+02
1.000000e-07	-7.760334e-06	-5.665055e-09	-5.583215e+01	-3.678630e+02
1.100000e-07	-7.730291e-06	-5.622171e-09	-5.561600e+01	-3.673686e+02
1.200000e-07	-7.697520e-06	-5.602173e-09	-5.538023e+01	-3.668395e+02
1.300000e-07	-7.662085e-06	-5.583082e-09	-5.512530e+01	-3.662658e+02
1.400000e-07	-7.624286e-06	-5.542339e-09	-5.485335e+01	-3.656377e+02
1.500000e-07	-7.584423e-06	-5.526207e-09	-5.456655e+01	-3.649466e+02
1.600000e-07	-7.542276e-06	-5.582465e-09	-5.426332e+01	-3.641851e+02
1.700000e-07	-7.497446e-06	-5.535357e-09	-5.394079e+01	-3.633487e+02
1.800000e-07	-7.449927e-06	-5.517393e-09	-5.359891e+01	-3.624349e+02
1.900000e-07	-7.399497e-06	-5.529501e-09	-5.323609e+01	-3.614440e+02
2.000000e-07	-7.346001e-06	-5.475325e-09	-5.285121e+01	-3.603777e+02
2.100000e-07	-7.289718e-06	-5.482995e-09	-5.244628e+01	-3.592394e+02
2.200000e-07	-7.230807e-06	-5.458501e-09	-5.202244e+01	-3.580330e+02
2.300000e-07	-7.169298e-06	-5.423535e-09	-5.157991e+01	-3.567622e+02
2.400000e-07	-7.105153e-06	-5.393874e-09	-5.111842e+01	-3.554304e+02
2.500000e-07	-7.038271e-06	-5.371654e-09	-5.063723e+01	-3.540398e+02
2.600000e-07	-6.968728e-06	-5.381430e-09	-5.013690e+01	-3.525917e+02
2.700000e-07	-6.896524e-06	-5.370091e-09	-4.961742e+01	-3.510861e+02
2.800000e-07	-6.821556e-06	-5.334261e-09	-4.907806e+01	-3.495224e+02
2.900000e-07	-6.743868e-06	-5.283915e-09	-4.851913e+01	-3.478994e+02
3.000000e-07	-6.663443e-06	-5.267908e-09	-4.794051e+01	-3.462154e+02
3.100000e-07	-6.580592e-06	-5.252756e-09	-4.734444e+01	-3.444688e+02
3.200000e-07	-6.495574e-06	-5.211144e-09	-4.673277e+01	-3.426579e+02
3.300000e-07	-6.408268e-06	-5.200256e-09	-4.610464e+01	-3.407811e+02
3.400000e-07	-6.318598e-06	-5.168399e-09	-4.545950e+01	-3.388369e+02
3.500000e-07	-6.226620e-06	-5.124005e-09	-4.479776e+01	-3.368237e+02
3.600000e-07	-6.132443e-06	-5.094495e-09	-4.412020e+01	-3.347394e+02
3.700000e-07	-6.036062e-06	-5.073065e-09	-4.342678e+01	-3.325818e+02
3.800000e-07	-5.937416e-06	-5.042896e-09	-4.271706e+01	-3.303483e+02
3.900000e-07	-5.836606e-06	-4.998553e-09	-4.199178e+01	-3.280359e+02
4.000000e-07	-5.733771e-06	-4.962977e-09	-4.125193e+01	-3.256419e+02
4.100000e-07	-5.628920e-06	-4.921801e-09	-4.049757e+01	-3.231635e+02
4.200000e-07	-5.522052e-06	-4.884143e-09	-3.972871e+01	-3.205985e+02
4.300000e-07	-5.413291e-06	-4.841222e-09	-3.894622e+01	-3.179455e+02
4.400000e-07	-5.302653e-06	-4.795027e-09	-3.815023e+01	-3.152037e+02
4.500000e-07	-5.189959e-06	-4.747986e-09	-3.733945e+01	-3.123733e+02
4.600000e-07	-5.075167e-06	-4.706890e-09	-3.651357e+01	-3.094547e+02
4.700000e-07	-4.958432e-06	-4.669942e-09	-3.567371e+01	-3.064485e+02
4.800000e-07	-4.839893e-06	-4.626955e-09	-3.482088e+01	-3.033548e+02
4.900000e-07	-4.719564e-06	-4.579594e-09	-3.395516e+01	-3.001728e+02
5.000000e-07	-4.597512e-06	-4.521308e-09	-3.307705e+01	-2.968999e+02
5.100000e-07	-4.473815e-06	-4.460187e-09	-3.218711e+01	-2.935321e+02
5.200000e-07	-4.348533e-06	-4.404583e-09	-3.128576e+01	-2.900632e+02
5.300000e-07	-4.221713e-06	-4.359692e-09	-3.037335e+01	-2.864856e+02
5.400000e-07	-4.093371e-06	-4.305627e-09	-2.944998e+01	-2.827906e+02
5.500000e-07	-3.963523e-06	-4.238143e-09	-2.851579e+01	-2.789690e+02
5.600000e-07	-3.832053e-06	-4.176261e-09	-2.756991e+01	-2.750124e+02
5.700000e-07	-3.699085e-06	-4.120020e-09	-2.661327e+01	-2.709133e+02
5.800000e-07	-3.564804e-06	-4.054694e-09	-2.564718e+01	-2.666669e+02
5.900000e-07	-3.429257e-06	-3.983685e-09	-2.467198e+01	-2.622705e+02
6.000000e-07	-3.292400e-06	-3.918095e-09	-2.368735e+01	-2.577239e+02
6.100000e-07	-3.154166e-06	-3.844614e-09	-2.269282e+01	-2.530294e+02
6.200000e-07	-3.014486e-06	-3.764793e-09	-2.168788e+01	-2.481902e+02
6.300000e-07	-2.873450e-06	-3.689607e-09	-2.067320e+01	-2.432098e+02
6.400000e-07	-2.731321e-06	-3.617241e-09	-1.965064e+01	-2.380904e+02
6.500000e-07	-2.588161e-06	-3.538659e-09	-1.862067e+01	-2.328321e+02
6.600000e-07	-2.444061e-06	-3.454759e-09	-1.758393e+01	-2.274311e+02
6.700000e-07	-2.299070e-06	-3.371586e-09	-1.654079e+01	-2.218799e+02
6.800000e-07	-2.153215e-06	-3.285300e-09	-1.549142e+01	-2.161666e+02
6.900000e-07	-2.006624e-06	-3.194273e-09	-1.443677e+01	-2.102761e+02
7.000000e-07	-1.859455e-06	-3.099659e-09	-1.337795e+01	-2.041904e+02
7.100000e-07	-1.711762e-06	-3.002694e-09	-1.231536e+01	-1.978909e+02
7.200000e-07	-1.563558e-06	-2.900219e-09	-1.124910e+01	-1.913596e+02
7.300000e-07	-1.414873e-06	-2.795991e-09	-1.017938e+01	-1.845810e+02
7.400000e-07	-1.265754e-06	-2.690426e-09	-9.106536e+00	-1.775434e+02
7.500000e-07	-1.116235e-06	-2.580950e-09	-8.030813e+00	-1.702394e+02
7.600000e-07	-9.663690e-07	-2.469403e-09	-6.952595e+00	-1.626660e+02
7.700000e-07	-8.162202e-07	-2.354156e-09	-5.872341e+00	-1.548240e+02
7.800000e-07	-6.657977e-07	-2.232851e-09	-4.790118e+00	-1.467157e+02
7.900000e-07	-5.150875e-07	-2.103977e-09	-3.705825e+00	-1.383431e+02
8.000000e-07	-3.641370e-07	-1.969617e-09	-2.619804e+00	-1.297053e+02
8.100000e-07	-2.130514e-07	-1.828859e-09	-1.532810e+00	-1.207963e+02
8.200000e-07	-6.189489e-08	-1.683863e-09	-4.453062e-01	-1.116027e+02
8.300000e-07	8.930502e-08	-1.534892e-09	6.425099e-01	-1.021029e+02
8.400000e-07	2.404630e-07	-1.382869e-09	1.730024e+00	-9.226784e+01
8.500000e-07	3.915492e-07	-1.228353e-09	2.817022e+00	-8.206170e+01
8.600000e-07	5.425766e-07	-1.067784e-09	3.903597e+00	-7.144556e+01
8.700000e-07	6.934390e-07	-9.022286e-10	4.988985e+00	-6.038115e+01
8.800000e-07	8.440822e-07	-7.283551e-10	6.072796e+00	-4.883583e+01
8.900000e-07	9.944756e-07	-5.452756e-10	7.154809e+00	-3.678767e+01
9.000000e-07	1.144524e-06	-3.546716e-10	8.234338e+00	-2.423036e+01
9.100000e-07	1.294213e-06	-1.578863e-10	9.311288e+00	-1.117722e+01
9.200000e-07	1.443465e-06	4.553746e-11	1.038509e+01	2.336221e+00
9.300000e-07	1.592197e-06	2.577707e-10	1.145515e+01	1.625131e+01
9.400000e-07	1.740403e-06	4.748590e-10	1.252142e+01	3.048746e+01
9.500000e-07	1.888021e-06	6.951788e-10	1.358347e+01	4.494514e+01
9.600000e-07	2.035003e-06	9.172030e-10	1.464094e+01	5.951071e+01
9.700000e-07	2.181206e-06	1.136984e-09	1.569281e+01	7.406250e+01
9.800000e-07	2.326499e-06	1.354175e-09	1.673812e+01	8.847755e+01
9.900000e-07	2.470864e-06	1.569267e-09	1.777677e+01	1.026385e+02
1.000000e-06	2.614323e-06	1.782118e-09	1.880889e+01	1.164399e+02
1.010000e-06	2.756846e-06	1.987508e-09	1.983428e+01	1.297931e+02
1.020000e-06	2.898240e-06	2.181981e-09	2.085155e+01	1.426299e+02
1.030000e-06	3.038373e-06	2.364176e-09	2.185975e+01	1.549041e+02
1.040000e-06	3.177261e-06	2.537183e-09	2.285898e+01	1.665911e+02
1.050000e-06	3.314909e-06	2.703667e-09	2.384930e+01	1.776860e+02
1.060000e-06	3.451298e-06	2.863114e-09	2.483055e+01	1.881999e+02
1.070000e-06	3.586389e-06	3.014769e-09	2.580247e+01	1.981563e+02
1.080000e-06	3.720171e-06	3.158745e-09	2.676498e+01	2.075859e+02
1.090000e-06	3.852656e-06	3.296000e-09	2.771815e+01	2.165225e+02
1.100000e-06	3.983730e-06	3.428247e-09	2.866117e+01	2.249995e+02
1.110000e-06	4.113309e-06	3.553127e-09	2.959343e+01	2.330470e+02
1.120000e-06	4.241474e-06	3.672162e-09	3.051552e+01	2.406906e+02
1.130000e-06	4.368199e-06	3.785042e-09	3.142725e+01	2.479511e+02
1.140000e-06	4.493428e-06	3.888243e-09	3.232822e+01	2.548450e+02
1.150000e-06	4.617133e-06	3.985561e-09	3.321822e+01	2.613866e+02
1.160000e-06	4.739208e-06	4.078898e-09	3.409649e+01	2.675891e+02
1.170000e-06	4.859621e-06	4.167359e-09	3.496281e+01	2.734667e+02
1.180000e-06	4.978292e-06	4.249691e-09	3.581660e+01	2.790360e+02
1.190000e-06	5.095123e-06	4.328387e-09	3.665714e+01	2.843166e+02
1.200000e-06	5.210028e-06	4.404823e-09	3.748383e+01	2.893312e+02
1.210000e-06	5.322922e-06	4.480242e-09	3.829606e+01	2.941044e+02
1.220000e-06	5.433778e-06	4.551474e-09	3.909362e+01	2.986620e+02
1.230000e-06	5.542729e-06	4.618015e-09	3.987747e+01	3.030285e+02
1.240000e-06	5.649744e-06	4.681540e-09	4.064739e+01	3.072255e+02
1.250000e-06	5.754655e-06	4.741762e-09	4.140219e+01	3.112703e+02
1.260000e-06	5.857458e-06	4.798956e-09	4.214180e+01	3.151744e+02
1.270000e-06	5.958133e-06	4.853556e-09	4.286612e+01	3.189430e+02
1.280000e-06	6.056568e-06	4.907311e-09	4.357431e+01	3.225758e+02
1.290000e-06	6.152671e-06	4.959930e-09	4.426573e+01	3.260675e+02
1.300000e-06	6.246555e-06	5.010649e-09	4.494118e+01	3.294098e+02
1.310000e-06	6.338234e-06	5.059534e-09	4.560077e+01	3.325929e+02
1.320000e-06	6.427626e-06	5.105375e-09	4.624391e+01	3.356081e+02
1.330000e-06	6.514748e-06	5.147185e-09	4.687072e+01	3.384493e+02
1.340000e-06	6.599601e-06	5.186046e-09	4.748120e+01	3.411141e+02
1.350000e-06	6.682128e-06	5.222258e-09	4.807494e+01	3.436050e+02
1.360000e-06	6.762258e-06	5.255726e-09	4.865144e+01	3.459290e+02
1.370000e-06	6.839887e-06	5.287650e-09	4.920995e+01	3.480971e+02
1.380000e-06	6.914881e-06	5.317251e-09	4.974949e+01	3.501232e+02
1.390000e-06	6.987231e-06	5.345075e-09	5.027002e+01	3.520220e+02
1.400000e-06	7.057117e-06	5.373865e-09	5.077282e+01	3.538082e+02
1.410000e-06	7.124580e-06	5.402636e-09	5.125818e+01	3.554942e+02
1.420000e-06	7.189467e-06	5.429743e-09	5.172502e+01	3.570898e+02
1.430000e-06	7.251785e-06	5.454665e-09	5.217337e+01	3.586007e+02
1.440000e-06	7.311591e-06	5.476255e-09	5.260364e+01	3.600294e+02
1.450000e-06	7.368881e-06	5.494404e-09	5.301582e+01	3.613752e+02
1.460000e-06	7.423588e-06	5.510061e-09	5.340942e+01	3.626356e+02
1.470000e-06	7.475409e-06	5.524910e-09	5.378225e+01	3.638069e+02
1.480000e-06	7.524149e-06	5.539462e-09	5.413290e+01	3.648864e+02
1.490000e-06	7.570079e-06	5.553757e-09	5.446335e+01	3.658725e+02
1.500000e-06	7.613402e-06	5.568838e-09	5.477504e+01	3.667661e+02
1.510000e-06	7.653967e-06	5.584975e-09	5.506689e+01	3.675708e+02
1.520000e-06	7.691794e-06	5.599703e-09	5.533903e+01	3.682924e+02
1.530000e-06	7.726950e-06	5.610462e-09	5.559197e+01	3.689385e+02
1.540000e-06	7.759357e-06	5.618796e-09	5.582512e+01	3.695175e+02
1.550000e-06	7.789032e-06	5.627302e-09	5.603862e+01	3.700373e+02
1.560000e-06	7.815960e-06	5.635332e-09	5.623235e+01	3.705043e+02
1.570000e-06	7.839978e-06	5.641826e-09	5.640516e+01	3.709228e+02
1.580000e-06	7.861160e-06	5.646085e-09	5.655755e+01	3.712940e+02
1.590000e-06	7.879657e-06	5.650117e-09	5.669063e+01	3.716164e+02
1.600000e-06	7.895305e-06	5.655924e-09	5.680321e+01	3.718860e+02
1.610000e-06	7.907899e-06	5.662602e-09	5.689382e+01	3.720972e+02
1.620000e-06	7.917335e-06	5.667811e-09	5.696171e+01	3.722439e+02
1.630000e-06	7.923834e-06	5.670109e-09	5.700846e+01	3.723210e+02
1.640000e-06	7.927580e-06	5.670950e-09	5.703541e+01	3.723247e+02
1.650000e-06	7.928426e-06	5.672297e-09	5.704150e+01	3.722542e+02
1.660000e-06	7.926570e-06	5.667745e-09	5.702814e+01	3.721117e+02
1.670000e-06	7.922151e-06	5.662680e-09	5.699635e+01	3.719026e+02
1.680000e-06	7.915003e-06	5.657406e-09	5.694493e+01	3.716345e+02
1.690000e-06	7.905252e-06	5.652268e-09	5.687477e+01	3.713172e+02
1.700000e-06	7.892831e-06	5.650426e-09	5.678541e+01	3.709607e+02
1.710000e-06	7.877622e-06	5.652715e-09	5.667599e+01	3.705743e+02
1.720000e-06	7.859971e-06	5.657855e-09	5.654900e+01	3.701656e+02
1.730000e-06	7.840110e-06	5.621797e-09	5.640611e+01	3.697393e+02
1.740000e-06	7.817591e-06	5.568623e-09	5.624409e+01	3.692966e+02
1.750000e-06	7.791675e-06	5.584640e-09	5.605764e+01	3.688352e+02
1.760000e-06	7.762151e-06	5.598774e-09	5.584522e+01	3.683500e+02
1.770000e-06	7.729536e-06	5.581959e-09	5.561058e+01	3.678328e+02
1.780000e-06	7.694503e-06	5.604082e-09	5.535853e+01	3.672742e+02
1.790000e-06	7.657206e-06	5.634613e-09	5.509019e+01	3.666645e+02
1.800000e-06	7.617755e-06	5.568447e-09	5.480636e+01	3.659942e+02
1.810000e-06	7.576169e-06	5.576928e-09	5.450717e+01	3.652558e+02
1.820000e-06	7.532130e-06	5.574788e-09	5.419033e+01	3.644436e+02
1.830000e-06	7.485480e-06	5.528865e-09	5.385470e+01	3.635546e+02
1.840000e-06	7.436031e-06	5.573414e-09	5.349894e+01	3.625880e+02
1.850000e-06	7.383608e-06	5.506413e-09	5.312177e+01	3.615454e+02
1.860000e-06	7.328278e-06	5.504252e-09	5.272370e+01	3.604297e+02
1.870000e-06	7.270254e-06	5.501480e-09	5.230624e+01	3.592445e+02
1.880000e-06	7.209724e-06	5.450174e-09	5.187076e+01	3.579938e+02
1.890000e-06	7.146443e-06	5.474191e-09	5.141548e+01	3.566811e+02
1.900000e-06	7.080342e-06	5.419008e-09	5.093991e+01	3.553089e+02
1.910000e-06	7.011503e-06	5.395176e-09	5.044465e+01	3.538790e+02
1.920000e-06	6.939915e-06	5.367806e-09	4.992960e+01	3.523917e+02
1.930000e-06	6.865733e-06	5.348733e-09	4.939590e+01	3.508466e+02
1.940000e-06	6.788809e-06	5.356865e-09	4.884246e+01	3.492426e+02
1.950000e-06	6.709131e-06	5.314303e-09	4.826921e+01	3.475781e+02
1.960000e-06	6.627003e-06	5.306876e-09	4.767834e+01	3.458516e+02
1.970000e-06	6.542516e-06	5.239715e-09	4.707049e+01	3.440612e+02
1.980000e-06	6.455576e-06	5.204522e-09	4.644500e+01	3.422056e+02
1.990000e-06	6.366247e-06	5.188729e-09	4.580232e+01	3.402830e+02
2.000000e-06	6.274818e-06	5.165889e-09	4.514452e+01	3.382919e+02
2.010000e-06	6.181182e-06	5.148640e-09	4.447086e+01	3.362305e+02
2.020000e-06	6.085192e-06	5.097422e-09	4.378025e+01	3.340965e+02
2.030000e-06	5.987036e-06	5.066938e-09	4.307406e+01	3.318874e+02
2.040000e-06	5.886843e-06	5.022998e-09	4.235322e+01	3.296005e+02
2.050000e-06	5.784557e-06	5.003165e-09	4.161732e+01	3.272328e+02
2.060000e-06	5.680130e-06	4.968023e-09	4.086601e+01	3.247816e+02
2.070000e-06	5.573769e-06	4.921877e-09	4.010079e+01	3.222444e+02
2.080000e-06	5.465584e-06	4.875226e-09	3.932245e+01	3.196195e+02
2.090000e-06	5.355430e-06	4.833196e-09	3.852994e+01	3.169061e+02
2.100000e-06	5.243263e-06	4.796340e-09	3.772294e+01	3.141039e+02
2.110000e-06	5.129186e-06	4.757003e-09	3.690222e+01	3.112133e+02
2.120000e-06	5.013098e-06	4.719898e-09	3.606701e+01	3.082350e+02
2.130000e-06	4.894948e-06	4.661786e-09	3.521698e+01	3.051693e+02
2.140000e-06	4.774876e-06	4.609701e-09	3.435311e+01	3.020156e+02
2.150000e-06	4.653063e-06	4.564559e-09	3.347672e+01	2.987720e+02
2.160000e-06	4.529618e-06	4.527631e-09	3.258858e+01	2.954351e+02
2.170000e-06	4.404551e-06	4.472552e-09	3.168879e+01	2.919992e+02
2.180000e-06	4.277867e-06	4.409494e-09	3.077735e+01	2.884573e+02
2.190000e-06	4.149533e-06	4.350359e-09	2.985404e+01	2.848008e+02
2.200000e-06	4.019718e-06	4.292412e-09	2.892008e+01	2.810206e+02
2.210000e-06	3.888517e-06	4.234172e-09	2.797615e+01	2.771080e+02
2.220000e-06	3.755868e-06	4.180604e-09	2.702180e+01	2.730552e+02
2.230000e-06	3.621771e-06	4.122690e-09	2.605703e+01	2.688563e+02
2.240000e-06	3.486287e-06	4.048855e-09	2.508228e+01	2.645079e+02
2.250000e-06	3.349506e-06	3.978600e-09	2.409820e+01	2.600093e+02
2.260000e-06	3.211507e-06	3.914886e-09	2.310536e+01	2.553618e+02
2.270000e-06	3.072257e-06	3.848205e-09	2.210352e+01	2.505685e+02
2.280000e-06	2.931729e-06	3.764872e-09	2.109249e+01	2.456329e+02
2.290000e-06	2.790019e-06	3.678845e-09	2.007294e+01	2.405578e+02
2.300000e-06	2.647241e-06	3.596953e-09	1.904572e+01	2.353441e+02
2.310000e-06	2.503491e-06	3.516883e-09	1.801150e+01	2.299894e+02
2.320000e-06	2.358854e-06	3.439428e-09	1.697090e+01	2.244873e+02
2.330000e-06	2.213497e-06	3.360297e-09	1.592513e+01	2.188274e+02
2.340000e-06	2.067477e-06	3.270571e-09	1.487458e+01	2.129955e+02
2.350000e-06	1.920694e-06	3.171608e-09	1.381854e+01	2.069743e+02
2.360000e-06	1.773237e-06	3.075085e-09	1.275765e+01	2.007453e+02
2.370000e-06	1.625316e-06	2.979947e-09	1.169343e+01	1.942902e+02
2.380000e-06	1.476963e-06	2.876781e-09	1.062609e+01	1.875923e+02
2.390000e-06	1.328062e-06	2.765171e-09	9.554815e+00	1.806387e+02
2.400000e-06	1.178660e-06	2.651329e-09	8.479933e+00	1.734206e+02
2.410000e-06	1.028893e-06	2.537068e-09	7.402426e+00	1.659337e+02
2.420000e-06	8.787686e-07	2.422492e-09	6.322349e+00	1.581776e+02
2.430000e-06	7.283302e-07	2.306427e-09	5.240012e+00	1.501543e+02
2.440000e-06	5.776102e-07	2.184006e-09	4.155649e+00	1.418663e+02
2.450000e-06	4.266952e-07	2.051113e-09	3.069882e+00	1.333140e+02
2.460000e-06	2.756145e-07	1.913147e-09	1.982924e+00	1.244930e+02
2.470000e-06	1.244187e-07	1.775498e-09	8.951374e-01	1.153925e+02
2.480000e-06	-2.682503e-08	1.635694e-09	-1.929942e-01	1.059938e+02
2.490000e-06	-1.781070e-07	1.488223e-09	-1.281401e+00	9.626991e+01
2.500000e-06	-3.293431e-07	1.330850e-09	-2.369477e+00	8.618696e+01
2.510000e-06	-4.804986e-07	1.167614e-09	-3.456974e+00	7.570668e+01
2.520000e-06	-6.315002e-07	1.002081e-09	-4.543363e+00	6.479006e+01
2.530000e-06	-7.823215e-07	8.334796e-10	-5.628455e+00	5.340210e+01
2.540000e-06	-9.328486e-07	6.565897e-10	-6.711430e+00	4.151686e+01
2.550000e-06	-1.082938e-06	4.667873e-10	-7.791260e+00	2.912253e+01
2.560000e-06	-1.232634e-06	2.642931e-10	-8.868255e+00	1.622576e+01
2.570000e-06	-1.381901e-06	5.409066e-11	-9.942160e+00	2.854751e+00
2.580000e-06	-1.530688e-06	-1.576463e-10	-1.101262e+01	-1.093925e+01
2.590000e-06	-1.678979e-06	-3.707532e-10	-1.207951e+01	-2.508246e+01
2.600000e-06	-1.826710e-06	-5.893598e-10	-1.314236e+01	-3.948099e+01
2.610000e-06	-1.973778e-06	-8.135451e-10	-1.420045e+01	-5.402513e+01
2.620000e-06	-2.120084e-06	-1.038541e-09	-1.525306e+01	-6.859507e+01
2.630000e-06	-2.265590e-06	-1.260193e-09	-1.629991e+01	-8.306750e+01
2.640000e-06	-2.410206e-06	-1.477985e-09	-1.734036e+01	-9.732256e+01
2.650000e-06	-2.553911e-06	-1.692485e-09	-1.837426e+01	-1.112503e+02
2.660000e-06	-2.696613e-06	-1.903290e-09	-1.940093e+01	-1.247563e+02
2.670000e-06	-2.838155e-06	-2.106619e-09	-2.041926e+01	-1.377654e+02
2.680000e-06	-2.978551e-06	-2.297516e-09	-2.142935e+01	-1.502244e+02
2.690000e-06	-3.117765e-06	-2.477173e-09	-2.243093e+01	-1.621018e+02
2.700000e-06	-3.255758e-06	-2.646897e-09	-2.342373e+01	-1.733867e+02
2.710000e-06	-3.392561e-06	-2.807969e-09	-2.440797e+01	-1.840855e+02
2.720000e-06	-3.528078e-06	-2.962386e-09	-2.538295e+01	-1.942183e+02
2.730000e-06	-3.662275e-06	-3.108755e-09	-2.634844e+01	-2.038138e+02
2.740000e-06	-3.795175e-06	-3.245972e-09	-2.730460e+01	-2.129054e+02
2.750000e-06	-3.926721e-06	-3.378321e-09	-2.825101e+01	-2.215269e+02
2.760000e-06	-4.056945e-06	-3.508111e-09	-2.918792e+01	-2.297096e+02
2.770000e-06	-4.185776e-06	-3.632202e-09	-3.011480e+01	-2.374808e+02
2.780000e-06	-4.313105e-06	-3.747489e-09	-3.103087e+01	-2.448626e+02
2.790000e-06	-4.438956e-06	-3.852779e-09	-3.193631e+01	-2.518730e+02
2.800000e-06	-4.563308e-06	-3.949943e-09	-3.283097e+01	-2.585266e+02
2.810000e-06	-4.686104e-06	-4.041829e-09	-3.371443e+01	-2.648369e+02
2.820000e-06	-4.807216e-06	-4.129241e-09	-3.458578e+01	-2.708175e+02
2.830000e-06	-4.926431e-06	-4.213165e-09	-3.544348e+01	-2.764841e+02
2.840000e-06	-5.043684e-06	-4.296066e-09	-3.628706e+01	-2.818554e+02
2.850000e-06	-5.158926e-06	-4.376824e-09	-3.711618e+01	-2.869531e+02
2.860000e-06	-5.272045e-06	-4.454313e-09	-3.793002e+01	-2.918013e+02
2.870000e-06	-5.383124e-06	-4.529931e-09	-3.872918e+01	-2.964257e+02
2.880000e-06	-5.492276e-06	-4.601268e-09	-3.951449e+01	-3.008513e+02
2.890000e-06	-5.599517e-06	-4.664928e-09	-4.028603e+01	-3.051009e+02
2.900000e-06	-5.704843e-06	-4.724286e-09	-4.104380e+01	-3.091934e+02
2.910000e-06	-5.808071e-06	-4.782918e-09	-4.178649e+01	-3.131420e+02
2.920000e-06	-5.909059e-06	-4.841735e-09	-4.251305e+01	-3.169542e+02
2.930000e-06	-6.007929e-06	-4.899401e-09	-4.322437e+01	-3.206312e+02
2.940000e-06	-6.104712e-06	-4.955578e-09	-4.392069e+01	-3.241693e+02
