# Temperatura_=_39.86
# Concentracion g/m^3_=_5000.0
# C_Vs_to_Am_M_A/Vsm_=_65563218390.804596
# pendiente_HvsI_1/m_=_3716.3
# ordenada_HvsI_A/m_=_1297.0
# frecuencia_Hz_=_302505.8560597845

Tiempo_(s)	Campo_(V.s)	Magnetizacion_(V.s)	Campo_(kA/m)	Magnetizacion_(A/m)
0.000000e+00	-7.940557e-06	-5.873469e-09	-5.688189e+01	-3.846962e+02
1.000000e-08	-7.938434e-06	-5.875547e-09	-5.686669e+01	-3.845154e+02
2.000000e-08	-7.933564e-06	-5.873610e-09	-5.683180e+01	-3.842640e+02
3.000000e-08	-7.926173e-06	-5.869380e-09	-5.677886e+01	-3.839522e+02
4.000000e-08	-7.916046e-06	-5.866900e-09	-5.670631e+01	-3.835922e+02
5.000000e-08	-7.903045e-06	-5.862510e-09	-5.661318e+01	-3.831964e+02
6.000000e-08	-7.887112e-06	-5.853102e-09	-5.649905e+01	-3.827759e+02
7.000000e-08	-7.868577e-06	-5.842576e-09	-5.636627e+01	-3.823388e+02
8.000000e-08	-7.847777e-06	-5.841301e-09	-5.621727e+01	-3.818893e+02
9.000000e-08	-7.824329e-06	-5.869765e-09	-5.604930e+01	-3.814274e+02
1.000000e-07	-7.797704e-06	-5.873452e-09	-5.585857e+01	-3.809483e+02
1.100000e-07	-7.767922e-06	-5.831585e-09	-5.564523e+01	-3.804440e+02
1.200000e-07	-7.735349e-06	-5.804157e-09	-5.541190e+01	-3.799035e+02
1.300000e-07	-7.700080e-06	-5.791226e-09	-5.515925e+01	-3.793148e+02
1.400000e-07	-7.662322e-06	-5.758360e-09	-5.488877e+01	-3.786663e+02
1.500000e-07	-7.622477e-06	-5.722816e-09	-5.460334e+01	-3.779478e+02
1.600000e-07	-7.580400e-06	-5.762935e-09	-5.430192e+01	-3.771519e+02
1.700000e-07	-7.535646e-06	-5.777046e-09	-5.398133e+01	-3.762744e+02
1.800000e-07	-7.488277e-06	-5.729003e-09	-5.364200e+01	-3.753142e+02
1.900000e-07	-7.438056e-06	-5.726940e-09	-5.328225e+01	-3.742733e+02
2.000000e-07	-7.384727e-06	-5.686314e-09	-5.290023e+01	-3.731555e+02
2.100000e-07	-7.328651e-06	-5.647607e-09	-5.249853e+01	-3.719658e+02
2.200000e-07	-7.269911e-06	-5.647253e-09	-5.207774e+01	-3.707093e+02
2.300000e-07	-7.208534e-06	-5.641981e-09	-5.163808e+01	-3.693900e+02
2.400000e-07	-7.144564e-06	-5.623393e-09	-5.117983e+01	-3.680105e+02
2.500000e-07	-7.077806e-06	-5.566594e-09	-5.070161e+01	-3.665713e+02
2.600000e-07	-7.008328e-06	-5.562461e-09	-5.020391e+01	-3.650714e+02
2.700000e-07	-6.936189e-06	-5.564503e-09	-4.968714e+01	-3.635080e+02
2.800000e-07	-6.861270e-06	-5.530666e-09	-4.915046e+01	-3.618780e+02
2.900000e-07	-6.783573e-06	-5.500501e-09	-4.859388e+01	-3.601776e+02
3.000000e-07	-6.703116e-06	-5.481874e-09	-4.801753e+01	-3.584042e+02
3.100000e-07	-6.620210e-06	-5.455165e-09	-4.742364e+01	-3.565559e+02
3.200000e-07	-6.535125e-06	-5.404114e-09	-4.681413e+01	-3.546321e+02
3.300000e-07	-6.447750e-06	-5.384816e-09	-4.618822e+01	-3.526336e+02
3.400000e-07	-6.357981e-06	-5.355453e-09	-4.554517e+01	-3.505620e+02
3.500000e-07	-6.265925e-06	-5.309068e-09	-4.488573e+01	-3.484192e+02
3.600000e-07	-6.171664e-06	-5.280523e-09	-4.421049e+01	-3.462069e+02
3.700000e-07	-6.075133e-06	-5.256424e-09	-4.351900e+01	-3.439259e+02
3.800000e-07	-5.976317e-06	-5.228102e-09	-4.281113e+01	-3.415756e+02
3.900000e-07	-5.875366e-06	-5.185273e-09	-4.208797e+01	-3.391539e+02
4.000000e-07	-5.772418e-06	-5.143230e-09	-4.135051e+01	-3.366572e+02
4.100000e-07	-5.667413e-06	-5.095194e-09	-4.059831e+01	-3.340808e+02
4.200000e-07	-5.560347e-06	-5.050069e-09	-3.983134e+01	-3.314195e+02
4.300000e-07	-5.451337e-06	-5.015772e-09	-3.905046e+01	-3.286680e+02
4.400000e-07	-5.340496e-06	-4.980744e-09	-3.825645e+01	-3.258219e+02
4.500000e-07	-5.227697e-06	-4.929821e-09	-3.744842e+01	-3.228779e+02
4.600000e-07	-5.112701e-06	-4.876574e-09	-3.662465e+01	-3.198340e+02
4.700000e-07	-4.995634e-06	-4.831399e-09	-3.578605e+01	-3.166897e+02
4.800000e-07	-4.876813e-06	-4.781553e-09	-3.493487e+01	-3.134454e+02
4.900000e-07	-4.756294e-06	-4.732550e-09	-3.407154e+01	-3.101016e+02
5.000000e-07	-4.633962e-06	-4.683676e-09	-3.319522e+01	-3.066586e+02
5.100000e-07	-4.509880e-06	-4.624717e-09	-3.230636e+01	-3.031155e+02
5.200000e-07	-4.384238e-06	-4.559141e-09	-3.140633e+01	-2.994697e+02
5.300000e-07	-4.257090e-06	-4.505157e-09	-3.049551e+01	-2.957166e+02
5.400000e-07	-4.128418e-06	-4.451065e-09	-2.957377e+01	-2.918496e+02
5.500000e-07	-3.998156e-06	-4.382006e-09	-2.864065e+01	-2.878605e+02
5.600000e-07	-3.866271e-06	-4.312123e-09	-2.769590e+01	-2.837404e+02
5.700000e-07	-3.732949e-06	-4.252585e-09	-2.674085e+01	-2.794806e+02
5.800000e-07	-3.598326e-06	-4.186636e-09	-2.577648e+01	-2.750733e+02
5.900000e-07	-3.462348e-06	-4.110799e-09	-2.480240e+01	-2.705127e+02
6.000000e-07	-3.325001e-06	-4.038766e-09	-2.381853e+01	-2.657954e+02
6.100000e-07	-3.186270e-06	-3.965036e-09	-2.282473e+01	-2.609206e+02
6.200000e-07	-3.046123e-06	-3.883208e-09	-2.182079e+01	-2.558895e+02
6.300000e-07	-2.904653e-06	-3.802930e-09	-2.080738e+01	-2.507046e+02
6.400000e-07	-2.761988e-06	-3.730127e-09	-1.978540e+01	-2.453686e+02
6.500000e-07	-2.618216e-06	-3.653110e-09	-1.875550e+01	-2.398830e+02
6.600000e-07	-2.473494e-06	-3.564346e-09	-1.771878e+01	-2.342464e+02
6.700000e-07	-2.327908e-06	-3.470452e-09	-1.667589e+01	-2.284543e+02
6.800000e-07	-2.181556e-06	-3.378765e-09	-1.562749e+01	-2.224978e+02
6.900000e-07	-2.034605e-06	-3.284458e-09	-1.457482e+01	-2.163641e+02
7.000000e-07	-1.887047e-06	-3.185698e-09	-1.351780e+01	-2.100372e+02
7.100000e-07	-1.738827e-06	-3.085316e-09	-1.245602e+01	-2.034986e+02
7.200000e-07	-1.590090e-06	-2.979975e-09	-1.139055e+01	-1.967298e+02
7.300000e-07	-1.440996e-06	-2.871445e-09	-1.032252e+01	-1.897132e+02
7.400000e-07	-1.291489e-06	-2.760603e-09	-9.251537e+00	-1.824341e+02
7.500000e-07	-1.141548e-06	-2.647971e-09	-8.177437e+00	-1.748815e+02
7.600000e-07	-9.912112e-07	-2.533997e-09	-7.100506e+00	-1.670486e+02
7.700000e-07	-8.405134e-07	-2.415881e-09	-6.020988e+00	-1.589325e+02
7.800000e-07	-6.894892e-07	-2.288615e-09	-4.939131e+00	-1.505324e+02
7.900000e-07	-5.381388e-07	-2.153020e-09	-3.854938e+00	-1.418480e+02
8.000000e-07	-3.865741e-07	-2.013181e-09	-2.769209e+00	-1.328768e+02
8.100000e-07	-2.348834e-07	-1.866764e-09	-1.682579e+00	-1.236117e+02
8.200000e-07	-8.307816e-08	-1.714494e-09	-5.951274e-01	-1.140388e+02
8.300000e-07	6.879251e-08	-1.558968e-09	4.927927e-01	-1.041364e+02
8.400000e-07	2.206806e-07	-1.403220e-09	1.580838e+00	-9.387474e+01
8.500000e-07	3.725630e-07	-1.243603e-09	2.668842e+00	-8.321754e+01
8.600000e-07	5.243628e-07	-1.074892e-09	3.756254e+00	-7.212467e+01
8.700000e-07	6.759770e-07	-8.990197e-10	4.842337e+00	-6.055650e+01
8.800000e-07	8.273280e-07	-7.160607e-10	5.926535e+00	-4.847890e+01
8.900000e-07	9.783710e-07	-5.244424e-10	7.008525e+00	-3.586887e+01
9.000000e-07	1.129077e-06	-3.258825e-10	8.088099e+00	-2.271987e+01
9.100000e-07	1.279384e-06	-1.212174e-10	9.164819e+00	-9.046388e+00
9.200000e-07	1.429225e-06	9.102228e-11	1.023820e+01	5.113032e+00
9.300000e-07	1.578627e-06	3.126217e-10	1.130843e+01	1.969459e+01
9.400000e-07	1.727514e-06	5.416804e-10	1.237499e+01	3.461030e+01
9.500000e-07	1.875753e-06	7.744815e-10	1.343689e+01	4.975124e+01
9.600000e-07	2.023374e-06	1.008394e-09	1.449437e+01	6.499277e+01
9.700000e-07	2.170283e-06	1.240481e-09	1.554675e+01	8.020140e+01
9.800000e-07	2.316374e-06	1.468809e-09	1.659327e+01	9.524237e+01
9.900000e-07	2.461605e-06	1.691548e-09	1.763362e+01	1.099875e+02
1.000000e-06	2.605917e-06	1.909352e-09	1.866739e+01	1.243224e+02
1.010000e-06	2.749218e-06	2.120973e-09	1.969392e+01	1.381522e+02
1.020000e-06	2.891419e-06	2.321990e-09	2.071257e+01	1.514056e+02
1.030000e-06	3.032536e-06	2.509888e-09	2.172346e+01	1.640366e+02
1.040000e-06	3.172431e-06	2.687370e-09	2.272559e+01	1.760243e+02
1.050000e-06	3.310959e-06	2.857583e-09	2.371794e+01	1.873700e+02
1.060000e-06	3.448161e-06	3.020273e-09	2.470078e+01	1.980931e+02
1.070000e-06	3.584031e-06	3.176110e-09	2.567408e+01	2.082263e+02
1.080000e-06	3.718583e-06	3.326046e-09	2.663794e+01	2.178099e+02
1.090000e-06	3.851846e-06	3.467926e-09	2.759256e+01	2.268861e+02
1.100000e-06	3.983715e-06	3.602042e-09	2.853720e+01	2.354952e+02
1.110000e-06	4.114112e-06	3.726618e-09	2.947129e+01	2.436722e+02
1.120000e-06	4.242974e-06	3.844390e-09	3.039439e+01	2.514452e+02
1.130000e-06	4.370336e-06	3.956582e-09	3.130675e+01	2.588355e+02
1.140000e-06	4.496284e-06	4.062489e-09	3.220897e+01	2.658582e+02
1.150000e-06	4.620771e-06	4.163370e-09	3.310072e+01	2.725250e+02
1.160000e-06	4.743695e-06	4.258738e-09	3.398129e+01	2.788462e+02
1.170000e-06	4.864905e-06	4.348984e-09	3.484957e+01	2.848333e+02
1.180000e-06	4.984313e-06	4.432860e-09	3.570494e+01	2.905012e+02
1.190000e-06	5.101953e-06	4.513075e-09	3.654766e+01	2.958687e+02
1.200000e-06	5.217658e-06	4.590998e-09	3.737650e+01	3.009594e+02
1.210000e-06	5.331255e-06	4.666147e-09	3.819026e+01	3.058003e+02
1.220000e-06	5.442846e-06	4.737225e-09	3.898963e+01	3.104200e+02
1.230000e-06	5.552541e-06	4.804933e-09	3.977543e+01	3.148467e+02
1.240000e-06	5.660333e-06	4.869428e-09	4.054759e+01	3.191057e+02
1.250000e-06	5.766032e-06	4.930746e-09	4.130476e+01	3.232171e+02
1.260000e-06	5.869504e-06	4.989501e-09	4.204598e+01	3.271942e+02
1.270000e-06	5.970863e-06	5.046868e-09	4.277206e+01	3.310428e+02
1.280000e-06	6.070044e-06	5.101940e-09	4.348255e+01	3.347616e+02
1.290000e-06	6.166817e-06	5.154139e-09	4.417577e+01	3.383431e+02
1.300000e-06	6.261278e-06	5.205246e-09	4.485244e+01	3.417758e+02
1.310000e-06	6.353604e-06	5.254286e-09	4.551382e+01	3.450466e+02
1.320000e-06	6.443680e-06	5.299306e-09	4.615907e+01	3.481434e+02
1.330000e-06	6.531413e-06	5.340420e-09	4.678754e+01	3.510571e+02
1.340000e-06	6.616898e-06	5.380938e-09	4.739991e+01	3.537841e+02
1.350000e-06	6.700139e-06	5.420337e-09	4.799621e+01	3.563262e+02
1.360000e-06	6.780941e-06	5.456395e-09	4.857503e+01	3.586915e+02
1.370000e-06	6.859206e-06	5.490122e-09	4.913567e+01	3.608933e+02
1.380000e-06	6.934965e-06	5.521235e-09	4.967838e+01	3.629482e+02
1.390000e-06	7.008102e-06	5.550245e-09	5.020229e+01	3.648743e+02
1.400000e-06	7.078642e-06	5.577465e-09	5.070760e+01	3.666893e+02
1.410000e-06	7.146700e-06	5.603860e-09	5.119513e+01	3.684081e+02
1.420000e-06	7.212149e-06	5.629960e-09	5.166397e+01	3.700417e+02
1.430000e-06	7.275022e-06	5.654742e-09	5.211436e+01	3.715962e+02
1.440000e-06	7.335472e-06	5.677141e-09	5.254739e+01	3.730729e+02
1.450000e-06	7.393424e-06	5.697630e-09	5.296253e+01	3.744691e+02
1.460000e-06	7.448750e-06	5.715853e-09	5.335885e+01	3.757794e+02
1.470000e-06	7.501183e-06	5.731298e-09	5.373445e+01	3.769972e+02
1.480000e-06	7.550489e-06	5.745865e-09	5.408766e+01	3.781169e+02
1.490000e-06	7.596927e-06	5.760459e-09	5.442031e+01	3.791351e+02
1.500000e-06	7.640773e-06	5.774160e-09	5.473440e+01	3.800514e+02
1.510000e-06	7.681922e-06	5.787848e-09	5.502917e+01	3.808695e+02
1.520000e-06	7.720319e-06	5.802301e-09	5.530423e+01	3.815964e+02
1.530000e-06	7.756056e-06	5.816357e-09	5.556023e+01	3.822417e+02
1.540000e-06	7.788978e-06	5.828341e-09	5.579606e+01	3.828164e+02
1.550000e-06	7.819087e-06	5.837928e-09	5.601175e+01	3.833312e+02
1.560000e-06	7.846520e-06	5.844991e-09	5.620827e+01	3.837950e+02
1.570000e-06	7.871036e-06	5.850406e-09	5.638388e+01	3.842136e+02
1.580000e-06	7.892663e-06	5.854388e-09	5.653881e+01	3.845892e+02
1.590000e-06	7.911645e-06	5.857427e-09	5.667479e+01	3.849198e+02
1.600000e-06	7.927754e-06	5.859896e-09	5.679018e+01	3.852004e+02
1.610000e-06	7.940769e-06	5.863021e-09	5.688341e+01	3.854234e+02
1.620000e-06	7.950649e-06	5.868470e-09	5.695419e+01	3.855804e+02
1.630000e-06	7.957497e-06	5.873168e-09	5.700324e+01	3.856636e+02
1.640000e-06	7.961583e-06	5.874733e-09	5.703251e+01	3.856676e+02
1.650000e-06	7.962837e-06	5.874633e-09	5.704150e+01	3.855903e+02
1.660000e-06	7.961332e-06	5.870630e-09	5.703072e+01	3.854337e+02
1.670000e-06	7.957304e-06	5.862629e-09	5.700186e+01	3.852037e+02
1.680000e-06	7.950611e-06	5.854996e-09	5.695392e+01	3.849097e+02
1.690000e-06	7.941205e-06	5.849874e-09	5.688653e+01	3.845636e+02
1.700000e-06	7.929044e-06	5.847367e-09	5.679942e+01	3.841778e+02
1.710000e-06	7.914090e-06	5.847251e-09	5.669230e+01	3.837639e+02
1.720000e-06	7.896644e-06	5.847936e-09	5.656733e+01	3.833312e+02
1.730000e-06	7.876976e-06	5.827592e-09	5.642643e+01	3.828853e+02
1.740000e-06	7.854673e-06	5.770984e-09	5.626667e+01	3.824274e+02
1.750000e-06	7.829063e-06	5.770294e-09	5.608321e+01	3.819543e+02
1.760000e-06	7.799918e-06	5.794133e-09	5.587443e+01	3.814589e+02
1.770000e-06	7.767561e-06	5.780865e-09	5.564265e+01	3.809311e+02
1.780000e-06	7.732687e-06	5.779149e-09	5.539282e+01	3.803590e+02
1.790000e-06	7.695541e-06	5.818590e-09	5.512673e+01	3.797306e+02
1.800000e-06	7.656199e-06	5.793103e-09	5.484491e+01	3.790353e+02
1.810000e-06	7.614737e-06	5.740924e-09	5.454789e+01	3.782647e+02
1.820000e-06	7.570834e-06	5.762035e-09	5.423339e+01	3.774134e+02
1.830000e-06	7.524325e-06	5.725336e-09	5.390023e+01	3.764794e+02
1.840000e-06	7.475018e-06	5.738487e-09	5.354703e+01	3.754639e+02
1.850000e-06	7.422733e-06	5.732429e-09	5.317248e+01	3.743700e+02
1.860000e-06	7.367576e-06	5.698237e-09	5.277736e+01	3.732026e+02
1.870000e-06	7.309690e-06	5.692315e-09	5.236270e+01	3.719668e+02
1.880000e-06	7.249290e-06	5.610511e-09	5.193003e+01	3.706671e+02
1.890000e-06	7.186164e-06	5.631566e-09	5.147783e+01	3.693065e+02
1.900000e-06	7.120151e-06	5.622345e-09	5.100495e+01	3.678863e+02
1.910000e-06	7.051388e-06	5.570469e-09	5.051236e+01	3.664059e+02
1.920000e-06	6.979801e-06	5.571924e-09	4.999955e+01	3.648630e+02
1.930000e-06	6.905561e-06	5.521326e-09	4.946774e+01	3.632545e+02
1.940000e-06	6.828618e-06	5.512953e-09	4.891656e+01	3.615769e+02
1.950000e-06	6.748944e-06	5.484939e-09	4.834582e+01	3.598270e+02
1.960000e-06	6.666840e-06	5.471100e-09	4.775767e+01	3.580026e+02
1.970000e-06	6.582316e-06	5.432520e-09	4.715218e+01	3.561028e+02
1.980000e-06	6.495283e-06	5.375224e-09	4.652873e+01	3.541279e+02
1.990000e-06	6.405822e-06	5.360778e-09	4.588787e+01	3.520793e+02
2.000000e-06	6.314230e-06	5.322969e-09	4.523176e+01	3.499589e+02
2.010000e-06	6.220436e-06	5.307848e-09	4.455987e+01	3.477686e+02
2.020000e-06	6.124322e-06	5.258085e-09	4.387136e+01	3.455094e+02
2.030000e-06	6.026054e-06	5.223842e-09	4.316742e+01	3.431813e+02
2.040000e-06	5.925671e-06	5.188484e-09	4.244833e+01	3.407826e+02
2.050000e-06	5.823121e-06	5.158573e-09	4.171372e+01	3.383102e+02
2.060000e-06	5.718470e-06	5.135163e-09	4.096405e+01	3.357598e+02
2.070000e-06	5.611942e-06	5.079987e-09	4.020094e+01	3.331260e+02
2.080000e-06	5.503544e-06	5.025687e-09	3.942444e+01	3.304038e+02
2.090000e-06	5.393181e-06	4.973965e-09	3.863386e+01	3.275883e+02
2.100000e-06	5.280823e-06	4.939821e-09	3.782898e+01	3.246758e+02
2.110000e-06	5.166491e-06	4.902057e-09	3.700997e+01	3.216639e+02
2.120000e-06	5.050184e-06	4.872741e-09	3.617681e+01	3.185516e+02
2.130000e-06	4.931828e-06	4.818420e-09	3.532897e+01	3.153391e+02
2.140000e-06	4.811515e-06	4.753950e-09	3.446712e+01	3.120269e+02
2.150000e-06	4.689479e-06	4.698317e-09	3.359292e+01	3.086156e+02
2.160000e-06	4.565821e-06	4.657631e-09	3.270709e+01	3.051047e+02
2.170000e-06	4.440499e-06	4.609562e-09	3.180936e+01	3.014920e+02
2.180000e-06	4.313501e-06	4.544674e-09	3.089961e+01	2.977738e+02
2.190000e-06	4.184862e-06	4.486267e-09	2.997811e+01	2.939440e+02
2.200000e-06	4.054735e-06	4.426540e-09	2.904595e+01	2.899948e+02
2.210000e-06	3.923183e-06	4.365638e-09	2.810358e+01	2.859176e+02
2.220000e-06	3.790162e-06	4.304816e-09	2.715069e+01	2.817033e+02
2.230000e-06	3.655618e-06	4.247885e-09	2.618689e+01	2.773439e+02
2.240000e-06	3.519642e-06	4.177298e-09	2.521283e+01	2.728328e+02
2.250000e-06	3.382462e-06	4.103525e-09	2.423015e+01	2.681658e+02
2.260000e-06	3.244064e-06	4.034340e-09	2.323873e+01	2.633413e+02
2.270000e-06	3.104347e-06	3.965022e-09	2.223788e+01	2.583600e+02
2.280000e-06	2.963315e-06	3.880770e-09	2.122760e+01	2.532240e+02
2.290000e-06	2.821092e-06	3.789221e-09	2.020879e+01	2.479361e+02
2.300000e-06	2.677774e-06	3.704473e-09	1.918213e+01	2.424982e+02
2.310000e-06	2.533427e-06	3.623026e-09	1.814811e+01	2.369103e+02
2.320000e-06	2.388273e-06	3.543228e-09	1.710831e+01	2.311686e+02
2.330000e-06	2.242433e-06	3.460332e-09	1.606359e+01	2.252659e+02
2.340000e-06	2.095857e-06	3.366274e-09	1.501360e+01	2.191906e+02
2.350000e-06	1.948594e-06	3.262810e-09	1.395868e+01	2.129274e+02
2.360000e-06	1.800714e-06	3.160893e-09	1.289935e+01	2.064587e+02
2.370000e-06	1.652251e-06	3.063337e-09	1.183584e+01	1.997657e+02
2.380000e-06	1.503212e-06	2.961770e-09	1.076821e+01	1.928302e+02
2.390000e-06	1.353681e-06	2.850512e-09	9.697046e+00	1.856366e+02
2.400000e-06	1.203760e-06	2.731487e-09	8.623089e+00	1.781726e+02
2.410000e-06	1.053415e-06	2.608411e-09	7.546103e+00	1.704300e+02
2.420000e-06	9.026989e-07	2.486496e-09	6.466451e+00	1.624048e+02
2.430000e-06	7.517206e-07	2.366121e-09	5.384924e+00	1.540958e+02
2.440000e-06	6.004809e-07	2.243940e-09	4.301523e+00	1.455027e+02
2.450000e-06	4.489846e-07	2.110577e-09	3.216285e+00	1.366239e+02
2.460000e-06	2.972831e-07	1.967486e-09	2.129577e+00	1.274541e+02
2.470000e-06	1.453907e-07	1.820990e-09	1.041501e+00	1.179819e+02
2.480000e-06	-6.672025e-09	1.671561e-09	-4.779481e-02	1.081880e+02
2.490000e-06	-1.587615e-07	1.518119e-09	-1.137282e+00	9.804527e+01
2.500000e-06	-3.107612e-07	1.355644e-09	-2.226127e+00	8.751922e+01
2.510000e-06	-4.625753e-07	1.185606e-09	-3.313641e+00	7.657058e+01
2.520000e-06	-6.142174e-07	1.011988e-09	-4.399924e+00	6.515903e+01
2.530000e-06	-7.657449e-07	8.352449e-10	-5.485386e+00	5.324807e+01
2.540000e-06	-9.169814e-07	6.517183e-10	-6.568763e+00	4.081053e+01
2.550000e-06	-1.067816e-06	4.533489e-10	-7.649263e+00	2.783403e+01
2.560000e-06	-1.218273e-06	2.407970e-10	-8.727056e+00	1.432587e+01
2.570000e-06	-1.368315e-06	2.173925e-11	-9.801872e+00	3.166393e-01
2.580000e-06	-1.517911e-06	-1.993694e-10	-1.087350e+01	-1.413797e+01
2.590000e-06	-1.666978e-06	-4.214520e-10	-1.194134e+01	-2.895749e+01
2.600000e-06	-1.815345e-06	-6.510764e-10	-1.300416e+01	-4.403924e+01
2.610000e-06	-1.962984e-06	-8.872933e-10	-1.406176e+01	-5.926298e+01
2.620000e-06	-2.109869e-06	-1.124972e-09	-1.511397e+01	-7.449724e+01
2.630000e-06	-2.256011e-06	-1.358765e-09	-1.616086e+01	-8.960680e+01
2.640000e-06	-2.401389e-06	-1.583830e-09	-1.720226e+01	-1.044605e+02
2.650000e-06	-2.545870e-06	-1.801855e-09	-1.823724e+01	-1.189389e+02
2.660000e-06	-2.689400e-06	-2.016893e-09	-1.926542e+01	-1.329403e+02
2.670000e-06	-2.831849e-06	-2.229008e-09	-2.028585e+01	-1.463854e+02
2.680000e-06	-2.973091e-06	-2.428169e-09	-2.129763e+01	-1.592203e+02
2.690000e-06	-3.113077e-06	-2.612152e-09	-2.230042e+01	-1.714159e+02
2.700000e-06	-3.251777e-06	-2.784697e-09	-2.329399e+01	-1.829668e+02
2.710000e-06	-3.389290e-06	-2.948617e-09	-2.427906e+01	-1.938872e+02
2.720000e-06	-3.525592e-06	-3.106654e-09	-2.525545e+01	-2.042062e+02
2.730000e-06	-3.660589e-06	-3.256512e-09	-2.622250e+01	-2.139621e+02
2.740000e-06	-3.794247e-06	-3.396600e-09	-2.717995e+01	-2.231970e+02
2.750000e-06	-3.926470e-06	-3.529988e-09	-2.812713e+01	-2.319524e+02
2.760000e-06	-4.057291e-06	-3.659449e-09	-2.906426e+01	-2.402651e+02
2.770000e-06	-4.186809e-06	-3.783938e-09	-2.999205e+01	-2.481657e+02
2.780000e-06	-4.314913e-06	-3.901760e-09	-3.090973e+01	-2.556773e+02
2.790000e-06	-4.441448e-06	-4.010101e-09	-3.181616e+01	-2.628170e+02
2.800000e-06	-4.566450e-06	-4.109779e-09	-3.271160e+01	-2.695973e+02
2.810000e-06	-4.689927e-06	-4.203613e-09	-3.359613e+01	-2.760287e+02
2.820000e-06	-4.811756e-06	-4.294304e-09	-3.446884e+01	-2.821220e+02
2.830000e-06	-4.931819e-06	-4.383503e-09	-3.532890e+01	-2.878909e+02
2.840000e-06	-5.049978e-06	-4.468050e-09	-3.617533e+01	-2.933529e+02
2.850000e-06	-5.166103e-06	-4.547450e-09	-3.700719e+01	-2.985300e+02
2.860000e-06	-5.280088e-06	-4.622395e-09	-3.782372e+01	-3.034484e+02
2.870000e-06	-5.391889e-06	-4.696272e-09	-3.862460e+01	-3.081362e+02
2.880000e-06	-5.501686e-06	-4.769101e-09	-3.941113e+01	-3.126223e+02
2.890000e-06	-5.609626e-06	-4.837058e-09	-4.018435e+01	-3.169330e+02
2.900000e-06	-5.715675e-06	-4.899583e-09	-4.094403e+01	-3.210903e+02
2.910000e-06	-5.819664e-06	-4.959479e-09	-4.168895e+01	-3.251098e+02
2.920000e-06	-5.921442e-06	-5.019405e-09	-4.241804e+01	-3.289998e+02
2.930000e-06	-6.021056e-06	-5.079228e-09	-4.313162e+01	-3.327611e+02
2.940000e-06	-6.118621e-06	-5.137717e-09	-4.383052e+01	-3.363881e+02
