# Temperatura_=_42.37
# Concentracion g/m^3_=_5000.0
# C_Vs_to_Am_M_A/Vsm_=_65563218390.804596
# pendiente_HvsI_1/m_=_3716.3
# ordenada_HvsI_A/m_=_1297.0
# frecuencia_Hz_=_302491.7705015987

Tiempo_(s)	Campo_(V.s)	Magnetizacion_(V.s)	Campo_(kA/m)	Magnetizacion_(A/m)
0.000000e+00	-7.896745e-06	-5.797255e-09	-5.686565e+01	-3.795941e+02
1.000000e-08	-7.892142e-06	-5.794255e-09	-5.683250e+01	-3.793515e+02
2.000000e-08	-7.885063e-06	-5.789623e-09	-5.678152e+01	-3.790540e+02
3.000000e-08	-7.875303e-06	-5.788740e-09	-5.671124e+01	-3.787109e+02
4.000000e-08	-7.862592e-06	-5.785964e-09	-5.661971e+01	-3.783307e+02
5.000000e-08	-7.846947e-06	-5.779756e-09	-5.650704e+01	-3.779200e+02
6.000000e-08	-7.828695e-06	-5.769220e-09	-5.637561e+01	-3.774823e+02
7.000000e-08	-7.808221e-06	-5.757603e-09	-5.622817e+01	-3.770182e+02
8.000000e-08	-7.785206e-06	-5.767397e-09	-5.606244e+01	-3.765248e+02
9.000000e-08	-7.759005e-06	-5.810059e-09	-5.587376e+01	-3.759968e+02
1.000000e-07	-7.729671e-06	-5.775977e-09	-5.566252e+01	-3.754270e+02
1.100000e-07	-7.697577e-06	-5.723248e-09	-5.543140e+01	-3.748075e+02
1.200000e-07	-7.662781e-06	-5.711881e-09	-5.518084e+01	-3.741306e+02
1.300000e-07	-7.625529e-06	-5.695550e-09	-5.491258e+01	-3.733901e+02
1.400000e-07	-7.586140e-06	-5.652952e-09	-5.462893e+01	-3.725814e+02
1.500000e-07	-7.544510e-06	-5.641133e-09	-5.432915e+01	-3.717024e+02
1.600000e-07	-7.500231e-06	-5.704291e-09	-5.401029e+01	-3.707531e+02
1.700000e-07	-7.453243e-06	-5.615033e-09	-5.367192e+01	-3.697350e+02
1.800000e-07	-7.403537e-06	-5.601701e-09	-5.331398e+01	-3.686508e+02
1.900000e-07	-7.350856e-06	-5.635852e-09	-5.293462e+01	-3.675036e+02
2.000000e-07	-7.295306e-06	-5.558998e-09	-5.253459e+01	-3.662956e+02
2.100000e-07	-7.237084e-06	-5.573858e-09	-5.211533e+01	-3.650282e+02
2.200000e-07	-7.176283e-06	-5.537127e-09	-5.167749e+01	-3.637013e+02
2.300000e-07	-7.112900e-06	-5.501130e-09	-5.122106e+01	-3.623133e+02
2.400000e-07	-7.046678e-06	-5.490060e-09	-5.074419e+01	-3.608616e+02
2.500000e-07	-6.977734e-06	-5.460073e-09	-5.024771e+01	-3.593429e+02
2.600000e-07	-6.906200e-06	-5.455887e-09	-4.973258e+01	-3.577538e+02
2.700000e-07	-6.831903e-06	-5.426314e-09	-4.919756e+01	-3.560916e+02
2.800000e-07	-6.754946e-06	-5.395538e-09	-4.864338e+01	-3.543547e+02
2.900000e-07	-6.675244e-06	-5.349201e-09	-4.806943e+01	-3.525431e+02
3.000000e-07	-6.592876e-06	-5.341037e-09	-4.747628e+01	-3.506580e+02
3.100000e-07	-6.508320e-06	-5.324306e-09	-4.686739e+01	-3.487014e+02
3.200000e-07	-6.421623e-06	-5.263943e-09	-4.624307e+01	-3.466762e+02
3.300000e-07	-6.332606e-06	-5.250234e-09	-4.560204e+01	-3.445848e+02
3.400000e-07	-6.241274e-06	-5.215590e-09	-4.494435e+01	-3.424288e+02
3.500000e-07	-6.147702e-06	-5.176138e-09	-4.427052e+01	-3.402084e+02
3.600000e-07	-6.051941e-06	-5.140315e-09	-4.358094e+01	-3.379216e+02
3.700000e-07	-5.953920e-06	-5.115589e-09	-4.287507e+01	-3.355652e+02
3.800000e-07	-5.853630e-06	-5.084269e-09	-4.215286e+01	-3.331338e+02
3.900000e-07	-5.751294e-06	-5.031490e-09	-4.141593e+01	-3.306217e+02
4.000000e-07	-5.647026e-06	-4.989966e-09	-4.066508e+01	-3.280228e+02
4.100000e-07	-5.540734e-06	-4.947674e-09	-3.989966e+01	-3.253317e+02
4.200000e-07	-5.432466e-06	-4.911011e-09	-3.912000e+01	-3.225447e+02
4.300000e-07	-5.322343e-06	-4.852340e-09	-3.832699e+01	-3.196599e+02
4.400000e-07	-5.210303e-06	-4.807568e-09	-3.752017e+01	-3.166775e+02
4.500000e-07	-5.096209e-06	-4.771849e-09	-3.669856e+01	-3.135997e+02
4.600000e-07	-4.980059e-06	-4.727548e-09	-3.586215e+01	-3.104298e+02
4.700000e-07	-4.862030e-06	-4.677644e-09	-3.501221e+01	-3.071713e+02
4.800000e-07	-4.742265e-06	-4.626417e-09	-3.414976e+01	-3.038271e+02
4.900000e-07	-4.620784e-06	-4.571433e-09	-3.327496e+01	-3.003980e+02
5.000000e-07	-4.497578e-06	-4.506282e-09	-3.238773e+01	-2.968825e+02
5.100000e-07	-4.372653e-06	-4.452376e-09	-3.148813e+01	-2.932758e+02
5.200000e-07	-4.246142e-06	-4.399264e-09	-3.057711e+01	-2.895701e+02
5.300000e-07	-4.118192e-06	-4.340846e-09	-2.965572e+01	-2.857555e+02
5.400000e-07	-3.988810e-06	-4.273423e-09	-2.872402e+01	-2.818201e+02
5.500000e-07	-3.857866e-06	-4.211395e-09	-2.778107e+01	-2.777523e+02
5.600000e-07	-3.725362e-06	-4.153542e-09	-2.682689e+01	-2.735414e+02
5.700000e-07	-3.591453e-06	-4.088788e-09	-2.586259e+01	-2.691791e+02
5.800000e-07	-3.456204e-06	-4.019378e-09	-2.488864e+01	-2.646608e+02
5.900000e-07	-3.319674e-06	-3.945195e-09	-2.390547e+01	-2.599850e+02
6.000000e-07	-3.181883e-06	-3.869252e-09	-2.291322e+01	-2.551542e+02
6.100000e-07	-3.042787e-06	-3.790234e-09	-2.191157e+01	-2.501730e+02
6.200000e-07	-2.902314e-06	-3.712861e-09	-2.090000e+01	-2.450475e+02
6.300000e-07	-2.760593e-06	-3.632426e-09	-1.987944e+01	-2.397830e+02
6.400000e-07	-2.617838e-06	-3.548023e-09	-1.885144e+01	-2.343826e+02
6.500000e-07	-2.474145e-06	-3.465108e-09	-1.781669e+01	-2.288457e+02
6.600000e-07	-2.329522e-06	-3.384222e-09	-1.677524e+01	-2.231666e+02
6.700000e-07	-2.184041e-06	-3.299452e-09	-1.572761e+01	-2.173344e+02
6.800000e-07	-2.037778e-06	-3.208243e-09	-1.467434e+01	-2.113334e+02
6.900000e-07	-1.890853e-06	-3.111229e-09	-1.361632e+01	-2.051442e+02
7.000000e-07	-1.743395e-06	-3.007519e-09	-1.255445e+01	-1.987453e+02
7.100000e-07	-1.595388e-06	-2.902188e-09	-1.148863e+01	-1.921155e+02
7.200000e-07	-1.446951e-06	-2.796827e-09	-1.041971e+01	-1.852356e+02
7.300000e-07	-1.298133e-06	-2.689166e-09	-9.348053e+00	-1.780907e+02
7.400000e-07	-1.148897e-06	-2.576466e-09	-8.273381e+00	-1.706708e+02
7.500000e-07	-9.992810e-07	-2.462293e-09	-7.195972e+00	-1.629709e+02
7.600000e-07	-8.492996e-07	-2.348054e-09	-6.115934e+00	-1.549908e+02
7.700000e-07	-6.990310e-07	-2.226709e-09	-5.033827e+00	-1.467326e+02
7.800000e-07	-5.485571e-07	-2.096617e-09	-3.950242e+00	-1.381985e+02
7.900000e-07	-3.978812e-07	-1.959305e-09	-2.865202e+00	-1.293882e+02
8.000000e-07	-2.470318e-07	-1.814949e-09	-1.778913e+00	-1.202953e+02
8.100000e-07	-9.602644e-08	-1.664260e-09	-6.915008e-01	-1.109061e+02
8.200000e-07	5.508183e-08	-1.511021e-09	3.966525e-01	-1.011976e+02
8.300000e-07	2.061843e-07	-1.357193e-09	1.484764e+00	-9.113784e+01
8.400000e-07	3.572359e-07	-1.199853e-09	2.572509e+00	-8.068801e+01
8.500000e-07	5.082001e-07	-1.034974e-09	3.659625e+00	-6.980537e+01
8.600000e-07	6.590389e-07	-8.632837e-10	4.745838e+00	-5.844803e+01
8.700000e-07	8.096911e-07	-6.856306e-10	5.830707e+00	-4.658042e+01
8.800000e-07	9.600654e-07	-4.978944e-10	6.913575e+00	-3.417912e+01
8.900000e-07	1.110099e-06	-3.016752e-10	7.993990e+00	-2.123829e+01
9.000000e-07	1.259745e-06	-9.754061e-11	9.071613e+00	-7.774075e+00
9.100000e-07	1.408903e-06	1.129415e-10	1.014572e+01	6.172578e+00
9.200000e-07	1.557557e-06	3.312060e-10	1.121620e+01	2.053522e+01
9.300000e-07	1.705716e-06	5.565136e-10	1.228311e+01	3.522339e+01
9.400000e-07	1.853262e-06	7.844153e-10	1.334562e+01	5.012637e+01
9.500000e-07	2.000203e-06	1.013854e-09	1.440376e+01	6.511877e+01
9.600000e-07	2.146502e-06	1.239003e-09	1.545728e+01	8.006757e+01
9.700000e-07	2.291875e-06	1.460018e-09	1.650413e+01	9.483983e+01
9.800000e-07	2.436308e-06	1.679046e-09	1.754422e+01	1.093103e+02
9.900000e-07	2.579883e-06	1.893918e-09	1.857812e+01	1.233683e+02
1.000000e-06	2.722428e-06	2.101431e-09	1.960461e+01	1.369232e+02
1.010000e-06	2.863908e-06	2.295300e-09	2.062343e+01	1.499075e+02
1.020000e-06	3.004240e-06	2.478202e-09	2.163398e+01	1.622787e+02
1.030000e-06	3.143302e-06	2.652693e-09	2.263539e+01	1.740181e+02
1.040000e-06	3.281131e-06	2.821145e-09	2.362792e+01	1.851283e+02
1.050000e-06	3.417705e-06	2.982187e-09	2.461141e+01	1.956288e+02
1.060000e-06	3.552999e-06	3.134531e-09	2.558568e+01	2.055510e+02
1.070000e-06	3.686986e-06	3.277865e-09	2.655054e+01	2.149336e+02
1.080000e-06	3.819671e-06	3.412587e-09	2.750602e+01	2.238166e+02
1.090000e-06	3.950970e-06	3.542240e-09	2.845153e+01	2.322387e+02
1.100000e-06	4.080809e-06	3.665216e-09	2.938652e+01	2.402335e+02
1.110000e-06	4.209236e-06	3.782710e-09	3.031134e+01	2.478289e+02
1.120000e-06	4.336187e-06	3.894519e-09	3.122553e+01	2.550467e+02
1.130000e-06	4.461640e-06	3.999547e-09	3.212894e+01	2.619038e+02
1.140000e-06	4.585575e-06	4.097543e-09	3.302142e+01	2.684142e+02
1.150000e-06	4.707867e-06	4.190316e-09	3.390205e+01	2.745909e+02
1.160000e-06	4.828503e-06	4.277239e-09	3.477077e+01	2.804480e+02
1.170000e-06	4.947424e-06	4.359334e-09	3.562714e+01	2.860021e+02
1.180000e-06	5.064551e-06	4.438220e-09	3.647059e+01	2.912729e+02
1.190000e-06	5.179792e-06	4.515044e-09	3.730046e+01	2.962835e+02
1.200000e-06	5.292972e-06	4.589212e-09	3.811548e+01	3.010589e+02
1.210000e-06	5.404119e-06	4.659647e-09	3.891587e+01	3.056249e+02
1.220000e-06	5.513379e-06	4.726320e-09	3.970267e+01	3.100059e+02
1.230000e-06	5.620768e-06	4.789454e-09	4.047599e+01	3.142229e+02
1.240000e-06	5.726059e-06	4.850115e-09	4.123421e+01	3.182923e+02
1.250000e-06	5.829166e-06	4.908154e-09	4.197670e+01	3.222245e+02
1.260000e-06	5.930219e-06	4.964945e-09	4.270440e+01	3.260236e+02
1.270000e-06	6.029104e-06	5.019288e-09	4.341648e+01	3.296882e+02
1.280000e-06	6.125637e-06	5.069202e-09	4.411163e+01	3.332124e+02
1.290000e-06	6.219907e-06	5.117529e-09	4.479048e+01	3.365878e+02
1.300000e-06	6.312032e-06	5.165215e-09	4.545389e+01	3.398052e+02
1.310000e-06	6.401899e-06	5.210788e-09	4.610103e+01	3.428569e+02
1.320000e-06	6.489460e-06	5.252916e-09	4.673158e+01	3.457381e+02
1.330000e-06	6.574774e-06	5.291813e-09	4.734593e+01	3.484482e+02
1.340000e-06	6.657790e-06	5.329050e-09	4.794375e+01	3.509911e+02
1.350000e-06	6.738364e-06	5.365190e-09	4.852397e+01	3.533750e+02
1.360000e-06	6.816443e-06	5.398713e-09	4.908623e+01	3.556113e+02
1.370000e-06	6.891961e-06	5.429454e-09	4.963004e+01	3.577133e+02
1.380000e-06	6.964838e-06	5.458709e-09	5.015484e+01	3.596944e+02
1.390000e-06	7.035181e-06	5.486871e-09	5.066140e+01	3.615671e+02
1.400000e-06	7.103064e-06	5.515378e-09	5.115023e+01	3.633411e+02
1.410000e-06	7.168409e-06	5.543775e-09	5.162079e+01	3.650227e+02
1.420000e-06	7.231253e-06	5.571066e-09	5.207334e+01	3.666149e+02
1.430000e-06	7.291686e-06	5.595497e-09	5.250852e+01	3.681174e+02
1.440000e-06	7.349575e-06	5.614384e-09	5.292539e+01	3.695277e+02
1.450000e-06	7.404808e-06	5.628844e-09	5.332313e+01	3.708425e+02
1.460000e-06	7.457226e-06	5.643124e-09	5.370060e+01	3.720584e+02
1.470000e-06	7.506625e-06	5.658686e-09	5.405633e+01	3.731738e+02
1.480000e-06	7.553127e-06	5.674374e-09	5.439120e+01	3.741893e+02
1.490000e-06	7.597042e-06	5.688887e-09	5.470744e+01	3.751081e+02
1.500000e-06	7.638281e-06	5.703799e-09	5.500440e+01	3.759365e+02
1.510000e-06	7.676685e-06	5.719160e-09	5.528096e+01	3.766823e+02
1.520000e-06	7.712409e-06	5.732690e-09	5.553822e+01	3.773547e+02
1.530000e-06	7.745374e-06	5.743207e-09	5.577560e+01	3.779626e+02
1.540000e-06	7.775583e-06	5.749826e-09	5.599314e+01	3.785136e+02
1.550000e-06	7.803135e-06	5.755423e-09	5.619155e+01	3.790129e+02
1.560000e-06	7.827771e-06	5.761956e-09	5.636895e+01	3.794627e+02
1.570000e-06	7.849589e-06	5.768881e-09	5.652607e+01	3.798622e+02
1.580000e-06	7.868739e-06	5.774983e-09	5.666397e+01	3.802077e+02
1.590000e-06	7.884945e-06	5.778817e-09	5.678067e+01	3.804936e+02
1.600000e-06	7.898129e-06	5.782412e-09	5.687561e+01	3.807133e+02
1.610000e-06	7.908233e-06	5.786129e-09	5.694837e+01	3.808606e+02
1.620000e-06	7.915327e-06	5.789075e-09	5.699946e+01	3.809313e+02
1.630000e-06	7.919676e-06	5.790996e-09	5.703077e+01	3.809231e+02
1.640000e-06	7.921165e-06	5.791454e-09	5.704150e+01	3.808373e+02
1.650000e-06	7.919890e-06	5.789518e-09	5.703231e+01	3.806781e+02
1.660000e-06	7.916122e-06	5.779447e-09	5.700518e+01	3.804525e+02
1.670000e-06	7.909674e-06	5.775280e-09	5.695875e+01	3.801692e+02
1.680000e-06	7.900498e-06	5.773951e-09	5.689267e+01	3.798376e+02
1.690000e-06	7.888606e-06	5.770539e-09	5.680703e+01	3.794668e+02
1.700000e-06	7.873919e-06	5.767117e-09	5.670127e+01	3.790638e+02
1.710000e-06	7.856773e-06	5.766991e-09	5.657780e+01	3.786332e+02
1.720000e-06	7.837418e-06	5.764216e-09	5.643842e+01	3.781762e+02
1.730000e-06	7.815501e-06	5.711478e-09	5.628059e+01	3.776912e+02
1.740000e-06	7.790411e-06	5.663411e-09	5.609992e+01	3.771732e+02
1.750000e-06	7.761738e-06	5.701739e-09	5.589344e+01	3.766157e+02
1.760000e-06	7.729757e-06	5.709497e-09	5.566314e+01	3.760106e+02
1.770000e-06	7.695239e-06	5.686994e-09	5.541457e+01	3.753504e+02
1.780000e-06	7.658469e-06	5.718458e-09	5.514978e+01	3.746280e+02
1.790000e-06	7.619491e-06	5.739617e-09	5.486910e+01	3.738386e+02
1.800000e-06	7.578433e-06	5.627136e-09	5.457343e+01	3.729793e+02
1.810000e-06	7.534965e-06	5.659120e-09	5.426041e+01	3.720495e+02
1.820000e-06	7.488894e-06	5.681044e-09	5.392865e+01	3.710503e+02
1.830000e-06	7.440129e-06	5.624293e-09	5.357748e+01	3.699842e+02
1.840000e-06	7.388406e-06	5.683125e-09	5.320502e+01	3.688542e+02
1.850000e-06	7.333824e-06	5.574707e-09	5.281196e+01	3.676629e+02
1.860000e-06	7.276518e-06	5.601682e-09	5.239929e+01	3.664119e+02
1.870000e-06	7.216632e-06	5.592349e-09	5.196805e+01	3.651016e+02
1.880000e-06	7.154069e-06	5.530253e-09	5.151752e+01	3.637308e+02
1.890000e-06	7.088669e-06	5.579203e-09	5.104657e+01	3.622971e+02
1.900000e-06	7.020558e-06	5.485421e-09	5.055609e+01	3.607974e+02
1.910000e-06	6.949608e-06	5.487125e-09	5.004517e+01	3.592282e+02
1.920000e-06	6.876000e-06	5.455868e-09	4.951511e+01	3.575866e+02
1.930000e-06	6.799748e-06	5.454604e-09	4.896600e+01	3.558707e+02
1.940000e-06	6.720757e-06	5.444536e-09	4.839718e+01	3.540799e+02
1.950000e-06	6.639246e-06	5.357798e-09	4.781021e+01	3.522150e+02
1.960000e-06	6.555321e-06	5.371936e-09	4.720585e+01	3.502781e+02
1.970000e-06	6.469020e-06	5.288364e-09	4.658438e+01	3.482717e+02
1.980000e-06	6.380290e-06	5.277832e-09	4.594543e+01	3.461985e+02
1.990000e-06	6.289341e-06	5.261643e-09	4.529049e+01	3.440604e+02
2.000000e-06	6.196250e-06	5.231940e-09	4.462012e+01	3.418579e+02
2.010000e-06	6.100868e-06	5.198417e-09	4.393327e+01	3.395899e+02
2.020000e-06	6.003229e-06	5.135906e-09	4.323015e+01	3.372533e+02
2.030000e-06	5.903490e-06	5.122609e-09	4.251192e+01	3.348435e+02
2.040000e-06	5.801743e-06	5.075934e-09	4.177922e+01	3.323546e+02
2.050000e-06	5.697906e-06	5.047642e-09	4.103148e+01	3.297805e+02
2.060000e-06	5.592057e-06	4.989903e-09	4.026924e+01	3.271158e+02
2.070000e-06	5.484357e-06	4.956673e-09	3.949368e+01	3.243559e+02
2.080000e-06	5.374791e-06	4.908517e-09	3.870467e+01	3.214986e+02
2.090000e-06	5.263198e-06	4.863659e-09	3.790108e+01	3.185435e+02
2.100000e-06	5.149598e-06	4.825861e-09	3.708302e+01	3.154921e+02
2.110000e-06	5.034081e-06	4.777954e-09	3.625117e+01	3.123477e+02
2.120000e-06	4.916587e-06	4.725126e-09	3.540508e+01	3.091136e+02
2.130000e-06	4.797107e-06	4.667769e-09	3.454469e+01	3.057932e+02
2.140000e-06	4.675763e-06	4.630892e-09	3.367087e+01	3.023879e+02
2.150000e-06	4.552766e-06	4.577295e-09	3.278515e+01	2.988969e+02
2.160000e-06	4.428222e-06	4.520779e-09	3.188829e+01	2.953164e+02
2.170000e-06	4.302097e-06	4.452986e-09	3.098005e+01	2.916395e+02
2.180000e-06	4.174286e-06	4.398909e-09	3.005966e+01	2.878566e+02
2.190000e-06	4.044929e-06	4.341218e-09	2.912814e+01	2.839565e+02
2.200000e-06	3.914098e-06	4.286590e-09	2.818600e+01	2.799271e+02
2.210000e-06	3.781878e-06	4.225566e-09	2.723387e+01	2.757575e+02
2.220000e-06	3.648321e-06	4.158145e-09	2.627211e+01	2.714387e+02
2.230000e-06	3.513287e-06	4.083436e-09	2.529971e+01	2.669647e+02
2.240000e-06	3.376826e-06	4.008818e-09	2.431703e+01	2.623334e+02
2.250000e-06	3.239142e-06	3.940647e-09	2.332555e+01	2.575459e+02
2.260000e-06	3.100355e-06	3.867152e-09	2.232612e+01	2.526066e+02
2.270000e-06	2.960367e-06	3.789622e-09	2.131805e+01	2.475212e+02
2.280000e-06	2.819138e-06	3.707595e-09	2.030103e+01	2.422955e+02
2.290000e-06	2.676760e-06	3.628545e-09	1.927575e+01	2.369333e+02
2.300000e-06	2.533386e-06	3.543892e-09	1.824329e+01	2.314352e+02
2.310000e-06	2.389095e-06	3.460668e-09	1.720423e+01	2.257971e+02
2.320000e-06	2.244023e-06	3.372941e-09	1.615955e+01	2.200096e+02
2.330000e-06	2.098222e-06	3.280042e-09	1.510961e+01	2.140582e+02
2.340000e-06	1.951653e-06	3.183014e-09	1.405415e+01	2.079244e+02
2.350000e-06	1.804439e-06	3.086683e-09	1.299403e+01	2.015871e+02
2.360000e-06	1.656718e-06	2.988219e-09	1.193028e+01	1.950248e+02
2.370000e-06	1.508520e-06	2.880309e-09	1.086308e+01	1.882177e+02
2.380000e-06	1.359858e-06	2.768478e-09	9.792539e+00	1.811493e+02
2.390000e-06	1.210749e-06	2.657349e-09	8.718787e+00	1.738081e+02
2.400000e-06	1.061239e-06	2.544777e-09	7.642138e+00	1.661879e+02
2.410000e-06	9.113710e-07	2.428316e-09	6.562920e+00	1.582872e+02
2.420000e-06	7.611898e-07	2.306318e-09	5.481442e+00	1.501077e+02
2.430000e-06	6.107834e-07	2.177640e-09	4.398342e+00	1.416518e+02
2.440000e-06	4.601521e-07	2.042572e-09	3.313625e+00	1.329202e+02
2.450000e-06	3.092827e-07	1.904712e-09	2.227191e+00	1.239086e+02
2.460000e-06	1.582207e-07	1.765220e-09	1.139371e+00	1.146055e+02
2.470000e-06	7.064881e-09	1.620045e-09	5.087527e-02	1.049906e+02
2.480000e-06	-1.441053e-07	1.468518e-09	-1.037724e+00	9.503439e+01
2.490000e-06	-2.952226e-07	1.311228e-09	-2.125943e+00	8.469978e+01
2.500000e-06	-4.462282e-07	1.147148e-09	-3.213356e+00	7.394470e+01
2.510000e-06	-5.971186e-07	9.757694e-10	-4.299940e+00	6.272650e+01
2.520000e-06	-7.478039e-07	7.970785e-10	-5.385048e+00	5.100721e+01
2.530000e-06	-8.982481e-07	6.102355e-10	-6.468420e+00	3.875935e+01
2.540000e-06	-1.048442e-06	4.139540e-10	-7.549988e+00	2.597154e+01
2.550000e-06	-1.198243e-06	2.090988e-10	-8.628730e+00	1.265331e+01
2.560000e-06	-1.347530e-06	-1.707176e-12	-9.703764e+00	-1.161685e+00
2.570000e-06	-1.496253e-06	-2.179779e-10	-1.077474e+01	-1.541421e+01
2.580000e-06	-1.644449e-06	-4.388190e-10	-1.184192e+01	-3.002038e+01
2.590000e-06	-1.792162e-06	-6.647558e-10	-1.290563e+01	-4.487476e+01
2.600000e-06	-1.939253e-06	-8.957935e-10	-1.396485e+01	-5.985549e+01
2.610000e-06	-2.085568e-06	-1.129192e-09	-1.501848e+01	-7.483097e+01
2.620000e-06	-2.231070e-06	-1.360072e-09	-1.606627e+01	-8.966743e+01
2.630000e-06	-2.375738e-06	-1.585025e-09	-1.710805e+01	-1.042367e+02
2.640000e-06	-2.519555e-06	-1.803967e-09	-1.814369e+01	-1.184233e+02
2.650000e-06	-2.662419e-06	-2.015735e-09	-1.917248e+01	-1.321303e+02
2.660000e-06	-2.804098e-06	-2.218093e-09	-2.019273e+01	-1.452836e+02
2.670000e-06	-2.944552e-06	-2.409269e-09	-2.120416e+01	-1.578334e+02
2.680000e-06	-3.083862e-06	-2.589568e-09	-2.220736e+01	-1.697544e+02
2.690000e-06	-3.221985e-06	-2.759986e-09	-2.320200e+01	-1.810436e+02
2.700000e-06	-3.358912e-06	-2.921530e-09	-2.418803e+01	-1.917159e+02
2.710000e-06	-3.494605e-06	-3.076457e-09	-2.516518e+01	-2.018002e+02
2.720000e-06	-3.628979e-06	-3.224099e-09	-2.613282e+01	-2.113333e+02
2.730000e-06	-3.762013e-06	-3.361275e-09	-2.709082e+01	-2.203555e+02
2.740000e-06	-3.893738e-06	-3.493048e-09	-2.803939e+01	-2.289061e+02
2.750000e-06	-4.024114e-06	-3.621906e-09	-2.897825e+01	-2.370204e+02
2.760000e-06	-4.153150e-06	-3.743016e-09	-2.990745e+01	-2.447279e+02
2.770000e-06	-4.280771e-06	-3.855331e-09	-3.082647e+01	-2.520522e+02
2.780000e-06	-4.406805e-06	-3.959544e-09	-3.173407e+01	-2.590113e+02
2.790000e-06	-4.531363e-06	-4.058073e-09	-3.263103e+01	-2.656200e+02
2.800000e-06	-4.654404e-06	-4.150409e-09	-3.351706e+01	-2.718912e+02
2.810000e-06	-4.775775e-06	-4.237241e-09	-3.439107e+01	-2.778386e+02
2.820000e-06	-4.895412e-06	-4.321818e-09	-3.525259e+01	-2.834778e+02
2.830000e-06	-5.013049e-06	-4.405177e-09	-3.609972e+01	-2.888279e+02
2.840000e-06	-5.128664e-06	-4.484945e-09	-3.693228e+01	-2.939108e+02
2.850000e-06	-5.242213e-06	-4.560186e-09	-3.774996e+01	-2.987513e+02
2.860000e-06	-5.353589e-06	-4.634907e-09	-3.855200e+01	-3.033751e+02
2.870000e-06	-5.462977e-06	-4.706468e-09	-3.933972e+01	-3.078070e+02
2.880000e-06	-5.570538e-06	-4.771648e-09	-4.011428e+01	-3.120695e+02
2.890000e-06	-5.676274e-06	-4.833087e-09	-4.087570e+01	-3.161803e+02
2.900000e-06	-5.779972e-06	-4.893543e-09	-4.162244e+01	-3.201514e+02
2.910000e-06	-5.881414e-06	-4.954392e-09	-4.235295e+01	-3.239890e+02
2.920000e-06	-5.980642e-06	-5.013151e-09	-4.306750e+01	-3.276930e+02
2.930000e-06	-6.077840e-06	-5.069281e-09	-4.376744e+01	-3.312586e+02
2.940000e-06	-6.172870e-06	-5.123262e-09	-4.445176e+01	-3.346780e+02
