# Temperatura_=_37.74
# Concentracion g/m^3_=_5000.0
# C_Vs_to_Am_M_A/Vsm_=_65563218390.804596
# pendiente_HvsI_1/m_=_3716.3
# ordenada_HvsI_A/m_=_1297.0
# frecuencia_Hz_=_302500.1379453228

Tiempo_(s)	Campo_(V.s)	Magnetizacion_(V.s)	Campo_(kA/m)	Magnetizacion_(A/m)
0.000000e+00	-7.946254e-06	-5.736775e-09	-5.686712e+01	-3.752363e+02
1.000000e-08	-7.941800e-06	-5.735747e-09	-5.683525e+01	-3.750219e+02
2.000000e-08	-7.934807e-06	-5.728265e-09	-5.678520e+01	-3.747457e+02
3.000000e-08	-7.925107e-06	-5.727025e-09	-5.671578e+01	-3.744165e+02
4.000000e-08	-7.912553e-06	-5.725009e-09	-5.662595e+01	-3.740442e+02
5.000000e-08	-7.896951e-06	-5.716458e-09	-5.651428e+01	-3.736383e+02
6.000000e-08	-7.878636e-06	-5.703948e-09	-5.638322e+01	-3.732070e+02
7.000000e-08	-7.858158e-06	-5.685852e-09	-5.623666e+01	-3.727560e+02
8.000000e-08	-7.835142e-06	-5.725816e-09	-5.607195e+01	-3.722883e+02
9.000000e-08	-7.808969e-06	-5.784763e-09	-5.588465e+01	-3.718035e+02
1.000000e-07	-7.779565e-06	-5.714089e-09	-5.567422e+01	-3.712983e+02
1.100000e-07	-7.747390e-06	-5.655333e-09	-5.544396e+01	-3.707669e+02
1.200000e-07	-7.712522e-06	-5.657951e-09	-5.519443e+01	-3.702018e+02
1.300000e-07	-7.675091e-06	-5.639206e-09	-5.492655e+01	-3.695947e+02
1.400000e-07	-7.635540e-06	-5.571015e-09	-5.464351e+01	-3.689373e+02
1.500000e-07	-7.593840e-06	-5.588514e-09	-5.434508e+01	-3.682223e+02
1.600000e-07	-7.549512e-06	-5.704918e-09	-5.402785e+01	-3.674438e+02
1.700000e-07	-7.502465e-06	-5.536172e-09	-5.369116e+01	-3.665976e+02
1.800000e-07	-7.452564e-06	-5.556182e-09	-5.333404e+01	-3.656813e+02
1.900000e-07	-7.399590e-06	-5.610405e-09	-5.295494e+01	-3.646941e+02
2.000000e-07	-7.343880e-06	-5.507429e-09	-5.255625e+01	-3.636364e+02
2.100000e-07	-7.285527e-06	-5.560404e-09	-5.213865e+01	-3.625092e+02
2.200000e-07	-7.224467e-06	-5.513514e-09	-5.170168e+01	-3.613139e+02
2.300000e-07	-7.160767e-06	-5.507258e-09	-5.124581e+01	-3.600516e+02
2.400000e-07	-7.094302e-06	-5.445168e-09	-5.077016e+01	-3.587234e+02
2.500000e-07	-7.025166e-06	-5.420824e-09	-5.027538e+01	-3.573297e+02
2.600000e-07	-6.953415e-06	-5.449164e-09	-4.976190e+01	-3.558709e+02
2.700000e-07	-6.878861e-06	-5.403649e-09	-4.922836e+01	-3.543470e+02
2.800000e-07	-6.801513e-06	-5.357807e-09	-4.867482e+01	-3.527581e+02
2.900000e-07	-6.721366e-06	-5.314828e-09	-4.810125e+01	-3.511042e+02
3.000000e-07	-6.638695e-06	-5.343458e-09	-4.750962e+01	-3.493857e+02
3.100000e-07	-6.553865e-06	-5.312880e-09	-4.690253e+01	-3.476030e+02
3.200000e-07	-6.466746e-06	-5.261353e-09	-4.627907e+01	-3.457566e+02
3.300000e-07	-6.377254e-06	-5.258612e-09	-4.563862e+01	-3.438464e+02
3.400000e-07	-6.285472e-06	-5.212061e-09	-4.498179e+01	-3.418718e+02
3.500000e-07	-6.191440e-06	-5.174065e-09	-4.430885e+01	-3.398314e+02
3.600000e-07	-6.095185e-06	-5.141531e-09	-4.362000e+01	-3.377229e+02
3.700000e-07	-5.996672e-06	-5.132232e-09	-4.291500e+01	-3.355428e+02
3.800000e-07	-5.895970e-06	-5.100009e-09	-4.219433e+01	-3.332869e+02
3.900000e-07	-5.793245e-06	-5.040536e-09	-4.145918e+01	-3.309506e+02
4.000000e-07	-5.688499e-06	-4.998430e-09	-4.070957e+01	-3.285291e+02
4.100000e-07	-5.581696e-06	-4.968050e-09	-3.994523e+01	-3.260183e+02
4.200000e-07	-5.472944e-06	-4.942051e-09	-3.916696e+01	-3.234147e+02
4.300000e-07	-5.362321e-06	-4.885506e-09	-3.837529e+01	-3.207161e+02
4.400000e-07	-5.249685e-06	-4.834744e-09	-3.756921e+01	-3.179216e+02
4.500000e-07	-5.134853e-06	-4.796728e-09	-3.674742e+01	-3.150314e+02
4.600000e-07	-5.017979e-06	-4.756592e-09	-3.591101e+01	-3.120464e+02
4.700000e-07	-4.899308e-06	-4.707111e-09	-3.506174e+01	-3.089676e+02
4.800000e-07	-4.778822e-06	-4.665116e-09	-3.419950e+01	-3.057957e+02
4.900000e-07	-4.656578e-06	-4.620835e-09	-3.332466e+01	-3.025301e+02
5.000000e-07	-4.532628e-06	-4.553643e-09	-3.243761e+01	-2.991685e+02
5.100000e-07	-4.407080e-06	-4.491297e-09	-3.153913e+01	-2.957066e+02
5.200000e-07	-4.279961e-06	-4.447940e-09	-3.062941e+01	-2.921383e+02
5.300000e-07	-4.151253e-06	-4.401719e-09	-2.970831e+01	-2.884556e+02
5.400000e-07	-4.021088e-06	-4.329422e-09	-2.877679e+01	-2.846497e+02
5.500000e-07	-3.889419e-06	-4.257510e-09	-2.783451e+01	-2.807116e+02
5.600000e-07	-3.756271e-06	-4.203734e-09	-2.688164e+01	-2.766332e+02
5.700000e-07	-3.621730e-06	-4.141791e-09	-2.591880e+01	-2.724080e+02
5.800000e-07	-3.485753e-06	-4.071330e-09	-2.494568e+01	-2.680317e+02
5.900000e-07	-3.348376e-06	-4.006752e-09	-2.396255e+01	-2.635028e+02
6.000000e-07	-3.209685e-06	-3.941158e-09	-2.297002e+01	-2.588217e+02
6.100000e-07	-3.069606e-06	-3.860501e-09	-2.196754e+01	-2.539911e+02
6.200000e-07	-2.928176e-06	-3.779779e-09	-2.095540e+01	-2.490140e+02
6.300000e-07	-2.785625e-06	-3.707940e-09	-1.993524e+01	-2.438931e+02
6.400000e-07	-2.642044e-06	-3.630585e-09	-1.890770e+01	-2.386291e+02
6.500000e-07	-2.497443e-06	-3.542851e-09	-1.787287e+01	-2.332198e+02
6.600000e-07	-2.351879e-06	-3.452062e-09	-1.683115e+01	-2.276590e+02
6.700000e-07	-2.205519e-06	-3.367887e-09	-1.578373e+01	-2.219365e+02
6.800000e-07	-2.058496e-06	-3.280703e-09	-1.473156e+01	-2.160379e+02
6.900000e-07	-1.910856e-06	-3.189012e-09	-1.367498e+01	-2.099461e+02
7.000000e-07	-1.762623e-06	-3.093260e-09	-1.261416e+01	-2.036421e+02
7.100000e-07	-1.613852e-06	-2.990736e-09	-1.154948e+01	-1.971067e+02
7.200000e-07	-1.464614e-06	-2.886391e-09	-1.048147e+01	-1.903226e+02
7.300000e-07	-1.314935e-06	-2.779459e-09	-9.410289e+00	-1.832754e+02
7.400000e-07	-1.164863e-06	-2.666921e-09	-8.336306e+00	-1.759546e+02
7.500000e-07	-1.014360e-06	-2.550287e-09	-7.259235e+00	-1.683542e+02
7.600000e-07	-8.635006e-07	-2.433668e-09	-6.179616e+00	-1.604717e+02
7.700000e-07	-7.123799e-07	-2.310078e-09	-5.098125e+00	-1.523068e+02
7.800000e-07	-5.609631e-07	-2.180742e-09	-4.014515e+00	-1.438595e+02
7.900000e-07	-4.093217e-07	-2.049312e-09	-2.929298e+00	-1.351278e+02
8.000000e-07	-2.574886e-07	-1.913556e-09	-1.842709e+00	-1.261049e+02
8.100000e-07	-1.054683e-07	-1.768487e-09	-7.547804e-01	-1.167777e+02
8.200000e-07	4.661434e-08	-1.614731e-09	3.335941e-01	-1.071252e+02
8.300000e-07	1.986746e-07	-1.458793e-09	1.421809e+00	-9.711894e+01
8.400000e-07	3.506733e-07	-1.298486e-09	2.509582e+00	-8.672379e+01
8.500000e-07	5.025380e-07	-1.131717e-09	3.596398e+00	-7.590095e+01
8.600000e-07	6.542432e-07	-9.595368e-10	4.682071e+00	-6.461175e+01
8.700000e-07	8.057364e-07	-7.841530e-10	5.766228e+00	-5.282247e+01
8.800000e-07	9.570093e-07	-5.973102e-10	6.848808e+00	-4.050954e+01
8.900000e-07	1.107970e-06	-4.023439e-10	7.929150e+00	-2.766468e+01
9.000000e-07	1.258487e-06	-2.038429e-10	9.006327e+00	-1.429921e+01
9.100000e-07	1.408605e-06	1.773112e-12	1.008064e+01	-4.470954e-01
9.200000e-07	1.558239e-06	2.185176e-10	1.115149e+01	1.383370e+01
9.300000e-07	1.707275e-06	4.457539e-10	1.221806e+01	2.846195e+01
9.400000e-07	1.855782e-06	6.740519e-10	1.328084e+01	4.333589e+01
9.500000e-07	2.003672e-06	9.037723e-10	1.433922e+01	5.833783e+01
9.600000e-07	2.150742e-06	1.132753e-09	1.539172e+01	7.334023e+01
9.700000e-07	2.297013e-06	1.357620e-09	1.643851e+01	8.821273e+01
9.800000e-07	2.442505e-06	1.577557e-09	1.747971e+01	1.028294e+02
9.900000e-07	2.587082e-06	1.793654e-09	1.851438e+01	1.170756e+02
1.000000e-06	2.730614e-06	2.003807e-09	1.954155e+01	1.308537e+02
1.010000e-06	2.873085e-06	2.201671e-09	2.056114e+01	1.440870e+02
1.020000e-06	3.014461e-06	2.387878e-09	2.157290e+01	1.567226e+02
1.030000e-06	3.154607e-06	2.566099e-09	2.257585e+01	1.687310e+02
1.040000e-06	3.293435e-06	2.738714e-09	2.356937e+01	1.801044e+02
1.050000e-06	3.430983e-06	2.903783e-09	2.455372e+01	1.908542e+02
1.060000e-06	3.567222e-06	3.059136e-09	2.552872e+01	2.010058e+02
1.070000e-06	3.702071e-06	3.206047e-09	2.649375e+01	2.105940e+02
1.080000e-06	3.835602e-06	3.345774e-09	2.744937e+01	2.196584e+02
1.090000e-06	3.967791e-06	3.479125e-09	2.839537e+01	2.282388e+02
1.100000e-06	4.098527e-06	3.603919e-09	2.933098e+01	2.363720e+02
1.110000e-06	4.227818e-06	3.722321e-09	3.025625e+01	2.440900e+02
1.120000e-06	4.355641e-06	3.833992e-09	3.117101e+01	2.514187e+02
1.130000e-06	4.481963e-06	3.938832e-09	3.207503e+01	2.583786e+02
1.140000e-06	4.606818e-06	4.039034e-09	3.296855e+01	2.649863e+02
1.150000e-06	4.730068e-06	4.135614e-09	3.385058e+01	2.712558e+02
1.160000e-06	4.851588e-06	4.224858e-09	3.472024e+01	2.772007e+02
1.170000e-06	4.971381e-06	4.307855e-09	3.557754e+01	2.828361e+02
1.180000e-06	5.089366e-06	4.388820e-09	3.642189e+01	2.881792e+02
1.190000e-06	5.205445e-06	4.467485e-09	3.725261e+01	2.932504e+02
1.200000e-06	5.319510e-06	4.542571e-09	3.806891e+01	2.980725e+02
1.210000e-06	5.431522e-06	4.612410e-09	3.887052e+01	3.026697e+02
1.220000e-06	5.541567e-06	4.679210e-09	3.965806e+01	3.070661e+02
1.230000e-06	5.649696e-06	4.742432e-09	4.043187e+01	3.112836e+02
1.240000e-06	5.755789e-06	4.803322e-09	4.119112e+01	3.153409e+02
1.250000e-06	5.859727e-06	4.862249e-09	4.193495e+01	3.192513e+02
1.260000e-06	5.961540e-06	4.919281e-09	4.266358e+01	3.230225e+02
1.270000e-06	6.061145e-06	4.973619e-09	4.337640e+01	3.266566e+02
1.280000e-06	6.158403e-06	5.023995e-09	4.407242e+01	3.301504e+02
1.290000e-06	6.253348e-06	5.073407e-09	4.475189e+01	3.334973e+02
1.300000e-06	6.346150e-06	5.122874e-09	4.541603e+01	3.366886e+02
1.310000e-06	6.436760e-06	5.168017e-09	4.606448e+01	3.397158e+02
1.320000e-06	6.524994e-06	5.206819e-09	4.669592e+01	3.425723e+02
1.330000e-06	6.610923e-06	5.243498e-09	4.731086e+01	3.452548e+02
1.340000e-06	6.694609e-06	5.280745e-09	4.790976e+01	3.477645e+02
1.350000e-06	6.775853e-06	5.317339e-09	4.849119e+01	3.501068e+02
1.360000e-06	6.854574e-06	5.351939e-09	4.905455e+01	3.522913e+02
1.370000e-06	6.930782e-06	5.383594e-09	4.959993e+01	3.543308e+02
1.380000e-06	7.004307e-06	5.411338e-09	5.012610e+01	3.562395e+02
1.390000e-06	7.075236e-06	5.436631e-09	5.063371e+01	3.580315e+02
1.400000e-06	7.143683e-06	5.463995e-09	5.112355e+01	3.597199e+02
1.410000e-06	7.209523e-06	5.490828e-09	5.159473e+01	3.613146e+02
1.420000e-06	7.272782e-06	5.514036e-09	5.204744e+01	3.628224e+02
1.430000e-06	7.333649e-06	5.533919e-09	5.248304e+01	3.642465e+02
1.440000e-06	7.392033e-06	5.552501e-09	5.290085e+01	3.655870e+02
1.450000e-06	7.447823e-06	5.570819e-09	5.330012e+01	3.668418e+02
1.460000e-06	7.500820e-06	5.587802e-09	5.367939e+01	3.680074e+02
1.470000e-06	7.550688e-06	5.602233e-09	5.403627e+01	3.690810e+02
1.480000e-06	7.597600e-06	5.615341e-09	5.437199e+01	3.700607e+02
1.490000e-06	7.641889e-06	5.628494e-09	5.468894e+01	3.709471e+02
1.500000e-06	7.683475e-06	5.641649e-09	5.498655e+01	3.717431e+02
1.510000e-06	7.722195e-06	5.655953e-09	5.526365e+01	3.724546e+02
1.520000e-06	7.758260e-06	5.668324e-09	5.552175e+01	3.730891e+02
1.530000e-06	7.791621e-06	5.678949e-09	5.576050e+01	3.736553e+02
1.540000e-06	7.822140e-06	5.686204e-09	5.597890e+01	3.741621e+02
1.550000e-06	7.849997e-06	5.690647e-09	5.617826e+01	3.746168e+02
1.560000e-06	7.874990e-06	5.696827e-09	5.635712e+01	3.750248e+02
1.570000e-06	7.897060e-06	5.703872e-09	5.651507e+01	3.753888e+02
1.580000e-06	7.916445e-06	5.710526e-09	5.665380e+01	3.757081e+02
1.590000e-06	7.933000e-06	5.714724e-09	5.677227e+01	3.759796e+02
1.600000e-06	7.946571e-06	5.719313e-09	5.686939e+01	3.761978e+02
1.610000e-06	7.956990e-06	5.724176e-09	5.694396e+01	3.763564e+02
1.620000e-06	7.964328e-06	5.726941e-09	5.699647e+01	3.764490e+02
1.630000e-06	7.968904e-06	5.727941e-09	5.702922e+01	3.764707e+02
1.640000e-06	7.970620e-06	5.728452e-09	5.704150e+01	3.764186e+02
1.650000e-06	7.969484e-06	5.728032e-09	5.703337e+01	3.762930e+02
1.660000e-06	7.965804e-06	5.715655e-09	5.700703e+01	3.760972e+02
1.670000e-06	7.959423e-06	5.713277e-09	5.696137e+01	3.758374e+02
1.680000e-06	7.950312e-06	5.712892e-09	5.689617e+01	3.755219e+02
1.690000e-06	7.938579e-06	5.708739e-09	5.681220e+01	3.751606e+02
1.700000e-06	7.924037e-06	5.707930e-09	5.670813e+01	3.747629e+02
1.710000e-06	7.906921e-06	5.712077e-09	5.658564e+01	3.743377e+02
1.720000e-06	7.887573e-06	5.719640e-09	5.644717e+01	3.738915e+02
1.730000e-06	7.865742e-06	5.613369e-09	5.629094e+01	3.734281e+02
1.740000e-06	7.840714e-06	5.576498e-09	5.611183e+01	3.729479e+02
1.750000e-06	7.812009e-06	5.657210e-09	5.590640e+01	3.724487e+02
1.760000e-06	7.779949e-06	5.651119e-09	5.567696e+01	3.719250e+02
1.770000e-06	7.745380e-06	5.615284e-09	5.542958e+01	3.713700e+02
1.780000e-06	7.708523e-06	5.696675e-09	5.516581e+01	3.707753e+02
1.790000e-06	7.669401e-06	5.727623e-09	5.488583e+01	3.701327e+02
1.800000e-06	7.628218e-06	5.523139e-09	5.459111e+01	3.694344e+02
1.810000e-06	7.584613e-06	5.653125e-09	5.427905e+01	3.686741e+02
1.820000e-06	7.538421e-06	5.635677e-09	5.394848e+01	3.678471e+02
1.830000e-06	7.489527e-06	5.565906e-09	5.359857e+01	3.669506e+02
1.840000e-06	7.437594e-06	5.676778e-09	5.322691e+01	3.659833e+02
1.850000e-06	7.382761e-06	5.505114e-09	5.283450e+01	3.649452e+02
1.860000e-06	7.325233e-06	5.590674e-09	5.242280e+01	3.638373e+02
1.870000e-06	7.265117e-06	5.503590e-09	5.199259e+01	3.626609e+02
1.880000e-06	7.202288e-06	5.483094e-09	5.154295e+01	3.614172e+02
1.890000e-06	7.136622e-06	5.591665e-09	5.107301e+01	3.601073e+02
1.900000e-06	7.068251e-06	5.445938e-09	5.058372e+01	3.587319e+02
1.910000e-06	6.997042e-06	5.474141e-09	5.007412e+01	3.572913e+02
1.920000e-06	6.923169e-06	5.400782e-09	4.954545e+01	3.557856e+02
1.930000e-06	6.846593e-06	5.437987e-09	4.899744e+01	3.542148e+02
1.940000e-06	6.767217e-06	5.412600e-09	4.842938e+01	3.525790e+02
1.950000e-06	6.685376e-06	5.342018e-09	4.784369e+01	3.508785e+02
1.960000e-06	6.601155e-06	5.378710e-09	4.724096e+01	3.491137e+02
1.970000e-06	6.514459e-06	5.258302e-09	4.662053e+01	3.472851e+02
1.980000e-06	6.425249e-06	5.271646e-09	4.598210e+01	3.453927e+02
1.990000e-06	6.333837e-06	5.238056e-09	4.532791e+01	3.434362e+02
2.000000e-06	6.240262e-06	5.255751e-09	4.465824e+01	3.414144e+02
2.010000e-06	6.144379e-06	5.196410e-09	4.397206e+01	3.393252e+02
2.020000e-06	6.046325e-06	5.125055e-09	4.327034e+01	3.371655e+02
2.030000e-06	5.946197e-06	5.115135e-09	4.255377e+01	3.349313e+02
2.040000e-06	5.843937e-06	5.076074e-09	4.182196e+01	3.326181e+02
2.050000e-06	5.739499e-06	5.070153e-09	4.107455e+01	3.302210e+02
2.060000e-06	5.633138e-06	4.997056e-09	4.031338e+01	3.277356e+02
2.070000e-06	5.524937e-06	4.973349e-09	3.953904e+01	3.251584e+02
2.080000e-06	5.414783e-06	4.919449e-09	3.875073e+01	3.224867e+02
2.090000e-06	5.302590e-06	4.882444e-09	3.794782e+01	3.197192e+02
2.100000e-06	5.188413e-06	4.845269e-09	3.713072e+01	3.168558e+02
2.110000e-06	5.072274e-06	4.821416e-09	3.629957e+01	3.138974e+02
2.120000e-06	4.954091e-06	4.759837e-09	3.545380e+01	3.108449e+02
2.130000e-06	4.833934e-06	4.686828e-09	3.459390e+01	3.076992e+02
2.140000e-06	4.712032e-06	4.646793e-09	3.372151e+01	3.044601e+02
2.150000e-06	4.588509e-06	4.613097e-09	3.283753e+01	3.011258e+02
2.160000e-06	4.463300e-06	4.572567e-09	3.194147e+01	2.976927e+02
2.170000e-06	4.336443e-06	4.497246e-09	3.103362e+01	2.941551e+02
2.180000e-06	4.207910e-06	4.444379e-09	3.011378e+01	2.905055e+02
2.190000e-06	4.077898e-06	4.383297e-09	2.918335e+01	2.867354e+02
2.200000e-06	3.946431e-06	4.328248e-09	2.824251e+01	2.828355e+02
2.210000e-06	3.813455e-06	4.271837e-09	2.729088e+01	2.787976e+02
2.220000e-06	3.679028e-06	4.219601e-09	2.632885e+01	2.746144e+02
2.230000e-06	3.543159e-06	4.140667e-09	2.535651e+01	2.702812e+02
2.240000e-06	3.405956e-06	4.058319e-09	2.437462e+01	2.657954e+02
2.250000e-06	3.267532e-06	3.992138e-09	2.338399e+01	2.611572e+02
2.260000e-06	3.127831e-06	3.934268e-09	2.238422e+01	2.563686e+02
2.270000e-06	2.986800e-06	3.863942e-09	2.137494e+01	2.514326e+02
2.280000e-06	2.844629e-06	3.777768e-09	2.035750e+01	2.463522e+02
2.290000e-06	2.701358e-06	3.697013e-09	1.933218e+01	2.411287e+02
2.300000e-06	2.557075e-06	3.613895e-09	1.829963e+01	2.357610e+02
2.310000e-06	2.411954e-06	3.535100e-09	1.726107e+01	2.302439e+02
2.320000e-06	2.266126e-06	3.452217e-09	1.621746e+01	2.245685e+02
2.330000e-06	2.119622e-06	3.358843e-09	1.516901e+01	2.187215e+02
2.340000e-06	1.972332e-06	3.256657e-09	1.411493e+01	2.126864e+02
2.350000e-06	1.824343e-06	3.159638e-09	1.305585e+01	2.064445e+02
2.360000e-06	1.675779e-06	3.068499e-09	1.199266e+01	1.999767e+02
2.370000e-06	1.526667e-06	2.971837e-09	1.092555e+01	1.932649e+02
2.380000e-06	1.377133e-06	2.863392e-09	9.855414e+00	1.862936e+02
2.390000e-06	1.227194e-06	2.746508e-09	8.782375e+00	1.790514e+02
2.400000e-06	1.076846e-06	2.626232e-09	7.706417e+00	1.715309e+02
2.410000e-06	9.261171e-07	2.509186e-09	6.627728e+00	1.637286e+02
2.420000e-06	7.750446e-07	2.393953e-09	5.546583e+00	1.556440e+02
2.430000e-06	6.237183e-07	2.272784e-09	4.463621e+00	1.472770e+02
2.440000e-06	4.721211e-07	2.139337e-09	3.378720e+00	1.386266e+02
2.450000e-06	3.202369e-07	1.999742e-09	2.291766e+00	1.296875e+02
2.460000e-06	1.681691e-07	1.860001e-09	1.203497e+00	1.204486e+02
2.470000e-06	1.607254e-08	1.716501e-09	1.150227e-01	1.108912e+02
2.480000e-06	-1.360411e-07	1.566501e-09	-9.735737e-01	1.009890e+02
2.490000e-06	-2.881667e-07	1.407486e-09	-2.062256e+00	9.070835e+01
2.500000e-06	-4.402192e-07	1.240006e-09	-3.150415e+00	8.001132e+01
2.510000e-06	-5.920849e-07	1.066338e-09	-4.237238e+00	6.885871e+01
2.520000e-06	-7.437534e-07	8.912044e-10	-5.322648e+00	5.721483e+01
2.530000e-06	-8.951746e-07	7.116572e-10	-6.406289e+00	4.505270e+01
2.540000e-06	-1.046177e-06	5.192387e-10	-7.486935e+00	3.235918e+01
2.550000e-06	-1.196770e-06	3.136231e-10	-8.564645e+00	1.913959e+01
2.560000e-06	-1.346980e-06	1.012885e-10	-9.639622e+00	5.421244e+00
2.570000e-06	-1.496796e-06	-1.138019e-10	-1.071177e+01	-8.744794e+00
2.580000e-06	-1.646111e-06	-3.326139e-10	-1.178034e+01	-2.328375e+01
2.590000e-06	-1.794753e-06	-5.577480e-10	-1.284409e+01	-3.809933e+01
2.600000e-06	-1.942659e-06	-7.888051e-10	-1.390258e+01	-5.307782e+01
2.610000e-06	-2.089855e-06	-1.022521e-09	-1.495598e+01	-6.809383e+01
2.620000e-06	-2.236285e-06	-1.255176e-09	-1.600391e+01	-8.301704e+01
2.630000e-06	-2.381888e-06	-1.481489e-09	-1.704591e+01	-9.771955e+01
2.640000e-06	-2.526684e-06	-1.699838e-09	-1.808213e+01	-1.120828e+02
2.650000e-06	-2.670499e-06	-1.913104e-09	-1.911134e+01	-1.260038e+02
2.660000e-06	-2.813158e-06	-2.121227e-09	-2.013228e+01	-1.393997e+02
2.670000e-06	-2.954702e-06	-2.317956e-09	-2.114524e+01	-1.522105e+02
2.680000e-06	-3.095039e-06	-2.502077e-09	-2.214955e+01	-1.644002e+02
2.690000e-06	-3.234094e-06	-2.676335e-09	-2.314469e+01	-1.759551e+02
2.700000e-06	-3.371951e-06	-2.842026e-09	-2.413126e+01	-1.868814e+02
2.710000e-06	-3.508601e-06	-3.001488e-09	-2.510919e+01	-1.972011e+02
2.720000e-06	-3.643927e-06	-3.152319e-09	-2.607765e+01	-2.069468e+02
2.730000e-06	-3.777929e-06	-3.292565e-09	-2.703663e+01	-2.161571e+02
2.740000e-06	-3.910560e-06	-3.426268e-09	-2.798580e+01	-2.248723e+02
2.750000e-06	-4.041753e-06	-3.555880e-09	-2.892468e+01	-2.331302e+02
2.760000e-06	-4.171595e-06	-3.678648e-09	-2.985389e+01	-2.409643e+02
2.770000e-06	-4.300060e-06	-3.792525e-09	-3.077325e+01	-2.484023e+02
2.780000e-06	-4.426995e-06	-3.899146e-09	-3.168165e+01	-2.554662e+02
2.790000e-06	-4.552355e-06	-3.999284e-09	-3.257879e+01	-2.621735e+02
2.800000e-06	-4.676219e-06	-4.092142e-09	-3.346522e+01	-2.685387e+02
2.810000e-06	-4.798422e-06	-4.181052e-09	-3.433976e+01	-2.745753e+02
2.820000e-06	-4.918820e-06	-4.269386e-09	-3.520138e+01	-2.802978e+02
2.830000e-06	-5.037324e-06	-4.355232e-09	-3.604945e+01	-2.857229e+02
2.840000e-06	-5.153852e-06	-4.435686e-09	-3.688338e+01	-2.908700e+02
2.850000e-06	-5.268301e-06	-4.510602e-09	-3.770243e+01	-2.957613e+02
2.860000e-06	-5.380608e-06	-4.583235e-09	-3.850616e+01	-3.004207e+02
2.870000e-06	-5.490888e-06	-4.653279e-09	-3.929537e+01	-3.048724e+02
2.880000e-06	-5.599237e-06	-4.717829e-09	-4.007077e+01	-3.091394e+02
2.890000e-06	-5.705670e-06	-4.780235e-09	-4.083245e+01	-3.132413e+02
2.900000e-06	-5.810070e-06	-4.842321e-09	-4.157959e+01	-3.171930e+02
2.910000e-06	-5.912281e-06	-4.903011e-09	-4.231106e+01	-3.210040e+02
2.920000e-06	-6.012277e-06	-4.961662e-09	-4.302667e+01	-3.246778e+02
2.930000e-06	-6.110165e-06	-5.017576e-09	-4.372721e+01	-3.282126e+02
2.940000e-06	-6.205874e-06	-5.070763e-09	-4.441215e+01	-3.316027e+02
