# Temperatura_=_44.95
# Concentracion g/m^3_=_5000.0
# C_Vs_to_Am_M_A/Vsm_=_65563218390.804596
# pendiente_HvsI_1/m_=_3716.3
# ordenada_HvsI_A/m_=_1297.0
# frecuencia_Hz_=_302504.16353320883

Tiempo_(s)	Campo_(V.s)	Magnetizacion_(V.s)	Campo_(kA/m)	Magnetizacion_(A/m)
0.000000e+00	-7.948864e-06	-5.736221e-09	-5.686656e+01	-3.756724e+02
1.000000e-08	-7.944166e-06	-5.731457e-09	-5.683295e+01	-3.754121e+02
2.000000e-08	-7.936974e-06	-5.727467e-09	-5.678150e+01	-3.750992e+02
3.000000e-08	-7.927087e-06	-5.725383e-09	-5.671077e+01	-3.747445e+02
4.000000e-08	-7.914237e-06	-5.722512e-09	-5.661884e+01	-3.743573e+02
5.000000e-08	-7.898399e-06	-5.716071e-09	-5.650553e+01	-3.739447e+02
6.000000e-08	-7.879983e-06	-5.710381e-09	-5.637379e+01	-3.735103e+02
7.000000e-08	-7.859337e-06	-5.712329e-09	-5.622608e+01	-3.730543e+02
8.000000e-08	-7.836041e-06	-5.718965e-09	-5.605942e+01	-3.725737e+02
9.000000e-08	-7.809519e-06	-5.711763e-09	-5.586968e+01	-3.720627e+02
1.000000e-07	-7.779824e-06	-5.693987e-09	-5.565724e+01	-3.715137e+02
1.100000e-07	-7.747306e-06	-5.670428e-09	-5.542461e+01	-3.709186e+02
1.200000e-07	-7.712108e-06	-5.649878e-09	-5.517280e+01	-3.702699e+02
1.300000e-07	-7.674492e-06	-5.631407e-09	-5.490369e+01	-3.695612e+02
1.400000e-07	-7.634768e-06	-5.613747e-09	-5.461950e+01	-3.687882e+02
1.500000e-07	-7.592778e-06	-5.605571e-09	-5.431910e+01	-3.679486e+02
1.600000e-07	-7.548138e-06	-5.589856e-09	-5.399975e+01	-3.670418e+02
1.700000e-07	-7.500790e-06	-5.585565e-09	-5.366101e+01	-3.660687e+02
1.800000e-07	-7.450557e-06	-5.546410e-09	-5.330165e+01	-3.650304e+02
1.900000e-07	-7.397297e-06	-5.532854e-09	-5.292062e+01	-3.639280e+02
2.000000e-07	-7.341252e-06	-5.528840e-09	-5.251968e+01	-3.627616e+02
2.100000e-07	-7.282536e-06	-5.516019e-09	-5.209962e+01	-3.615300e+02
2.200000e-07	-7.221190e-06	-5.520423e-09	-5.166075e+01	-3.602305e+02
2.300000e-07	-7.157262e-06	-5.467140e-09	-5.120340e+01	-3.588597e+02
2.400000e-07	-7.090592e-06	-5.431446e-09	-5.072644e+01	-3.574134e+02
2.500000e-07	-7.021197e-06	-5.417570e-09	-5.022998e+01	-3.558877e+02
2.600000e-07	-6.949103e-06	-5.390387e-09	-4.971422e+01	-3.542800e+02
2.700000e-07	-6.874178e-06	-5.358276e-09	-4.917820e+01	-3.525892e+02
2.800000e-07	-6.796463e-06	-5.342057e-09	-4.862223e+01	-3.508165e+02
2.900000e-07	-6.716053e-06	-5.320852e-09	-4.804697e+01	-3.489653e+02
3.000000e-07	-6.633147e-06	-5.279323e-09	-4.745385e+01	-3.470407e+02
3.100000e-07	-6.547984e-06	-5.259110e-09	-4.684459e+01	-3.450488e+02
3.200000e-07	-6.460597e-06	-5.237162e-09	-4.621943e+01	-3.429961e+02
3.300000e-07	-6.370892e-06	-5.192011e-09	-4.557767e+01	-3.408878e+02
3.400000e-07	-6.278898e-06	-5.152261e-09	-4.491954e+01	-3.387271e+02
3.500000e-07	-6.184703e-06	-5.124083e-09	-4.424567e+01	-3.365145e+02
3.600000e-07	-6.088225e-06	-5.098466e-09	-4.355545e+01	-3.342474e+02
3.700000e-07	-5.989459e-06	-5.061551e-09	-4.284888e+01	-3.319199e+02
3.800000e-07	-5.888514e-06	-5.023482e-09	-4.212671e+01	-3.295239e+02
3.900000e-07	-5.785478e-06	-4.987294e-09	-4.138959e+01	-3.270496e+02
4.000000e-07	-5.680428e-06	-4.939509e-09	-4.063806e+01	-3.244871e+02
4.100000e-07	-5.573401e-06	-4.893254e-09	-3.987238e+01	-3.218274e+02
4.200000e-07	-5.464393e-06	-4.862342e-09	-3.909254e+01	-3.190638e+02
4.300000e-07	-5.353497e-06	-4.826164e-09	-3.829918e+01	-3.161923e+02
4.400000e-07	-5.240606e-06	-4.768803e-09	-3.749155e+01	-3.132124e+02
4.500000e-07	-5.125596e-06	-4.714329e-09	-3.666876e+01	-3.101264e+02
4.600000e-07	-5.008616e-06	-4.672094e-09	-3.583188e+01	-3.069388e+02
4.700000e-07	-4.889781e-06	-4.625461e-09	-3.498173e+01	-3.036555e+02
4.800000e-07	-4.769180e-06	-4.575708e-09	-3.411894e+01	-3.002816e+02
4.900000e-07	-4.646835e-06	-4.526124e-09	-3.324368e+01	-2.968210e+02
5.000000e-07	-4.522774e-06	-4.468901e-09	-3.235614e+01	-2.932743e+02
5.100000e-07	-4.397079e-06	-4.406196e-09	-3.145692e+01	-2.896390e+02
5.200000e-07	-4.269805e-06	-4.348890e-09	-3.054639e+01	-2.859087e+02
5.300000e-07	-4.140941e-06	-4.289438e-09	-2.962449e+01	-2.820740e+02
5.400000e-07	-4.010546e-06	-4.220587e-09	-2.869164e+01	-2.781233e+02
5.500000e-07	-3.878619e-06	-4.153588e-09	-2.774783e+01	-2.740441e+02
5.600000e-07	-3.745194e-06	-4.092595e-09	-2.679330e+01	-2.698250e+02
5.700000e-07	-3.610396e-06	-4.031511e-09	-2.582895e+01	-2.654568e+02
5.800000e-07	-3.474239e-06	-3.966023e-09	-2.485488e+01	-2.609336e+02
5.900000e-07	-3.336705e-06	-3.900752e-09	-2.387095e+01	-2.562534e+02
6.000000e-07	-3.197810e-06	-3.828276e-09	-2.287729e+01	-2.514182e+02
6.100000e-07	-3.057539e-06	-3.746178e-09	-2.187378e+01	-2.464326e+02
6.200000e-07	-2.915956e-06	-3.665812e-09	-2.086089e+01	-2.413029e+02
6.300000e-07	-2.773193e-06	-3.588394e-09	-1.983956e+01	-2.360350e+02
6.400000e-07	-2.629353e-06	-3.505289e-09	-1.881052e+01	-2.306327e+02
6.500000e-07	-2.484644e-06	-3.415049e-09	-1.777527e+01	-2.250958e+02
6.600000e-07	-2.339136e-06	-3.327594e-09	-1.673429e+01	-2.194191e+02
6.700000e-07	-2.192760e-06	-3.242297e-09	-1.568712e+01	-2.135920e+02
6.800000e-07	-2.045596e-06	-3.154611e-09	-1.463429e+01	-2.075988e+02
6.900000e-07	-1.897811e-06	-3.063737e-09	-1.357703e+01	-2.014198e+02
7.000000e-07	-1.749496e-06	-2.968259e-09	-1.251598e+01	-1.950335e+02
7.100000e-07	-1.600667e-06	-2.865048e-09	-1.145125e+01	-1.884185e+02
7.200000e-07	-1.451318e-06	-2.756208e-09	-1.038280e+01	-1.815554e+02
7.300000e-07	-1.301457e-06	-2.646129e-09	-9.310689e+00	-1.744294e+02
7.400000e-07	-1.151188e-06	-2.534124e-09	-8.235653e+00	-1.670305e+02
7.500000e-07	-1.000559e-06	-2.419371e-09	-7.158047e+00	-1.593541e+02
7.600000e-07	-8.495551e-07	-2.301648e-09	-6.077759e+00	-1.514001e+02
7.700000e-07	-6.982827e-07	-2.180346e-09	-4.995549e+00	-1.431705e+02
7.800000e-07	-5.467903e-07	-2.052918e-09	-3.911764e+00	-1.346672e+02
7.900000e-07	-3.950872e-07	-1.918665e-09	-2.826473e+00	-1.258886e+02
8.000000e-07	-2.432279e-07	-1.777202e-09	-1.740064e+00	-1.168270e+02
8.100000e-07	-9.124177e-08	-1.629096e-09	-6.527480e-01	-1.074662e+02
8.200000e-07	6.082671e-08	-1.475515e-09	4.351572e-01	-9.778061e+01
8.300000e-07	2.128785e-07	-1.319717e-09	1.522943e+00	-8.773565e+01
8.400000e-07	3.648486e-07	-1.163034e-09	2.610145e+00	-7.728977e+01
8.500000e-07	5.167215e-07	-9.983457e-10	3.696651e+00	-6.639824e+01
8.600000e-07	6.684664e-07	-8.257114e-10	4.782241e+00	-5.501827e+01
8.700000e-07	8.200481e-07	-6.464346e-10	5.866664e+00	-4.311479e+01
8.800000e-07	9.713776e-07	-4.604042e-10	6.949283e+00	-3.066663e+01
8.900000e-07	1.122396e-06	-2.672824e-10	8.029674e+00	-1.767205e+01
9.000000e-07	1.273015e-06	-6.321862e-11	9.107210e+00	-4.153049e+00
9.100000e-07	1.423130e-06	1.481742e-10	1.018114e+01	9.842133e+00
9.200000e-07	1.572767e-06	3.677819e-10	1.125165e+01	2.423876e+01
9.300000e-07	1.721925e-06	5.955420e-10	1.231873e+01	3.893780e+01
9.400000e-07	1.870481e-06	8.261821e-10	1.338151e+01	5.382033e+01
9.500000e-07	2.018339e-06	1.054888e-09	1.443930e+01	6.875398e+01
9.600000e-07	2.165411e-06	1.279000e-09	1.549146e+01	8.360059e+01
9.700000e-07	2.311610e-06	1.499731e-09	1.653737e+01	9.822447e+01
9.800000e-07	2.456981e-06	1.715338e-09	1.757736e+01	1.125003e+02
9.900000e-07	2.601503e-06	1.924551e-09	1.861128e+01	1.263201e+02
1.000000e-06	2.745025e-06	2.125118e-09	1.963804e+01	1.395985e+02
1.010000e-06	2.887427e-06	2.316403e-09	2.065680e+01	1.522754e+02
1.020000e-06	3.028679e-06	2.497935e-09	2.166732e+01	1.643170e+02
1.030000e-06	3.168727e-06	2.669634e-09	2.266923e+01	1.757142e+02
1.040000e-06	3.307485e-06	2.833636e-09	2.366191e+01	1.864787e+02
1.050000e-06	3.444956e-06	2.989654e-09	2.464538e+01	1.966385e+02
1.060000e-06	3.581128e-06	3.136521e-09	2.561957e+01	2.062323e+02
1.070000e-06	3.715993e-06	3.274848e-09	2.658439e+01	2.153033e+02
1.080000e-06	3.849542e-06	3.405465e-09	2.753981e+01	2.238948e+02
1.090000e-06	3.981741e-06	3.531088e-09	2.848557e+01	2.320463e+02
1.100000e-06	4.112465e-06	3.651257e-09	2.942077e+01	2.397905e+02
1.110000e-06	4.241647e-06	3.765462e-09	3.034495e+01	2.471532e+02
1.120000e-06	4.369354e-06	3.873060e-09	3.125857e+01	2.541531e+02
1.130000e-06	4.495568e-06	3.973926e-09	3.216151e+01	2.608043e+02
1.140000e-06	4.620325e-06	4.070088e-09	3.305403e+01	2.671178e+02
1.150000e-06	4.743500e-06	4.159857e-09	3.393523e+01	2.731046e+02
1.160000e-06	4.864947e-06	4.244888e-09	3.480406e+01	2.787777e+02
1.170000e-06	4.984666e-06	4.324659e-09	3.566055e+01	2.841537e+02
1.180000e-06	5.102526e-06	4.400251e-09	3.650372e+01	2.892535e+02
1.190000e-06	5.218411e-06	4.473857e-09	3.733276e+01	2.941017e+02
1.200000e-06	5.332248e-06	4.545947e-09	3.814716e+01	2.987255e+02
1.210000e-06	5.444053e-06	4.615152e-09	3.894702e+01	3.031527e+02
1.220000e-06	5.553971e-06	4.679571e-09	3.973338e+01	3.074094e+02
1.230000e-06	5.661983e-06	4.741748e-09	4.050610e+01	3.115177e+02
1.240000e-06	5.767876e-06	4.802163e-09	4.126366e+01	3.154941e+02
1.250000e-06	5.871579e-06	4.860742e-09	4.200556e+01	3.193483e+02
1.260000e-06	5.973162e-06	4.917367e-09	4.273229e+01	3.230828e+02
1.270000e-06	6.072550e-06	4.970514e-09	4.344332e+01	3.266939e+02
1.280000e-06	6.169619e-06	5.022840e-09	4.413775e+01	3.301729e+02
1.290000e-06	6.264422e-06	5.071880e-09	4.481598e+01	3.335086e+02
1.300000e-06	6.357075e-06	5.117072e-09	4.547882e+01	3.366892e+02
1.310000e-06	6.447486e-06	5.161576e-09	4.612563e+01	3.397044e+02
1.320000e-06	6.535489e-06	5.202646e-09	4.675521e+01	3.425479e+02
1.330000e-06	6.621155e-06	5.241712e-09	4.736807e+01	3.452179e+02
1.340000e-06	6.704579e-06	5.279028e-09	4.796489e+01	3.477178e+02
1.350000e-06	6.785649e-06	5.313376e-09	4.854486e+01	3.500557e+02
1.360000e-06	6.864225e-06	5.347740e-09	4.910700e+01	3.522435e+02
1.370000e-06	6.940187e-06	5.381531e-09	4.965044e+01	3.542951e+02
1.380000e-06	7.013471e-06	5.412645e-09	5.017471e+01	3.562248e+02
1.390000e-06	7.084246e-06	5.440339e-09	5.068104e+01	3.580458e+02
1.400000e-06	7.152569e-06	5.466742e-09	5.116983e+01	3.597684e+02
1.410000e-06	7.218308e-06	5.491556e-09	5.164013e+01	3.613996e+02
1.420000e-06	7.281448e-06	5.514588e-09	5.209183e+01	3.629428e+02
1.430000e-06	7.342178e-06	5.536251e-09	5.252630e+01	3.643983e+02
1.440000e-06	7.400403e-06	5.555629e-09	5.294284e+01	3.657642e+02
1.450000e-06	7.455907e-06	5.572246e-09	5.333992e+01	3.670376e+02
1.460000e-06	7.508544e-06	5.586931e-09	5.371649e+01	3.682161e+02
1.470000e-06	7.558097e-06	5.602991e-09	5.407100e+01	3.692988e+02
1.480000e-06	7.604795e-06	5.619151e-09	5.440508e+01	3.702872e+02
1.490000e-06	7.648884e-06	5.633817e-09	5.472048e+01	3.711854e+02
1.500000e-06	7.690229e-06	5.647934e-09	5.501627e+01	3.720000e+02
1.510000e-06	7.728800e-06	5.661131e-09	5.529221e+01	3.727391e+02
1.520000e-06	7.764670e-06	5.672178e-09	5.554882e+01	3.734116e+02
1.530000e-06	7.797738e-06	5.681184e-09	5.578539e+01	3.740257e+02
1.540000e-06	7.828012e-06	5.689578e-09	5.600198e+01	3.745877e+02
1.550000e-06	7.855554e-06	5.697805e-09	5.619901e+01	3.751012e+02
1.560000e-06	7.880225e-06	5.705981e-09	5.637552e+01	3.755663e+02
1.570000e-06	7.902044e-06	5.714439e-09	5.653161e+01	3.759802e+02
1.580000e-06	7.921141e-06	5.719691e-09	5.666822e+01	3.763374e+02
1.590000e-06	7.937383e-06	5.721865e-09	5.678443e+01	3.766306e+02
1.600000e-06	7.950603e-06	5.725176e-09	5.687900e+01	3.768523e+02
1.610000e-06	7.960678e-06	5.730253e-09	5.695108e+01	3.769961e+02
1.620000e-06	7.967712e-06	5.733476e-09	5.700140e+01	3.770576e+02
1.630000e-06	7.971925e-06	5.733832e-09	5.703154e+01	3.770358e+02
1.640000e-06	7.973317e-06	5.734284e-09	5.704150e+01	3.769331e+02
1.650000e-06	7.972034e-06	5.732876e-09	5.703232e+01	3.767556e+02
1.660000e-06	7.968154e-06	5.729730e-09	5.700456e+01	3.765118e+02
1.670000e-06	7.961527e-06	5.724590e-09	5.695715e+01	3.762123e+02
1.680000e-06	7.952225e-06	5.721009e-09	5.689060e+01	3.758679e+02
1.690000e-06	7.940207e-06	5.717109e-09	5.680463e+01	3.754886e+02
1.700000e-06	7.925422e-06	5.711679e-09	5.669885e+01	3.750821e+02
1.710000e-06	7.908154e-06	5.702178e-09	5.657532e+01	3.746532e+02
1.720000e-06	7.888567e-06	5.674395e-09	5.643519e+01	3.742031e+02
1.730000e-06	7.866382e-06	5.654146e-09	5.627648e+01	3.737295e+02
1.740000e-06	7.840974e-06	5.650278e-09	5.609471e+01	3.732273e+02
1.750000e-06	7.811912e-06	5.650027e-09	5.588680e+01	3.726894e+02
1.760000e-06	7.779606e-06	5.648514e-09	5.565568e+01	3.721077e+02
1.770000e-06	7.744838e-06	5.649776e-09	5.540695e+01	3.714745e+02
1.780000e-06	7.707698e-06	5.650470e-09	5.514124e+01	3.707829e+02
1.790000e-06	7.668381e-06	5.641113e-09	5.485997e+01	3.700281e+02
1.800000e-06	7.627030e-06	5.645813e-09	5.456414e+01	3.692070e+02
1.810000e-06	7.583169e-06	5.603885e-09	5.425036e+01	3.683189e+02
1.820000e-06	7.536665e-06	5.612206e-09	5.391767e+01	3.673640e+02
1.830000e-06	7.487463e-06	5.622630e-09	5.356568e+01	3.663437e+02
1.840000e-06	7.435299e-06	5.578540e-09	5.319249e+01	3.652590e+02
1.850000e-06	7.380214e-06	5.570155e-09	5.279841e+01	3.641104e+02
1.860000e-06	7.322439e-06	5.512477e-09	5.238509e+01	3.628971e+02
1.870000e-06	7.262064e-06	5.499295e-09	5.195316e+01	3.616168e+02
1.880000e-06	7.198942e-06	5.510940e-09	5.150158e+01	3.602662e+02
1.890000e-06	7.133016e-06	5.483728e-09	5.102995e+01	3.588413e+02
1.900000e-06	7.064357e-06	5.478165e-09	5.053875e+01	3.573381e+02
1.910000e-06	6.992863e-06	5.446360e-09	5.002728e+01	3.557534e+02
1.920000e-06	6.918694e-06	5.408995e-09	4.949667e+01	3.540858e+02
1.930000e-06	6.841857e-06	5.376696e-09	4.894697e+01	3.523357e+02
1.940000e-06	6.762297e-06	5.364892e-09	4.837780e+01	3.505059e+02
1.950000e-06	6.680229e-06	5.343848e-09	4.779068e+01	3.486011e+02
1.960000e-06	6.595676e-06	5.289560e-09	4.718579e+01	3.466273e+02
1.970000e-06	6.508634e-06	5.264790e-09	4.656309e+01	3.445908e+02
1.980000e-06	6.419236e-06	5.233528e-09	4.592353e+01	3.424974e+02
1.990000e-06	6.327674e-06	5.208486e-09	4.526848e+01	3.403509e+02
2.000000e-06	6.233846e-06	5.166517e-09	4.459724e+01	3.381528e+02
2.010000e-06	6.137711e-06	5.129010e-09	4.390948e+01	3.359011e+02
2.020000e-06	6.039457e-06	5.095828e-09	4.320657e+01	3.335911e+02
2.030000e-06	5.939078e-06	5.055168e-09	4.248846e+01	3.312150e+02
2.040000e-06	5.836486e-06	5.032466e-09	4.175451e+01	3.287636e+02
2.050000e-06	5.731810e-06	4.998295e-09	4.100565e+01	3.262267e+02
2.060000e-06	5.625301e-06	4.952478e-09	4.024367e+01	3.235951e+02
2.070000e-06	5.516908e-06	4.893344e-09	3.946823e+01	3.208611e+02
2.080000e-06	5.406467e-06	4.852982e-09	3.867813e+01	3.180201e+02
2.090000e-06	5.294005e-06	4.815793e-09	3.787357e+01	3.150705e+02
2.100000e-06	5.179619e-06	4.775281e-09	3.705525e+01	3.120138e+02
2.110000e-06	5.063208e-06	4.732508e-09	3.622244e+01	3.088542e+02
2.120000e-06	4.944748e-06	4.678383e-09	3.537496e+01	3.055971e+02
2.130000e-06	4.824385e-06	4.616803e-09	3.451389e+01	3.022481e+02
2.140000e-06	4.702270e-06	4.563278e-09	3.364027e+01	2.988114e+02
2.150000e-06	4.578529e-06	4.522510e-09	3.275502e+01	2.952889e+02
2.160000e-06	4.453107e-06	4.472297e-09	3.185775e+01	2.916788e+02
2.170000e-06	4.326003e-06	4.413860e-09	3.094844e+01	2.879760e+02
2.180000e-06	4.197285e-06	4.353843e-09	3.002758e+01	2.841717e+02
2.190000e-06	4.067061e-06	4.296873e-09	2.909595e+01	2.802548e+02
2.200000e-06	3.935372e-06	4.233039e-09	2.815384e+01	2.762130e+02
2.210000e-06	3.802149e-06	4.168496e-09	2.720076e+01	2.720344e+02
2.220000e-06	3.667485e-06	4.102837e-09	2.623737e+01	2.677090e+02
2.230000e-06	3.531506e-06	4.029950e-09	2.526457e+01	2.632299e+02
2.240000e-06	3.394147e-06	3.956133e-09	2.428189e+01	2.585940e+02
2.250000e-06	3.255492e-06	3.889235e-09	2.328995e+01	2.538021e+02
2.260000e-06	3.115637e-06	3.822188e-09	2.228942e+01	2.488583e+02
2.270000e-06	2.974490e-06	3.743251e-09	2.127965e+01	2.437686e+02
2.280000e-06	2.832121e-06	3.658851e-09	2.026113e+01	2.385392e+02
2.290000e-06	2.688685e-06	3.576236e-09	1.923498e+01	2.331745e+02
2.300000e-06	2.544314e-06	3.492185e-09	1.820214e+01	2.276758e+02
2.310000e-06	2.399081e-06	3.406880e-09	1.716314e+01	2.220394e+02
2.320000e-06	2.253083e-06	3.321286e-09	1.611866e+01	2.162561e+02
2.330000e-06	2.106342e-06	3.228749e-09	1.506887e+01	2.103116e+02
2.340000e-06	1.958892e-06	3.128643e-09	1.401401e+01	2.041873e+02
2.350000e-06	1.810880e-06	3.030126e-09	1.295513e+01	1.978620e+02
2.360000e-06	1.662310e-06	2.935975e-09	1.189225e+01	1.913138e+02
2.370000e-06	1.513149e-06	2.835228e-09	1.082514e+01	1.845228e+02
2.380000e-06	1.363419e-06	2.724789e-09	9.753965e+00	1.774726e+02
2.390000e-06	1.213218e-06	2.609646e-09	8.679424e+00	1.701518e+02
2.400000e-06	1.062665e-06	2.492801e-09	7.602358e+00	1.625544e+02
2.410000e-06	9.117552e-07	2.372841e-09	6.522741e+00	1.546790e+02
2.420000e-06	7.605677e-07	2.250775e-09	5.441138e+00	1.465273e+02
2.430000e-06	6.091511e-07	2.126969e-09	4.357896e+00	1.381016e+02
2.440000e-06	4.575193e-07	1.995399e-09	3.273115e+00	1.294015e+02
2.450000e-06	3.057298e-07	1.857081e-09	2.187206e+00	1.204215e+02
2.460000e-06	1.537595e-07	1.716111e-09	1.100003e+00	1.111478e+02
2.470000e-06	1.662449e-09	1.572615e-09	1.189324e-02	1.015576e+02
2.480000e-06	-1.504826e-07	1.421513e-09	-1.076560e+00	9.161881e+01
2.490000e-06	-3.025583e-07	1.260797e-09	-2.164517e+00	8.129143e+01
2.500000e-06	-4.544995e-07	1.092754e-09	-3.251512e+00	7.053124e+01
2.510000e-06	-6.063425e-07	9.190923e-10	-4.337804e+00	5.929430e+01
2.520000e-06	-7.579820e-07	7.409767e-10	-5.422640e+00	4.754272e+01
2.530000e-06	-9.093571e-07	5.563799e-10	-6.505585e+00	3.525076e+01
2.540000e-06	-1.060468e-06	3.629158e-10	-7.586637e+00	2.241061e+01
2.550000e-06	-1.211230e-06	1.582100e-10	-8.665201e+00	9.037136e+00
2.560000e-06	-1.361547e-06	-5.464007e-11	-9.740573e+00	-4.829035e+00
2.570000e-06	-1.511305e-06	-2.711619e-10	-1.081195e+01	-1.912063e+01
2.580000e-06	-1.660456e-06	-4.924532e-10	-1.187898e+01	-3.374518e+01
2.590000e-06	-1.809019e-06	-7.205895e-10	-1.294181e+01	-4.858889e+01
2.600000e-06	-1.956977e-06	-9.530796e-10	-1.400031e+01	-6.352248e+01
2.610000e-06	-2.104213e-06	-1.184126e-09	-1.505364e+01	-7.840863e+01
2.620000e-06	-2.250630e-06	-1.411849e-09	-1.610112e+01	-9.311008e+01
2.630000e-06	-2.396169e-06	-1.633845e-09	-1.714231e+01	-1.074978e+02
2.640000e-06	-2.540829e-06	-1.847987e-09	-1.817722e+01	-1.214583e+02
2.650000e-06	-2.684565e-06	-2.056307e-09	-1.920551e+01	-1.348991e+02
2.660000e-06	-2.827182e-06	-2.254836e-09	-2.022580e+01	-1.477530e+02
2.670000e-06	-2.968591e-06	-2.438902e-09	-2.123745e+01	-1.599786e+02
2.680000e-06	-3.108867e-06	-2.610358e-09	-2.224098e+01	-1.715601e+02
2.690000e-06	-3.247956e-06	-2.773399e-09	-2.323603e+01	-1.825037e+02
2.700000e-06	-3.385775e-06	-2.929672e-09	-2.422200e+01	-1.928333e+02
2.710000e-06	-3.522349e-06	-3.080661e-09	-2.519906e+01	-2.025850e+02
2.720000e-06	-3.657614e-06	-3.226260e-09	-2.616675e+01	-2.118014e+02
2.730000e-06	-3.791494e-06	-3.362245e-09	-2.712453e+01	-2.205263e+02
2.740000e-06	-3.924013e-06	-3.490469e-09	-2.807258e+01	-2.288003e+02
2.750000e-06	-4.055195e-06	-3.613308e-09	-2.901106e+01	-2.366585e+02
2.760000e-06	-4.184982e-06	-3.727810e-09	-2.993956e+01	-2.441286e+02
2.770000e-06	-4.313337e-06	-3.833084e-09	-3.085782e+01	-2.512311e+02
2.780000e-06	-4.440238e-06	-3.931481e-09	-3.176568e+01	-2.579813e+02
2.790000e-06	-4.565630e-06	-4.026719e-09	-3.266274e+01	-2.643907e+02
2.800000e-06	-4.689390e-06	-4.119429e-09	-3.354813e+01	-2.704702e+02
2.810000e-06	-4.811434e-06	-4.207528e-09	-3.442123e+01	-2.762320e+02
2.820000e-06	-4.931740e-06	-4.291044e-09	-3.528191e+01	-2.816915e+02
2.830000e-06	-5.050187e-06	-4.371410e-09	-3.612928e+01	-2.868684e+02
2.840000e-06	-5.166670e-06	-4.447790e-09	-3.696261e+01	-2.917863e+02
2.850000e-06	-5.281018e-06	-4.519355e-09	-3.778066e+01	-2.964719e+02
2.860000e-06	-5.393127e-06	-4.590345e-09	-3.858269e+01	-3.009531e+02
2.870000e-06	-5.503235e-06	-4.660225e-09	-3.937041e+01	-3.052565e+02
2.880000e-06	-5.611454e-06	-4.724249e-09	-4.014461e+01	-3.094059e+02
2.890000e-06	-5.717756e-06	-4.783160e-09	-4.090510e+01	-3.134192e+02
2.900000e-06	-5.822023e-06	-4.841063e-09	-4.165103e+01	-3.173083e+02
2.910000e-06	-5.923995e-06	-4.900807e-09	-4.238055e+01	-3.210777e+02
2.920000e-06	-6.023748e-06	-4.959485e-09	-4.309419e+01	-3.247253e+02
2.930000e-06	-6.121448e-06	-5.015950e-09	-4.379314e+01	-3.282437e+02
2.940000e-06	-6.216980e-06	-5.070654e-09	-4.447658e+01	-3.316221e+02
