# Temperatura_=_38.68
# Concentracion g/m^3_=_5000.0
# C_Vs_to_Am_M_A/Vsm_=_65563218390.804596
# pendiente_HvsI_1/m_=_3716.3
# ordenada_HvsI_A/m_=_1297.0
# frecuencia_Hz_=_302505.1644869968

Tiempo_(s)	Campo_(V.s)	Magnetizacion_(V.s)	Campo_(kA/m)	Magnetizacion_(A/m)
0.000000e+00	-7.995778e-06	-5.871964e-09	-5.686388e+01	-3.843811e+02
1.000000e-08	-7.991112e-06	-5.868875e-09	-5.683069e+01	-3.841621e+02
2.000000e-08	-7.983911e-06	-5.862643e-09	-5.677948e+01	-3.838786e+02
3.000000e-08	-7.974035e-06	-5.860417e-09	-5.670924e+01	-3.835397e+02
4.000000e-08	-7.961236e-06	-5.856112e-09	-5.661822e+01	-3.831566e+02
5.000000e-08	-7.945420e-06	-5.846978e-09	-5.650574e+01	-3.827402e+02
6.000000e-08	-7.926969e-06	-5.840337e-09	-5.637452e+01	-3.823008e+02
7.000000e-08	-7.906299e-06	-5.839669e-09	-5.622752e+01	-3.818461e+02
8.000000e-08	-7.883003e-06	-5.879497e-09	-5.606185e+01	-3.813804e+02
9.000000e-08	-7.856504e-06	-5.883626e-09	-5.587340e+01	-3.809044e+02
1.000000e-07	-7.826802e-06	-5.829880e-09	-5.566216e+01	-3.804144e+02
1.100000e-07	-7.794229e-06	-5.803686e-09	-5.543051e+01	-3.799036e+02
1.200000e-07	-7.758926e-06	-5.793007e-09	-5.517944e+01	-3.793621e+02
1.300000e-07	-7.721158e-06	-5.764919e-09	-5.491085e+01	-3.787786e+02
1.400000e-07	-7.681248e-06	-5.718603e-09	-5.462701e+01	-3.781409e+02
1.500000e-07	-7.639075e-06	-5.751316e-09	-5.432710e+01	-3.774379e+02
1.600000e-07	-7.594231e-06	-5.785410e-09	-5.400818e+01	-3.766598e+02
1.700000e-07	-7.546676e-06	-5.717571e-09	-5.366998e+01	-3.757993e+02
1.800000e-07	-7.496313e-06	-5.735799e-09	-5.331181e+01	-3.748519e+02
1.900000e-07	-7.442969e-06	-5.704949e-09	-5.293244e+01	-3.738157e+02
2.000000e-07	-7.386823e-06	-5.647726e-09	-5.253314e+01	-3.726914e+02
2.100000e-07	-7.327920e-06	-5.647721e-09	-5.211424e+01	-3.714815e+02
2.200000e-07	-7.266392e-06	-5.614547e-09	-5.167667e+01	-3.701897e+02
2.300000e-07	-7.202243e-06	-5.610433e-09	-5.122046e+01	-3.688204e+02
2.400000e-07	-7.135257e-06	-5.561659e-09	-5.074407e+01	-3.673780e+02
2.500000e-07	-7.065549e-06	-5.562707e-09	-5.024833e+01	-3.658664e+02
2.600000e-07	-6.993151e-06	-5.557924e-09	-4.973345e+01	-3.642885e+02
2.700000e-07	-6.917912e-06	-5.525639e-09	-4.919837e+01	-3.626465e+02
2.800000e-07	-6.839837e-06	-5.495512e-09	-4.864313e+01	-3.609415e+02
2.900000e-07	-6.759034e-06	-5.470280e-09	-4.806848e+01	-3.591740e+02
3.000000e-07	-6.675796e-06	-5.463835e-09	-4.747651e+01	-3.573437e+02
3.100000e-07	-6.590354e-06	-5.410228e-09	-4.686887e+01	-3.554499e+02
3.200000e-07	-6.502629e-06	-5.382746e-09	-4.624499e+01	-3.534917e+02
3.300000e-07	-6.412524e-06	-5.355184e-09	-4.560418e+01	-3.514676e+02
3.400000e-07	-6.320090e-06	-5.312494e-09	-4.494682e+01	-3.493762e+02
3.500000e-07	-6.225361e-06	-5.276217e-09	-4.427313e+01	-3.472154e+02
3.600000e-07	-6.128342e-06	-5.248110e-09	-4.358316e+01	-3.449831e+02
3.700000e-07	-6.029096e-06	-5.226864e-09	-4.287735e+01	-3.426766e+02
3.800000e-07	-5.927663e-06	-5.188548e-09	-4.215598e+01	-3.402929e+02
3.900000e-07	-5.824072e-06	-5.151091e-09	-4.141927e+01	-3.378291e+02
4.000000e-07	-5.718474e-06	-5.103973e-09	-4.066828e+01	-3.352819e+02
4.100000e-07	-5.610923e-06	-5.061003e-09	-3.990341e+01	-3.326484e+02
4.200000e-07	-5.501344e-06	-5.020908e-09	-3.912411e+01	-3.299258e+02
4.300000e-07	-5.389790e-06	-4.980505e-09	-3.833077e+01	-3.271119e+02
4.400000e-07	-5.276197e-06	-4.933866e-09	-3.752293e+01	-3.242051e+02
4.500000e-07	-5.160489e-06	-4.891430e-09	-3.670004e+01	-3.212040e+02
4.600000e-07	-5.042878e-06	-4.846229e-09	-3.586362e+01	-3.181073e+02
4.700000e-07	-4.923464e-06	-4.791293e-09	-3.501438e+01	-3.149136e+02
4.800000e-07	-4.802210e-06	-4.742738e-09	-3.415206e+01	-3.116212e+02
4.900000e-07	-4.679200e-06	-4.694763e-09	-3.327724e+01	-3.082271e+02
5.000000e-07	-4.554504e-06	-4.637673e-09	-3.239044e+01	-3.047276e+02
5.100000e-07	-4.428176e-06	-4.575697e-09	-3.149202e+01	-3.011177e+02
5.200000e-07	-4.300204e-06	-4.527033e-09	-3.058192e+01	-2.973915e+02
5.300000e-07	-4.170650e-06	-4.471906e-09	-2.966057e+01	-2.935422e+02
5.400000e-07	-4.039581e-06	-4.400370e-09	-2.872844e+01	-2.895629e+02
5.500000e-07	-3.906976e-06	-4.328650e-09	-2.778539e+01	-2.854474e+02
5.600000e-07	-3.772956e-06	-4.271489e-09	-2.683227e+01	-2.811901e+02
5.700000e-07	-3.637533e-06	-4.207465e-09	-2.586918e+01	-2.767874e+02
5.800000e-07	-3.500615e-06	-4.134563e-09	-2.489545e+01	-2.722373e+02
5.900000e-07	-3.362304e-06	-4.067946e-09	-2.391182e+01	-2.675397e+02
6.000000e-07	-3.222662e-06	-3.996639e-09	-2.291873e+01	-2.626958e+02
6.100000e-07	-3.081584e-06	-3.914325e-09	-2.191542e+01	-2.577078e+02
6.200000e-07	-2.939104e-06	-3.831061e-09	-2.090213e+01	-2.525775e+02
6.300000e-07	-2.795436e-06	-3.758145e-09	-1.988041e+01	-2.473054e+02
6.400000e-07	-2.650797e-06	-3.681388e-09	-1.885177e+01	-2.418896e+02
6.500000e-07	-2.505328e-06	-3.595998e-09	-1.781724e+01	-2.363250e+02
6.600000e-07	-2.359026e-06	-3.506883e-09	-1.677677e+01	-2.306026e+02
6.700000e-07	-2.211921e-06	-3.417381e-09	-1.573060e+01	-2.247098e+02
6.800000e-07	-2.064121e-06	-3.323253e-09	-1.467949e+01	-2.186306e+02
6.900000e-07	-1.915674e-06	-3.225720e-09	-1.362377e+01	-2.123469e+02
7.000000e-07	-1.766620e-06	-3.127450e-09	-1.256374e+01	-2.058395e+02
7.100000e-07	-1.617050e-06	-3.022392e-09	-1.150004e+01	-1.990901e+02
7.200000e-07	-1.466955e-06	-2.915129e-09	-1.043260e+01	-1.920827e+02
7.300000e-07	-1.316298e-06	-2.803725e-09	-9.361167e+00	-1.848045e+02
7.400000e-07	-1.165148e-06	-2.689661e-09	-8.286225e+00	-1.772471e+02
7.500000e-07	-1.013567e-06	-2.574163e-09	-7.208224e+00	-1.694061e+02
7.600000e-07	-8.615886e-07	-2.456541e-09	-6.127392e+00	-1.612802e+02
7.700000e-07	-7.093389e-07	-2.331255e-09	-5.044632e+00	-1.528699e+02
7.800000e-07	-5.568688e-07	-2.198031e-09	-3.960305e+00	-1.441752e+02
7.900000e-07	-4.041388e-07	-2.059538e-09	-2.874129e+00	-1.351930e+02
8.000000e-07	-2.512477e-07	-1.913634e-09	-1.786808e+00	-1.259153e+02
8.100000e-07	-9.824510e-08	-1.761867e-09	-6.986933e-01	-1.163268e+02
8.200000e-07	5.488098e-08	-1.604862e-09	3.902991e-01	-1.064044e+02
8.300000e-07	2.080431e-07	-1.446169e-09	1.479548e+00	-9.611710e+01
8.400000e-07	3.611492e-07	-1.283651e-09	2.568398e+00	-8.542801e+01
8.500000e-07	5.141465e-07	-1.115201e-09	3.656475e+00	-7.429697e+01
8.600000e-07	6.669768e-07	-9.412054e-10	4.743364e+00	-6.268487e+01
8.700000e-07	8.195893e-07	-7.611560e-10	5.828704e+00	-5.055864e+01
8.800000e-07	9.718951e-07	-5.701999e-10	6.911863e+00	-3.789661e+01
8.900000e-07	1.123866e-06	-3.705297e-10	7.992642e+00	-2.469357e+01
9.000000e-07	1.275495e-06	-1.643332e-10	9.070987e+00	-1.096508e+01
9.100000e-07	1.426651e-06	5.154046e-11	1.014597e+01	3.249711e+00
9.200000e-07	1.577230e-06	2.759000e-10	1.121684e+01	1.788702e+01
9.300000e-07	1.727191e-06	5.063302e-10	1.228333e+01	3.285949e+01
9.400000e-07	1.876537e-06	7.379960e-10	1.334544e+01	4.805934e+01
9.500000e-07	2.025177e-06	9.718980e-10	1.440253e+01	6.336337e+01
9.600000e-07	2.173081e-06	1.204856e-09	1.545438e+01	7.863953e+01
9.700000e-07	2.320232e-06	1.432345e-09	1.650088e+01	9.375421e+01
9.800000e-07	2.466497e-06	1.654194e-09	1.754108e+01	1.085798e+02
9.900000e-07	2.611835e-06	1.872772e-09	1.857469e+01	1.230018e+02
1.000000e-06	2.756238e-06	2.085602e-09	1.960164e+01	1.369243e+02
1.010000e-06	2.899615e-06	2.286868e-09	2.062130e+01	1.502744e+02
1.020000e-06	3.041888e-06	2.476775e-09	2.163311e+01	1.630037e+02
1.030000e-06	3.182927e-06	2.657693e-09	2.263614e+01	1.750887e+02
1.040000e-06	3.322619e-06	2.830439e-09	2.362960e+01	1.865282e+02
1.050000e-06	3.461038e-06	2.994843e-09	2.461399e+01	1.973398e+02
1.060000e-06	3.598094e-06	3.150745e-09	2.558870e+01	2.075548e+02
1.070000e-06	3.733730e-06	3.298816e-09	2.655331e+01	2.172128e+02
1.080000e-06	3.868012e-06	3.438833e-09	2.750829e+01	2.263567e+02
1.090000e-06	4.000852e-06	3.573352e-09	2.845301e+01	2.350280e+02
1.100000e-06	4.132242e-06	3.700185e-09	2.938742e+01	2.432635e+02
1.110000e-06	4.262240e-06	3.820037e-09	3.031193e+01	2.510930e+02
1.120000e-06	4.390751e-06	3.934169e-09	3.122587e+01	2.585395e+02
1.130000e-06	4.517735e-06	4.041432e-09	3.212895e+01	2.656191e+02
1.140000e-06	4.643210e-06	4.143409e-09	3.302129e+01	2.723436e+02
1.150000e-06	4.767070e-06	4.239468e-09	3.390215e+01	2.787222e+02
1.160000e-06	4.889290e-06	4.329225e-09	3.477135e+01	2.847646e+02
1.170000e-06	5.009791e-06	4.412936e-09	3.562832e+01	2.904827e+02
1.180000e-06	5.128446e-06	4.494132e-09	3.647216e+01	2.958923e+02
1.190000e-06	5.245141e-06	4.572885e-09	3.730206e+01	3.010138e+02
1.200000e-06	5.359805e-06	4.649198e-09	3.811752e+01	3.058715e+02
1.210000e-06	5.472419e-06	4.721317e-09	3.891841e+01	3.104926e+02
1.220000e-06	5.583007e-06	4.789664e-09	3.970488e+01	3.149050e+02
1.230000e-06	5.691654e-06	4.854086e-09	4.047755e+01	3.191353e+02
1.240000e-06	5.798317e-06	4.914684e-09	4.123610e+01	3.232065e+02
1.250000e-06	5.902833e-06	4.972186e-09	4.197940e+01	3.271357e+02
1.260000e-06	6.005147e-06	5.027716e-09	4.270703e+01	3.309336e+02
1.270000e-06	6.105247e-06	5.081669e-09	4.341891e+01	3.346039e+02
1.280000e-06	6.203060e-06	5.133358e-09	4.411453e+01	3.381437e+02
1.290000e-06	6.298549e-06	5.184212e-09	4.479363e+01	3.415453e+02
1.300000e-06	6.391757e-06	5.234914e-09	4.545649e+01	3.447976e+02
1.310000e-06	6.482684e-06	5.282312e-09	4.610315e+01	3.478893e+02
1.320000e-06	6.571276e-06	5.323969e-09	4.673319e+01	3.508104e+02
1.330000e-06	6.657542e-06	5.362562e-09	4.734669e+01	3.535546e+02
1.340000e-06	6.741486e-06	5.400310e-09	4.794368e+01	3.561203e+02
1.350000e-06	6.823067e-06	5.436205e-09	4.852386e+01	3.585115e+02
1.360000e-06	6.902173e-06	5.469669e-09	4.908644e+01	3.607374e+02
1.370000e-06	6.978688e-06	5.500636e-09	4.963060e+01	3.628114e+02
1.380000e-06	7.052545e-06	5.530352e-09	5.015584e+01	3.647496e+02
1.390000e-06	7.123805e-06	5.559533e-09	5.066263e+01	3.665687e+02
1.400000e-06	7.192578e-06	5.587939e-09	5.115172e+01	3.682845e+02
1.410000e-06	7.258741e-06	5.613949e-09	5.162226e+01	3.699098e+02
1.420000e-06	7.322280e-06	5.637873e-09	5.207413e+01	3.714538e+02
1.430000e-06	7.383390e-06	5.660288e-09	5.250873e+01	3.729210e+02
1.440000e-06	7.442028e-06	5.679505e-09	5.292575e+01	3.743120e+02
1.450000e-06	7.498035e-06	5.696630e-09	5.332406e+01	3.756239e+02
1.460000e-06	7.551228e-06	5.712276e-09	5.370235e+01	3.768515e+02
1.470000e-06	7.601308e-06	5.727952e-09	5.405850e+01	3.779892e+02
1.480000e-06	7.648342e-06	5.744210e-09	5.439300e+01	3.790321e+02
1.490000e-06	7.692705e-06	5.759654e-09	5.470850e+01	3.799775e+02
1.500000e-06	7.734364e-06	5.774197e-09	5.500476e+01	3.808258e+02
1.510000e-06	7.773221e-06	5.787472e-09	5.528111e+01	3.815803e+02
1.520000e-06	7.809386e-06	5.799729e-09	5.553830e+01	3.822476e+02
1.530000e-06	7.842703e-06	5.810310e-09	5.577524e+01	3.828361e+02
1.540000e-06	7.873227e-06	5.819191e-09	5.599232e+01	3.833552e+02
1.550000e-06	7.901097e-06	5.826915e-09	5.619053e+01	3.838143e+02
1.560000e-06	7.926040e-06	5.832872e-09	5.636792e+01	3.842207e+02
1.570000e-06	7.948051e-06	5.838671e-09	5.652445e+01	3.845795e+02
1.580000e-06	7.967346e-06	5.844617e-09	5.666167e+01	3.848923e+02
1.590000e-06	7.983820e-06	5.849172e-09	5.677883e+01	3.851577e+02
1.600000e-06	7.997247e-06	5.853395e-09	5.687432e+01	3.853715e+02
1.610000e-06	8.007510e-06	5.857973e-09	5.694731e+01	3.855277e+02
1.620000e-06	8.014708e-06	5.860374e-09	5.699850e+01	3.856198e+02
1.630000e-06	8.019139e-06	5.859945e-09	5.703001e+01	3.856418e+02
1.640000e-06	8.020755e-06	5.858691e-09	5.704150e+01	3.855898e+02
1.650000e-06	8.019510e-06	5.854807e-09	5.703265e+01	3.854628e+02
1.660000e-06	8.015647e-06	5.848732e-09	5.700518e+01	3.852632e+02
1.670000e-06	8.009118e-06	5.845198e-09	5.695874e+01	3.849969e+02
1.680000e-06	7.999895e-06	5.843592e-09	5.689315e+01	3.846723e+02
1.690000e-06	7.987915e-06	5.841379e-09	5.680796e+01	3.843002e+02
1.700000e-06	7.973116e-06	5.840765e-09	5.670271e+01	3.838919e+02
1.710000e-06	7.955810e-06	5.837067e-09	5.657963e+01	3.834577e+02
1.720000e-06	7.936262e-06	5.819264e-09	5.644061e+01	3.830063e+02
1.730000e-06	7.914097e-06	5.746412e-09	5.628298e+01	3.825431e+02
1.740000e-06	7.888650e-06	5.750157e-09	5.610201e+01	3.820698e+02
1.750000e-06	7.859565e-06	5.784660e-09	5.589516e+01	3.815839e+02
1.760000e-06	7.827135e-06	5.770605e-09	5.566453e+01	3.810795e+02
1.770000e-06	7.792211e-06	5.762031e-09	5.541616e+01	3.805475e+02
1.780000e-06	7.754977e-06	5.814652e-09	5.515136e+01	3.799768e+02
1.790000e-06	7.715563e-06	5.805406e-09	5.487105e+01	3.793554e+02
1.800000e-06	7.674151e-06	5.721512e-09	5.457655e+01	3.786717e+02
1.810000e-06	7.630164e-06	5.787506e-09	5.426372e+01	3.779154e+02
1.820000e-06	7.583479e-06	5.752655e-09	5.393171e+01	3.770787e+02
1.830000e-06	7.534056e-06	5.767038e-09	5.358022e+01	3.761560e+02
1.840000e-06	7.481537e-06	5.779719e-09	5.320672e+01	3.751448e+02
1.850000e-06	7.426114e-06	5.724114e-09	5.281257e+01	3.740451e+02
1.860000e-06	7.368023e-06	5.753582e-09	5.239944e+01	3.728588e+02
1.870000e-06	7.307384e-06	5.656971e-09	5.196820e+01	3.715895e+02
1.880000e-06	7.243977e-06	5.667029e-09	5.151726e+01	3.702415e+02
1.890000e-06	7.177705e-06	5.661342e-09	5.104596e+01	3.688192e+02
1.900000e-06	7.108703e-06	5.605499e-09	5.055523e+01	3.673266e+02
1.910000e-06	7.036852e-06	5.610384e-09	5.004424e+01	3.657669e+02
1.920000e-06	6.962312e-06	5.552492e-09	4.951413e+01	3.641426e+02
1.930000e-06	6.885054e-06	5.562793e-09	4.896469e+01	3.624552e+02
1.940000e-06	6.805061e-06	5.513896e-09	4.839581e+01	3.607051e+02
1.950000e-06	6.722588e-06	5.497841e-09	4.780928e+01	3.588924e+02
1.960000e-06	6.637642e-06	5.476691e-09	4.720517e+01	3.570164e+02
1.970000e-06	6.550182e-06	5.420205e-09	4.658317e+01	3.550763e+02
1.980000e-06	6.460349e-06	5.412505e-09	4.594431e+01	3.530707e+02
1.990000e-06	6.368341e-06	5.370283e-09	4.528997e+01	3.509983e+02
2.000000e-06	6.274059e-06	5.358838e-09	4.461946e+01	3.488571e+02
2.010000e-06	6.177495e-06	5.293846e-09	4.393272e+01	3.466451e+02
2.020000e-06	6.078762e-06	5.257480e-09	4.323056e+01	3.443596e+02
2.030000e-06	5.977819e-06	5.225190e-09	4.251268e+01	3.419979e+02
2.040000e-06	5.874692e-06	5.203736e-09	4.177927e+01	3.395569e+02
2.050000e-06	5.769520e-06	5.182891e-09	4.103131e+01	3.370334e+02
2.060000e-06	5.662459e-06	5.128732e-09	4.026992e+01	3.344244e+02
2.070000e-06	5.553500e-06	5.084658e-09	3.949503e+01	3.317271e+02
2.080000e-06	5.442525e-06	5.029122e-09	3.870581e+01	3.289391e+02
2.090000e-06	5.329455e-06	4.984243e-09	3.790169e+01	3.260586e+02
2.100000e-06	5.214362e-06	4.938802e-09	3.708317e+01	3.230841e+02
2.110000e-06	5.097265e-06	4.916558e-09	3.625041e+01	3.200144e+02
2.120000e-06	4.978186e-06	4.864788e-09	3.540355e+01	3.168482e+02
2.130000e-06	4.857209e-06	4.804191e-09	3.454320e+01	3.135837e+02
2.140000e-06	4.734442e-06	4.749395e-09	3.367011e+01	3.102186e+02
2.150000e-06	4.610016e-06	4.706450e-09	3.278523e+01	3.067493e+02
2.160000e-06	4.483918e-06	4.653224e-09	3.188845e+01	3.031711e+02
2.170000e-06	4.356149e-06	4.586439e-09	3.097979e+01	2.994783e+02
2.180000e-06	4.226783e-06	4.530995e-09	3.005977e+01	2.956644e+02
2.190000e-06	4.095907e-06	4.473998e-09	2.912902e+01	2.917226e+02
2.200000e-06	3.963451e-06	4.410597e-09	2.818702e+01	2.876461e+02
2.210000e-06	3.829454e-06	4.344669e-09	2.723407e+01	2.834294e+02
2.220000e-06	3.694048e-06	4.285274e-09	2.627110e+01	2.790681e+02
2.230000e-06	3.557325e-06	4.210169e-09	2.529876e+01	2.745598e+02
2.240000e-06	3.419265e-06	4.135195e-09	2.431691e+01	2.699038e+02
2.250000e-06	3.279829e-06	4.067843e-09	2.332528e+01	2.651011e+02
2.260000e-06	3.139061e-06	4.004309e-09	2.232418e+01	2.601537e+02
2.270000e-06	2.997028e-06	3.923629e-09	2.131407e+01	2.550634e+02
2.280000e-06	2.853858e-06	3.831043e-09	2.029589e+01	2.498315e+02
2.290000e-06	2.709635e-06	3.742551e-09	1.927021e+01	2.444567e+02
2.300000e-06	2.564524e-06	3.654686e-09	1.823822e+01	2.389349e+02
2.310000e-06	2.418613e-06	3.572189e-09	1.720054e+01	2.332583e+02
2.320000e-06	2.271927e-06	3.492419e-09	1.615735e+01	2.274153e+02
2.330000e-06	2.124464e-06	3.403265e-09	1.510863e+01	2.213907e+02
2.340000e-06	1.976189e-06	3.302726e-09	1.405414e+01	2.151669e+02
2.350000e-06	1.827164e-06	3.200535e-09	1.299431e+01	2.087249e+02
2.360000e-06	1.677524e-06	3.101062e-09	1.193011e+01	2.020461e+02
2.370000e-06	1.527380e-06	2.996058e-09	1.086232e+01	1.951134e+02
2.380000e-06	1.376750e-06	2.882861e-09	9.791087e+00	1.879132e+02
2.390000e-06	1.225641e-06	2.765328e-09	8.716434e+00	1.804358e+02
2.400000e-06	1.074169e-06	2.644355e-09	7.639210e+00	1.726756e+02
2.410000e-06	9.224070e-07	2.522199e-09	6.559916e+00	1.646307e+02
2.420000e-06	7.703412e-07	2.399424e-09	5.478465e+00	1.563011e+02
2.430000e-06	6.180211e-07	2.273653e-09	4.395204e+00	1.476874e+02
2.440000e-06	4.655191e-07	2.138643e-09	3.310650e+00	1.387875e+02
2.450000e-06	3.128581e-07	1.997887e-09	2.224965e+00	1.295950e+02
2.460000e-06	1.600782e-07	1.854723e-09	1.138434e+00	1.200969e+02
2.470000e-06	7.188627e-09	1.705348e-09	5.112363e-02	1.102722e+02
2.480000e-06	-1.457560e-07	1.549166e-09	-1.036579e+00	1.000924e+02
2.490000e-06	-2.986581e-07	1.386195e-09	-2.123978e+00	8.952168e+01
2.500000e-06	-4.514781e-07	1.215943e-09	-3.210794e+00	7.852060e+01
2.510000e-06	-6.041619e-07	1.039760e-09	-4.296641e+00	6.704926e+01
2.520000e-06	-7.566628e-07	8.587939e-10	-5.381187e+00	5.507231e+01
2.530000e-06	-9.088636e-07	6.712360e-10	-6.463599e+00	4.256428e+01
2.540000e-06	-1.060741e-06	4.734324e-10	-7.543715e+00	2.951478e+01
2.550000e-06	-1.212299e-06	2.630312e-10	-8.621550e+00	1.593306e+01
2.560000e-06	-1.363433e-06	4.421736e-11	-9.696378e+00	1.851359e+00
2.570000e-06	-1.514086e-06	-1.775941e-10	-1.076778e+01	-1.267358e+01
2.580000e-06	-1.664253e-06	-4.026534e-10	-1.183573e+01	-2.756090e+01
2.590000e-06	-1.813867e-06	-6.327629e-10	-1.289974e+01	-4.270821e+01
2.600000e-06	-1.962773e-06	-8.682089e-10	-1.395872e+01	-5.799613e+01
2.610000e-06	-2.110897e-06	-1.104559e-09	-1.501214e+01	-7.329439e+01
2.620000e-06	-2.258187e-06	-1.338158e-09	-1.605963e+01	-8.846905e+01
2.630000e-06	-2.404599e-06	-1.566434e-09	-1.710087e+01	-1.033901e+02
2.640000e-06	-2.550122e-06	-1.788428e-09	-1.813580e+01	-1.179385e+02
2.650000e-06	-2.694664e-06	-2.004485e-09	-1.916374e+01	-1.320127e+02
2.660000e-06	-2.838180e-06	-2.214264e-09	-2.018439e+01	-1.455327e+02
2.670000e-06	-2.980637e-06	-2.413937e-09	-2.119751e+01	-1.584433e+02
2.680000e-06	-3.121925e-06	-2.601711e-09	-2.220231e+01	-1.707138e+02
2.690000e-06	-3.261945e-06	-2.777569e-09	-2.319809e+01	-1.823371e+02
2.700000e-06	-3.400636e-06	-2.942429e-09	-2.418443e+01	-1.933259e+02
2.710000e-06	-3.538036e-06	-3.100078e-09	-2.516158e+01	-2.037079e+02
2.720000e-06	-3.674094e-06	-3.250185e-09	-2.612919e+01	-2.135212e+02
2.730000e-06	-3.808795e-06	-3.390747e-09	-2.708715e+01	-2.228080e+02
2.740000e-06	-3.942167e-06	-3.525129e-09	-2.803565e+01	-2.316108e+02
2.750000e-06	-4.074157e-06	-3.656483e-09	-2.897434e+01	-2.399678e+02
2.760000e-06	-4.204768e-06	-3.782417e-09	-2.990321e+01	-2.479111e+02
2.770000e-06	-4.333908e-06	-3.899886e-09	-3.082161e+01	-2.554655e+02
2.780000e-06	-4.461495e-06	-4.009903e-09	-3.172898e+01	-2.626490e+02
2.790000e-06	-4.587616e-06	-4.113439e-09	-3.262592e+01	-2.694744e+02
2.800000e-06	-4.712159e-06	-4.209216e-09	-3.351164e+01	-2.759514e+02
2.810000e-06	-4.834991e-06	-4.299259e-09	-3.438518e+01	-2.820892e+02
2.820000e-06	-4.956101e-06	-4.386132e-09	-3.524649e+01	-2.878989e+02
2.830000e-06	-5.075374e-06	-4.470917e-09	-3.609473e+01	-2.933952e+02
2.840000e-06	-5.192670e-06	-4.550653e-09	-3.692891e+01	-2.985971e+02
2.850000e-06	-5.307776e-06	-4.625424e-09	-3.774751e+01	-3.035280e+02
2.860000e-06	-5.420689e-06	-4.699398e-09	-3.855051e+01	-3.082142e+02
2.870000e-06	-5.531544e-06	-4.771272e-09	-3.933889e+01	-3.126839e+02
2.880000e-06	-5.640450e-06	-4.837888e-09	-4.011340e+01	-3.169641e+02
2.890000e-06	-5.747463e-06	-4.900599e-09	-4.087444e+01	-3.210791e+02
2.900000e-06	-5.852430e-06	-4.962625e-09	-4.162095e+01	-3.250479e+02
2.910000e-06	-5.955201e-06	-5.024935e-09	-4.235183e+01	-3.288831e+02
2.920000e-06	-6.055729e-06	-5.083526e-09	-4.306675e+01	-3.325903e+02
2.930000e-06	-6.154079e-06	-5.138179e-09	-4.376619e+01	-3.361684e+02
2.940000e-06	-6.250242e-06	-5.190940e-09	-4.445008e+01	-3.396109e+02
