# Temperatura_=_38.42
# Concentracion g/m^3_=_5000.0
# C_Vs_to_Am_M_A/Vsm_=_65563218390.804596
# pendiente_HvsI_1/m_=_3716.3
# ordenada_HvsI_A/m_=_1297.0
# frecuencia_Hz_=_302503.5659167308

Tiempo_(s)	Campo_(V.s)	Magnetizacion_(V.s)	Campo_(kA/m)	Magnetizacion_(A/m)
0.000000e+00	-7.984199e-06	-5.822051e-09	-5.686375e+01	-3.807674e+02
1.000000e-08	-7.979645e-06	-5.819602e-09	-5.683132e+01	-3.805250e+02
2.000000e-08	-7.972528e-06	-5.813597e-09	-5.678063e+01	-3.802178e+02
3.000000e-08	-7.962662e-06	-5.811007e-09	-5.671036e+01	-3.798573e+02
4.000000e-08	-7.949833e-06	-5.806515e-09	-5.661900e+01	-3.794565e+02
5.000000e-08	-7.934048e-06	-5.797311e-09	-5.650657e+01	-3.790275e+02
6.000000e-08	-7.915688e-06	-5.788522e-09	-5.637582e+01	-3.785808e+02
7.000000e-08	-7.895116e-06	-5.783017e-09	-5.622930e+01	-3.781237e+02
8.000000e-08	-7.871964e-06	-5.817320e-09	-5.606441e+01	-3.776598e+02
9.000000e-08	-7.845637e-06	-5.848667e-09	-5.587691e+01	-3.771886e+02
1.000000e-07	-7.816112e-06	-5.792994e-09	-5.566663e+01	-3.767056e+02
1.100000e-07	-7.783705e-06	-5.749892e-09	-5.543583e+01	-3.762032e+02
1.200000e-07	-7.748553e-06	-5.742958e-09	-5.518547e+01	-3.756712e+02
1.300000e-07	-7.710951e-06	-5.718675e-09	-5.491767e+01	-3.750984e+02
1.400000e-07	-7.671225e-06	-5.665434e-09	-5.463474e+01	-3.744738e+02
1.500000e-07	-7.629276e-06	-5.682856e-09	-5.433598e+01	-3.737871e+02
1.600000e-07	-7.584695e-06	-5.762287e-09	-5.401847e+01	-3.730297e+02
1.700000e-07	-7.537363e-06	-5.660828e-09	-5.368137e+01	-3.721953e+02
1.800000e-07	-7.487155e-06	-5.662760e-09	-5.332379e+01	-3.712799e+02
1.900000e-07	-7.433905e-06	-5.669782e-09	-5.294454e+01	-3.702817e+02
2.000000e-07	-7.377828e-06	-5.573694e-09	-5.254516e+01	-3.692004e+02
2.100000e-07	-7.319078e-06	-5.593635e-09	-5.212674e+01	-3.680372e+02
2.200000e-07	-7.257713e-06	-5.572606e-09	-5.168970e+01	-3.667938e+02
2.300000e-07	-7.193715e-06	-5.559778e-09	-5.123390e+01	-3.654726e+02
2.400000e-07	-7.126921e-06	-5.517445e-09	-5.075819e+01	-3.640757e+02
2.500000e-07	-7.057369e-06	-5.506177e-09	-5.026283e+01	-3.626052e+02
2.600000e-07	-6.985095e-06	-5.513340e-09	-4.974810e+01	-3.610631e+02
2.700000e-07	-6.910037e-06	-5.481575e-09	-4.921353e+01	-3.594512e+02
2.800000e-07	-6.832171e-06	-5.452926e-09	-4.865897e+01	-3.577715e+02
2.900000e-07	-6.751554e-06	-5.414432e-09	-4.808481e+01	-3.560259e+02
3.000000e-07	-6.668504e-06	-5.411479e-09	-4.749333e+01	-3.542163e+02
3.100000e-07	-6.583263e-06	-5.371210e-09	-4.688623e+01	-3.523444e+02
3.200000e-07	-6.495743e-06	-5.323559e-09	-4.626291e+01	-3.504118e+02
3.300000e-07	-6.405789e-06	-5.307778e-09	-4.562226e+01	-3.484188e+02
3.400000e-07	-6.313476e-06	-5.268945e-09	-4.496481e+01	-3.463651e+02
3.500000e-07	-6.218998e-06	-5.230970e-09	-4.429193e+01	-3.442490e+02
3.600000e-07	-6.122216e-06	-5.199252e-09	-4.360264e+01	-3.420674e+02
3.700000e-07	-6.023114e-06	-5.180994e-09	-4.289684e+01	-3.398157e+02
3.800000e-07	-5.921875e-06	-5.147908e-09	-4.217580e+01	-3.374885e+02
3.900000e-07	-5.818565e-06	-5.101482e-09	-4.144003e+01	-3.350800e+02
4.000000e-07	-5.713190e-06	-5.058523e-09	-4.068954e+01	-3.325842e+02
4.100000e-07	-5.605761e-06	-5.020094e-09	-3.992443e+01	-3.299959e+02
4.200000e-07	-5.496410e-06	-4.988906e-09	-3.914563e+01	-3.273113e+02
4.300000e-07	-5.385114e-06	-4.940547e-09	-3.835298e+01	-3.245280e+02
4.400000e-07	-5.271731e-06	-4.888547e-09	-3.754546e+01	-3.216454e+02
4.500000e-07	-5.156306e-06	-4.844503e-09	-3.672340e+01	-3.186645e+02
4.600000e-07	-5.038985e-06	-4.798285e-09	-3.588783e+01	-3.155871e+02
4.700000e-07	-4.919846e-06	-4.745135e-09	-3.503932e+01	-3.124156e+02
4.800000e-07	-4.798858e-06	-4.703309e-09	-3.417764e+01	-3.091516e+02
4.900000e-07	-4.676041e-06	-4.663438e-09	-3.330293e+01	-3.057954e+02
5.000000e-07	-4.551478e-06	-4.602707e-09	-3.241579e+01	-3.023454e+02
5.100000e-07	-4.425295e-06	-4.537715e-09	-3.151711e+01	-2.987976e+02
5.200000e-07	-4.297543e-06	-4.487506e-09	-3.060726e+01	-2.951454e+02
5.300000e-07	-4.168220e-06	-4.436448e-09	-2.968621e+01	-2.913804e+02
5.400000e-07	-4.037459e-06	-4.366334e-09	-2.875493e+01	-2.874927e+02
5.500000e-07	-3.905128e-06	-4.297046e-09	-2.781246e+01	-2.834723e+02
5.600000e-07	-3.771250e-06	-4.241386e-09	-2.685898e+01	-2.793099e+02
5.700000e-07	-3.635995e-06	-4.175434e-09	-2.589569e+01	-2.749979e+02
5.800000e-07	-3.499300e-06	-4.099869e-09	-2.492214e+01	-2.705314e+02
5.900000e-07	-3.361207e-06	-4.031893e-09	-2.393864e+01	-2.659084e+02
6.000000e-07	-3.221718e-06	-3.963020e-09	-2.294519e+01	-2.611295e+02
6.100000e-07	-3.080823e-06	-3.882173e-09	-2.194173e+01	-2.561973e+02
6.200000e-07	-2.938644e-06	-3.803022e-09	-2.092913e+01	-2.511156e+02
6.300000e-07	-2.795276e-06	-3.733369e-09	-1.990806e+01	-2.458875e+02
6.400000e-07	-2.650866e-06	-3.657854e-09	-1.887957e+01	-2.405142e+02
6.500000e-07	-2.505570e-06	-3.570228e-09	-1.784476e+01	-2.349938e+02
6.600000e-07	-2.359432e-06	-3.479261e-09	-1.680396e+01	-2.293201e+02
6.700000e-07	-2.212494e-06	-3.390379e-09	-1.575747e+01	-2.234823e+02
6.800000e-07	-2.064860e-06	-3.297919e-09	-1.470601e+01	-2.174657e+02
6.900000e-07	-1.916595e-06	-3.203500e-09	-1.365006e+01	-2.112522e+02
7.000000e-07	-1.767723e-06	-3.107025e-09	-1.258979e+01	-2.048219e+02
7.100000e-07	-1.618294e-06	-3.001416e-09	-1.152555e+01	-1.981550e+02
7.200000e-07	-1.468371e-06	-2.890578e-09	-1.045779e+01	-1.912338e+02
7.300000e-07	-1.318005e-06	-2.779700e-09	-9.386880e+00	-1.840439e+02
7.400000e-07	-1.167204e-06	-2.668816e-09	-8.312866e+00	-1.765755e+02
7.500000e-07	-1.015939e-06	-2.556316e-09	-7.235553e+00	-1.688235e+02
7.600000e-07	-8.642825e-07	-2.440176e-09	-6.155451e+00	-1.607866e+02
7.700000e-07	-7.123296e-07	-2.315941e-09	-5.073237e+00	-1.524663e+02
7.800000e-07	-5.600590e-07	-2.183821e-09	-3.988760e+00	-1.438639e+02
7.900000e-07	-4.075769e-07	-2.046626e-09	-2.902777e+00	-1.349783e+02
8.000000e-07	-2.549346e-07	-1.903087e-09	-1.815653e+00	-1.258033e+02
8.100000e-07	-1.021368e-07	-1.751659e-09	-7.274222e-01	-1.163254e+02
8.200000e-07	5.069410e-08	-1.594554e-09	3.610452e-01	-1.065224e+02
8.300000e-07	2.035327e-07	-1.436253e-09	1.449567e+00	-9.636372e+01
8.400000e-07	3.563499e-07	-1.276737e-09	2.537937e+00	-8.581170e+01
8.500000e-07	5.091126e-07	-1.111548e-09	3.625918e+00	-7.482462e+01
8.600000e-07	6.617273e-07	-9.388334e-10	4.712845e+00	-6.336105e+01
8.700000e-07	8.140690e-07	-7.595552e-10	5.797829e+00	-5.138502e+01
8.800000e-07	9.661672e-07	-5.706649e-10	6.881078e+00	-3.887174e+01
8.900000e-07	1.117913e-06	-3.747149e-10	7.961814e+00	-2.581297e+01
9.000000e-07	1.269154e-06	-1.710252e-10	9.038963e+00	-1.222160e+01
9.100000e-07	1.419933e-06	4.197705e-11	1.011281e+01	1.865274e+00
9.200000e-07	1.570262e-06	2.649615e-10	1.118346e+01	1.638521e+01
9.300000e-07	1.720037e-06	4.952636e-10	1.225017e+01	3.125141e+01
9.400000e-07	1.869194e-06	7.268069e-10	1.331247e+01	4.635600e+01
9.500000e-07	2.017686e-06	9.590499e-10	1.437003e+01	6.157518e+01
9.600000e-07	2.165441e-06	1.188233e-09	1.542235e+01	7.677590e+01
9.700000e-07	2.312392e-06	1.414133e-09	1.646894e+01	9.182351e+01
9.800000e-07	2.458497e-06	1.636473e-09	1.750950e+01	1.065894e+02
9.900000e-07	2.603728e-06	1.854095e-09	1.854384e+01	1.209580e+02
1.000000e-06	2.747954e-06	2.065120e-09	1.957103e+01	1.348328e+02
1.010000e-06	2.891098e-06	2.265542e-09	2.059051e+01	1.481402e+02
1.020000e-06	3.033118e-06	2.454473e-09	2.160197e+01	1.608315e+02
1.030000e-06	3.173934e-06	2.635126e-09	2.260487e+01	1.728823e+02
1.040000e-06	3.313473e-06	2.808079e-09	2.359867e+01	1.842906e+02
1.050000e-06	3.451702e-06	2.971610e-09	2.458314e+01	1.950727e+02
1.060000e-06	3.588574e-06	3.126171e-09	2.555795e+01	2.052584e+02
1.070000e-06	3.724039e-06	3.273195e-09	2.652274e+01	2.148855e+02
1.080000e-06	3.858171e-06	3.412600e-09	2.747803e+01	2.239951e+02
1.090000e-06	3.990992e-06	3.545260e-09	2.842399e+01	2.326268e+02
1.100000e-06	4.122356e-06	3.670689e-09	2.935957e+01	2.408159e+02
1.110000e-06	4.252242e-06	3.790939e-09	3.028462e+01	2.485916e+02
1.120000e-06	4.380637e-06	3.905317e-09	3.119905e+01	2.559766e+02
1.130000e-06	4.507462e-06	4.012260e-09	3.210230e+01	2.629883e+02
1.140000e-06	4.632796e-06	4.112994e-09	3.299494e+01	2.696402e+02
1.150000e-06	4.756562e-06	4.208147e-09	3.387641e+01	2.759444e+02
1.160000e-06	4.878649e-06	4.295956e-09	3.474591e+01	2.819137e+02
1.170000e-06	4.998975e-06	4.376829e-09	3.560288e+01	2.875636e+02
1.180000e-06	5.117491e-06	4.455340e-09	3.644695e+01	2.929132e+02
1.190000e-06	5.234176e-06	4.534405e-09	3.727799e+01	2.979854e+02
1.200000e-06	5.348822e-06	4.611604e-09	3.809450e+01	3.028061e+02
1.210000e-06	5.461352e-06	4.683242e-09	3.889595e+01	3.074031e+02
1.220000e-06	5.571829e-06	4.749874e-09	3.968276e+01	3.118034e+02
1.230000e-06	5.680367e-06	4.813127e-09	4.045578e+01	3.160315e+02
1.240000e-06	5.786926e-06	4.874772e-09	4.121470e+01	3.201073e+02
1.250000e-06	5.891296e-06	4.933120e-09	4.195802e+01	3.240444e+02
1.260000e-06	5.993487e-06	4.990723e-09	4.268583e+01	3.278498e+02
1.270000e-06	6.093509e-06	5.045280e-09	4.339819e+01	3.315235e+02
1.280000e-06	6.191246e-06	5.095257e-09	4.409428e+01	3.350603e+02
1.290000e-06	6.286617e-06	5.143914e-09	4.477351e+01	3.384505e+02
1.300000e-06	6.379740e-06	5.192546e-09	4.543674e+01	3.416832e+02
1.310000e-06	6.470633e-06	5.239894e-09	4.608408e+01	3.447476e+02
1.320000e-06	6.559156e-06	5.281747e-09	4.671454e+01	3.476358e+02
1.330000e-06	6.645310e-06	5.320231e-09	4.732814e+01	3.503442e+02
1.340000e-06	6.729227e-06	5.357637e-09	4.792580e+01	3.528740e+02
1.350000e-06	6.810829e-06	5.392947e-09	4.850697e+01	3.552321e+02
1.360000e-06	6.889919e-06	5.426348e-09	4.907025e+01	3.574298e+02
1.370000e-06	6.966401e-06	5.457262e-09	4.961496e+01	3.594816e+02
1.380000e-06	7.040225e-06	5.486765e-09	5.014074e+01	3.614036e+02
1.390000e-06	7.111456e-06	5.514593e-09	5.064805e+01	3.632115e+02
1.400000e-06	7.180210e-06	5.541600e-09	5.113772e+01	3.649191e+02
1.410000e-06	7.246356e-06	5.567585e-09	5.160881e+01	3.665366e+02
1.420000e-06	7.309880e-06	5.591483e-09	5.206123e+01	3.680703e+02
1.430000e-06	7.371018e-06	5.612825e-09	5.249665e+01	3.695224e+02
1.440000e-06	7.429587e-06	5.631660e-09	5.291379e+01	3.708914e+02
1.450000e-06	7.485488e-06	5.649476e-09	5.331191e+01	3.721738e+02
1.460000e-06	7.538690e-06	5.666003e-09	5.369082e+01	3.733647e+02
1.470000e-06	7.588852e-06	5.680737e-09	5.404808e+01	3.744603e+02
1.480000e-06	7.635967e-06	5.693853e-09	5.438363e+01	3.754583e+02
1.490000e-06	7.680374e-06	5.707010e-09	5.469990e+01	3.763593e+02
1.500000e-06	7.722099e-06	5.720841e-09	5.499707e+01	3.771673e+02
1.510000e-06	7.761017e-06	5.734544e-09	5.527425e+01	3.778891e+02
1.520000e-06	7.797227e-06	5.747100e-09	5.553213e+01	3.785336e+02
1.530000e-06	7.830673e-06	5.757210e-09	5.577033e+01	3.791111e+02
1.540000e-06	7.861245e-06	5.764655e-09	5.598807e+01	3.796312e+02
1.550000e-06	7.889068e-06	5.771805e-09	5.618623e+01	3.801021e+02
1.560000e-06	7.914016e-06	5.779508e-09	5.636390e+01	3.805290e+02
1.570000e-06	7.936093e-06	5.786643e-09	5.652114e+01	3.809136e+02
1.580000e-06	7.955508e-06	5.792425e-09	5.665942e+01	3.812540e+02
1.590000e-06	7.972053e-06	5.795445e-09	5.677725e+01	3.815451e+02
1.600000e-06	7.985527e-06	5.797742e-09	5.687321e+01	3.817795e+02
1.610000e-06	7.995876e-06	5.801780e-09	5.694692e+01	3.819487e+02
1.620000e-06	8.003131e-06	5.805854e-09	5.699858e+01	3.820448e+02
1.630000e-06	8.007565e-06	5.807185e-09	5.703017e+01	3.820618e+02
1.640000e-06	8.009156e-06	5.807312e-09	5.704150e+01	3.819969e+02
1.650000e-06	8.007920e-06	5.805917e-09	5.703269e+01	3.818507e+02
1.660000e-06	8.004115e-06	5.797147e-09	5.700560e+01	3.816283e+02
1.670000e-06	7.997635e-06	5.793325e-09	5.695944e+01	3.813379e+02
1.680000e-06	7.988485e-06	5.792408e-09	5.689428e+01	3.809909e+02
1.690000e-06	7.976674e-06	5.790346e-09	5.681016e+01	3.805998e+02
1.700000e-06	7.962027e-06	5.787354e-09	5.670584e+01	3.801772e+02
1.710000e-06	7.944792e-06	5.783196e-09	5.658309e+01	3.797342e+02
1.720000e-06	7.925297e-06	5.773201e-09	5.644425e+01	3.792790e+02
1.730000e-06	7.903274e-06	5.698612e-09	5.628740e+01	3.788165e+02
1.740000e-06	7.878014e-06	5.678750e-09	5.610750e+01	3.783472e+02
1.750000e-06	7.849076e-06	5.729882e-09	5.590140e+01	3.778678e+02
1.760000e-06	7.816783e-06	5.724488e-09	5.567141e+01	3.773713e+02
1.770000e-06	7.781985e-06	5.703242e-09	5.542358e+01	3.768484e+02
1.780000e-06	7.744950e-06	5.760879e-09	5.515981e+01	3.762880e+02
1.790000e-06	7.705657e-06	5.781237e-09	5.487997e+01	3.756788e+02
1.800000e-06	7.664292e-06	5.644367e-09	5.458536e+01	3.750103e+02
1.810000e-06	7.620444e-06	5.704465e-09	5.427308e+01	3.742733e+02
1.820000e-06	7.573933e-06	5.696426e-09	5.394182e+01	3.734610e+02
1.830000e-06	7.524734e-06	5.661913e-09	5.359143e+01	3.725686e+02
1.840000e-06	7.472461e-06	5.741582e-09	5.321914e+01	3.715936e+02
1.850000e-06	7.417242e-06	5.655042e-09	5.282586e+01	3.705355e+02
1.860000e-06	7.359341e-06	5.683751e-09	5.241349e+01	3.693950e+02
1.870000e-06	7.298893e-06	5.614210e-09	5.198298e+01	3.681739e+02
1.880000e-06	7.235695e-06	5.590912e-09	5.153288e+01	3.668742e+02
1.890000e-06	7.169587e-06	5.633708e-09	5.106206e+01	3.654982e+02
1.900000e-06	7.100725e-06	5.543519e-09	5.057162e+01	3.640480e+02
1.910000e-06	7.029070e-06	5.548685e-09	5.006129e+01	3.625257e+02
1.920000e-06	6.954741e-06	5.486222e-09	4.953191e+01	3.609331e+02
1.930000e-06	6.877677e-06	5.493580e-09	4.898306e+01	3.592721e+02
1.940000e-06	6.797853e-06	5.474976e-09	4.841455e+01	3.575446e+02
1.950000e-06	6.715582e-06	5.431043e-09	4.782862e+01	3.557526e+02
1.960000e-06	6.630860e-06	5.439734e-09	4.722522e+01	3.538979e+02
1.970000e-06	6.543572e-06	5.361238e-09	4.660355e+01	3.519821e+02
1.980000e-06	6.453903e-06	5.346614e-09	4.596493e+01	3.500058e+02
1.990000e-06	6.362081e-06	5.309736e-09	4.531097e+01	3.479692e+02
2.000000e-06	6.268024e-06	5.301986e-09	4.464109e+01	3.458707e+02
2.010000e-06	6.171669e-06	5.253010e-09	4.395485e+01	3.437076e+02
2.020000e-06	6.073161e-06	5.203591e-09	4.325327e+01	3.414760e+02
2.030000e-06	5.972498e-06	5.183463e-09	4.253634e+01	3.391705e+02
2.040000e-06	5.869620e-06	5.151758e-09	4.180364e+01	3.367854e+02
2.050000e-06	5.764649e-06	5.132660e-09	4.105604e+01	3.343146e+02
2.060000e-06	5.657778e-06	5.068366e-09	4.029490e+01	3.317527e+02
2.070000e-06	5.548961e-06	5.028341e-09	3.951990e+01	3.290955e+02
2.080000e-06	5.438131e-06	4.979265e-09	3.873056e+01	3.263400e+02
2.090000e-06	5.325295e-06	4.935964e-09	3.792694e+01	3.234853e+02
2.100000e-06	5.210412e-06	4.895234e-09	3.710874e+01	3.205318e+02
2.110000e-06	5.093435e-06	4.870369e-09	3.627563e+01	3.174813e+02
2.120000e-06	4.974464e-06	4.815908e-09	3.542831e+01	3.143360e+02
2.130000e-06	4.853650e-06	4.747152e-09	3.456787e+01	3.110978e+02
2.140000e-06	4.731114e-06	4.698327e-09	3.369517e+01	3.077675e+02
2.150000e-06	4.606940e-06	4.659877e-09	3.281079e+01	3.043442e+02
2.160000e-06	4.481034e-06	4.613955e-09	3.191408e+01	3.008244e+02
2.170000e-06	4.353464e-06	4.544275e-09	3.100553e+01	2.972023e+02
2.180000e-06	4.224330e-06	4.489531e-09	3.008583e+01	2.934700e+02
2.190000e-06	4.093721e-06	4.429531e-09	2.915563e+01	2.896179e+02
2.200000e-06	3.961610e-06	4.364867e-09	2.821473e+01	2.856360e+02
2.210000e-06	3.827929e-06	4.304179e-09	2.726265e+01	2.815145e+02
2.220000e-06	3.692753e-06	4.252108e-09	2.629992e+01	2.772454e+02
2.230000e-06	3.556232e-06	4.183187e-09	2.532761e+01	2.728229e+02
2.240000e-06	3.418361e-06	4.108039e-09	2.434569e+01	2.682442e+02
2.250000e-06	3.279190e-06	4.040320e-09	2.335451e+01	2.635091e+02
2.260000e-06	3.138729e-06	3.973634e-09	2.235414e+01	2.586199e+02
2.270000e-06	2.996913e-06	3.891503e-09	2.134412e+01	2.535801e+02
2.280000e-06	2.853981e-06	3.799797e-09	2.032616e+01	2.483931e+02
2.290000e-06	2.710049e-06	3.715264e-09	1.930107e+01	2.430609e+02
2.300000e-06	2.565144e-06	3.630727e-09	1.826905e+01	2.375824e+02
2.310000e-06	2.419376e-06	3.549707e-09	1.723089e+01	2.319529e+02
2.320000e-06	2.272903e-06	3.469158e-09	1.618769e+01	2.261629e+02
2.330000e-06	2.125660e-06	3.380332e-09	1.513902e+01	2.201986e+02
2.340000e-06	1.977620e-06	3.279748e-09	1.408468e+01	2.140429e+02
2.350000e-06	1.828922e-06	3.179019e-09	1.302565e+01	2.076761e+02
2.360000e-06	1.679631e-06	3.082268e-09	1.196239e+01	2.010782e+02
2.370000e-06	1.529738e-06	2.980574e-09	1.089485e+01	1.942309e+02
2.380000e-06	1.379263e-06	2.870219e-09	9.823158e+00	1.871185e+02
2.390000e-06	1.228365e-06	2.753165e-09	8.748460e+00	1.797299e+02
2.400000e-06	1.077126e-06	2.630391e-09	7.671330e+00	1.720586e+02
2.410000e-06	9.255335e-07	2.506655e-09	6.591683e+00	1.641026e+02
2.420000e-06	7.736441e-07	2.386514e-09	5.509921e+00	1.558626e+02
2.430000e-06	6.215821e-07	2.265786e-09	4.426930e+00	1.473403e+02
2.440000e-06	4.693389e-07	2.136090e-09	3.342649e+00	1.385355e+02
2.450000e-06	3.168642e-07	1.997681e-09	2.256719e+00	1.294438e+02
2.460000e-06	1.642355e-07	1.855167e-09	1.169691e+00	1.200538e+02
2.470000e-06	1.150502e-08	1.707074e-09	8.193916e-02	1.103459e+02
2.480000e-06	-1.413195e-07	1.551672e-09	-1.006482e+00	1.002920e+02
2.490000e-06	-2.941441e-07	1.390550e-09	-2.094905e+00	8.985599e+01
2.500000e-06	-4.468286e-07	1.222736e-09	-3.182330e+00	7.899707e+01
2.510000e-06	-5.993166e-07	1.047931e-09	-4.268354e+00	6.767317e+01
2.520000e-06	-7.516160e-07	8.694121e-10	-5.353036e+00	5.584620e+01
2.530000e-06	-9.036324e-07	6.868357e-10	-6.435703e+00	4.348760e+01
2.540000e-06	-1.055363e-06	4.924786e-10	-7.516337e+00	3.058388e+01
2.550000e-06	-1.206818e-06	2.842359e-10	-8.594998e+00	1.714152e+01
2.560000e-06	-1.357866e-06	6.912110e-11	-9.670768e+00	3.190468e+00
2.570000e-06	-1.508400e-06	-1.506837e-10	-1.074288e+01	-1.121405e+01
2.580000e-06	-1.658341e-06	-3.769727e-10	-1.181076e+01	-2.599197e+01
2.590000e-06	-1.807664e-06	-6.089471e-10	-1.287425e+01	-4.104098e+01
2.600000e-06	-1.956296e-06	-8.421989e-10	-1.393281e+01	-5.624121e+01
2.610000e-06	-2.104169e-06	-1.075458e-09	-1.498597e+01	-7.146150e+01
2.620000e-06	-2.251232e-06	-1.308375e-09	-1.603336e+01	-8.656687e+01
2.630000e-06	-2.397472e-06	-1.536008e-09	-1.707488e+01	-1.014262e+02
2.640000e-06	-2.542848e-06	-1.755205e-09	-1.811025e+01	-1.159196e+02
2.650000e-06	-2.687235e-06	-1.968989e-09	-1.913859e+01	-1.299445e+02
2.660000e-06	-2.830585e-06	-2.180093e-09	-2.015953e+01	-1.434206e+02
2.670000e-06	-2.972829e-06	-2.381561e-09	-2.117260e+01	-1.562919e+02
2.680000e-06	-3.113860e-06	-2.569436e-09	-2.217702e+01	-1.685273e+02
2.690000e-06	-3.253611e-06	-2.744280e-09	-2.317233e+01	-1.801187e+02
2.700000e-06	-3.392082e-06	-2.909023e-09	-2.415853e+01	-1.910776e+02
2.710000e-06	-3.529333e-06	-3.067964e-09	-2.513604e+01	-2.014306e+02
2.720000e-06	-3.665271e-06	-3.218523e-09	-2.610419e+01	-2.112137e+02
2.730000e-06	-3.799835e-06	-3.359943e-09	-2.706256e+01	-2.204675e+02
2.740000e-06	-3.933103e-06	-3.492303e-09	-2.801170e+01	-2.292324e+02
2.750000e-06	-4.064967e-06	-3.620268e-09	-2.895084e+01	-2.375451e+02
2.760000e-06	-4.195381e-06	-3.743789e-09	-2.987965e+01	-2.454368e+02
2.770000e-06	-4.324397e-06	-3.860341e-09	-3.079851e+01	-2.529320e+02
2.780000e-06	-4.451920e-06	-3.971909e-09	-3.170673e+01	-2.600493e+02
2.790000e-06	-4.577909e-06	-4.075831e-09	-3.260403e+01	-2.668032e+02
2.800000e-06	-4.702264e-06	-4.171453e-09	-3.348970e+01	-2.732060e+02
2.810000e-06	-4.824933e-06	-4.261288e-09	-3.436335e+01	-2.792700e+02
2.820000e-06	-4.945941e-06	-4.348162e-09	-3.522517e+01	-2.850099e+02
2.830000e-06	-5.065119e-06	-4.431761e-09	-3.607396e+01	-2.904436e+02
2.840000e-06	-5.182259e-06	-4.509786e-09	-3.690823e+01	-2.955930e+02
2.850000e-06	-5.297236e-06	-4.584365e-09	-3.772711e+01	-3.004833e+02
2.860000e-06	-5.410062e-06	-4.658956e-09	-3.853065e+01	-3.051418e+02
2.870000e-06	-5.520773e-06	-4.730789e-09	-3.931915e+01	-3.095962e+02
2.880000e-06	-5.629455e-06	-4.797581e-09	-4.009318e+01	-3.138717e+02
2.890000e-06	-5.736260e-06	-4.859506e-09	-4.085385e+01	-3.179898e+02
2.900000e-06	-5.841103e-06	-4.919150e-09	-4.160055e+01	-3.219660e+02
2.910000e-06	-5.943753e-06	-4.979753e-09	-4.233162e+01	-3.258092e+02
2.920000e-06	-6.044158e-06	-5.039193e-09	-4.304671e+01	-3.295214e+02
2.930000e-06	-6.142370e-06	-5.096623e-09	-4.374618e+01	-3.330985e+02
2.940000e-06	-6.238390e-06	-5.149733e-09	-4.443004e+01	-3.365322e+02
