# Temperatura_=_31.61
# Concentracion g/m^3_=_5000.0
# C_Vs_to_Am_M_A/Vsm_=_65563218390.804596
# pendiente_HvsI_1/m_=_3716.3
# ordenada_HvsI_A/m_=_1297.0
# frecuencia_Hz_=_302501.51461210125

Tiempo_(s)	Campo_(V.s)	Magnetizacion_(V.s)	Campo_(kA/m)	Magnetizacion_(A/m)
0.000000e+00	-7.937559e-06	-5.617183e-09	-5.686379e+01	-3.678065e+02
1.000000e-08	-7.933203e-06	-5.616201e-09	-5.683258e+01	-3.675906e+02
2.000000e-08	-7.926296e-06	-5.608741e-09	-5.678311e+01	-3.673062e+02
3.000000e-08	-7.916640e-06	-5.607485e-09	-5.671393e+01	-3.669650e+02
4.000000e-08	-7.904079e-06	-5.605817e-09	-5.662395e+01	-3.665809e+02
5.000000e-08	-7.888581e-06	-5.598616e-09	-5.651292e+01	-3.661678e+02
6.000000e-08	-7.870384e-06	-5.587254e-09	-5.638256e+01	-3.657384e+02
7.000000e-08	-7.849953e-06	-5.572067e-09	-5.623619e+01	-3.653023e+02
8.000000e-08	-7.827019e-06	-5.602728e-09	-5.607189e+01	-3.648647e+02
9.000000e-08	-7.800964e-06	-5.662785e-09	-5.588524e+01	-3.644261e+02
1.000000e-07	-7.771758e-06	-5.605416e-09	-5.567601e+01	-3.639818e+02
1.100000e-07	-7.739679e-06	-5.544328e-09	-5.544620e+01	-3.635231e+02
1.200000e-07	-7.704857e-06	-5.539704e-09	-5.519674e+01	-3.630376e+02
1.300000e-07	-7.667538e-06	-5.517616e-09	-5.492939e+01	-3.625111e+02
1.400000e-07	-7.628084e-06	-5.458179e-09	-5.464674e+01	-3.619290e+02
1.500000e-07	-7.586458e-06	-5.470134e-09	-5.434854e+01	-3.612778e+02
1.600000e-07	-7.542233e-06	-5.594644e-09	-5.403172e+01	-3.605466e+02
1.700000e-07	-7.495271e-06	-5.457943e-09	-5.369529e+01	-3.597275e+02
1.800000e-07	-7.445514e-06	-5.450032e-09	-5.333884e+01	-3.588164e+02
1.900000e-07	-7.392769e-06	-5.490196e-09	-5.296097e+01	-3.578130e+02
2.000000e-07	-7.337125e-06	-5.367174e-09	-5.256235e+01	-3.567201e+02
2.100000e-07	-7.278783e-06	-5.410171e-09	-5.214440e+01	-3.555427e+02
2.200000e-07	-7.217857e-06	-5.394639e-09	-5.170793e+01	-3.542874e+02
2.300000e-07	-7.154335e-06	-5.380464e-09	-5.125286e+01	-3.529613e+02
2.400000e-07	-7.088067e-06	-5.332595e-09	-5.077812e+01	-3.515706e+02
2.500000e-07	-7.019116e-06	-5.307463e-09	-5.028417e+01	-3.501210e+02
2.600000e-07	-6.947452e-06	-5.323941e-09	-4.977077e+01	-3.486160e+02
2.700000e-07	-6.873001e-06	-5.281536e-09	-4.923742e+01	-3.470578e+02
2.800000e-07	-6.795772e-06	-5.253868e-09	-4.868416e+01	-3.454468e+02
2.900000e-07	-6.715722e-06	-5.214247e-09	-4.811068e+01	-3.437824e+02
3.000000e-07	-6.633214e-06	-5.223491e-09	-4.751961e+01	-3.420627e+02
3.100000e-07	-6.548531e-06	-5.197812e-09	-4.691295e+01	-3.402854e+02
3.200000e-07	-6.461528e-06	-5.138233e-09	-4.628967e+01	-3.384481e+02
3.300000e-07	-6.372178e-06	-5.129923e-09	-4.564958e+01	-3.365481e+02
3.400000e-07	-6.280536e-06	-5.088173e-09	-4.499306e+01	-3.345831e+02
3.500000e-07	-6.186662e-06	-5.051931e-09	-4.432056e+01	-3.325505e+02
3.600000e-07	-6.090554e-06	-5.022056e-09	-4.363205e+01	-3.304480e+02
3.700000e-07	-5.992144e-06	-5.010044e-09	-4.292705e+01	-3.282730e+02
3.800000e-07	-5.891574e-06	-4.980833e-09	-4.220658e+01	-3.260227e+02
3.900000e-07	-5.788886e-06	-4.923451e-09	-4.147094e+01	-3.236942e+02
4.000000e-07	-5.684154e-06	-4.879442e-09	-4.072065e+01	-3.212845e+02
4.100000e-07	-5.577479e-06	-4.840391e-09	-3.995644e+01	-3.187908e+02
4.200000e-07	-5.468852e-06	-4.819658e-09	-3.917825e+01	-3.162103e+02
4.300000e-07	-5.358294e-06	-4.775010e-09	-3.838622e+01	-3.135408e+02
4.400000e-07	-5.245758e-06	-4.727270e-09	-3.758002e+01	-3.107807e+02
4.500000e-07	-5.131187e-06	-4.687129e-09	-3.675925e+01	-3.079288e+02
4.600000e-07	-5.014584e-06	-4.643488e-09	-3.592392e+01	-3.049844e+02
4.700000e-07	-4.896124e-06	-4.587878e-09	-3.507529e+01	-3.019467e+02
4.800000e-07	-4.775843e-06	-4.540910e-09	-3.421361e+01	-2.988148e+02
4.900000e-07	-4.653823e-06	-4.501967e-09	-3.333947e+01	-2.955871e+02
5.000000e-07	-4.530099e-06	-4.441101e-09	-3.245312e+01	-2.922609e+02
5.100000e-07	-4.404703e-06	-4.379757e-09	-3.155480e+01	-2.888322e+02
5.200000e-07	-4.277732e-06	-4.331840e-09	-3.064520e+01	-2.852956e+02
5.300000e-07	-4.149140e-06	-4.285352e-09	-2.972398e+01	-2.816447e+02
5.400000e-07	-4.019157e-06	-4.217607e-09	-2.879280e+01	-2.778724e+02
5.500000e-07	-3.887662e-06	-4.149241e-09	-2.785078e+01	-2.739712e+02
5.600000e-07	-3.754626e-06	-4.095902e-09	-2.689772e+01	-2.699344e+02
5.700000e-07	-3.620222e-06	-4.034304e-09	-2.593487e+01	-2.657565e+02
5.800000e-07	-3.484395e-06	-3.961932e-09	-2.496182e+01	-2.614337e+02
5.900000e-07	-3.347223e-06	-3.893904e-09	-2.397913e+01	-2.569643e+02
6.000000e-07	-3.208748e-06	-3.828850e-09	-2.298711e+01	-2.523486e+02
6.100000e-07	-3.068904e-06	-3.750332e-09	-2.198528e+01	-2.475883e+02
6.200000e-07	-2.927680e-06	-3.672236e-09	-2.097357e+01	-2.426861e+02
6.300000e-07	-2.785250e-06	-3.603781e-09	-1.995322e+01	-2.376443e+02
6.400000e-07	-2.641831e-06	-3.531360e-09	-1.892578e+01	-2.324638e+02
6.500000e-07	-2.497545e-06	-3.447276e-09	-1.789213e+01	-2.271431e+02
6.600000e-07	-2.352264e-06	-3.357138e-09	-1.685136e+01	-2.216775e+02
6.700000e-07	-2.205993e-06	-3.270125e-09	-1.580349e+01	-2.160584e+02
6.800000e-07	-2.059047e-06	-3.181902e-09	-1.475079e+01	-2.102736e+02
6.900000e-07	-1.911540e-06	-3.091978e-09	-1.369406e+01	-2.043079e+02
7.000000e-07	-1.763403e-06	-2.999053e-09	-1.263282e+01	-1.981442e+02
7.100000e-07	-1.614720e-06	-2.901052e-09	-1.156767e+01	-1.917647e+02
7.200000e-07	-1.465619e-06	-2.797802e-09	-1.049953e+01	-1.851527e+02
7.300000e-07	-1.316059e-06	-2.691748e-09	-9.428103e+00	-1.782939e+02
7.400000e-07	-1.166051e-06	-2.584316e-09	-8.353462e+00	-1.711773e+02
7.500000e-07	-1.015639e-06	-2.476126e-09	-7.275923e+00	-1.637959e+02
7.600000e-07	-8.648434e-07	-2.365793e-09	-6.195642e+00	-1.561463e+02
7.700000e-07	-7.137312e-07	-2.245931e-09	-5.113091e+00	-1.482277e+02
7.800000e-07	-5.623530e-07	-2.118775e-09	-4.028635e+00	-1.400400e+02
7.900000e-07	-4.108153e-07	-1.987055e-09	-2.943035e+00	-1.315823e+02
8.000000e-07	-2.591837e-07	-1.851728e-09	-1.856763e+00	-1.228499e+02
8.100000e-07	-1.074483e-07	-1.710739e-09	-7.697475e-01	-1.138330e+02
8.200000e-07	4.443149e-08	-1.565308e-09	3.183022e-01	-1.045149e+02
8.300000e-07	1.963752e-07	-1.417841e-09	1.406810e+00	-9.487160e+01
8.400000e-07	3.482275e-07	-1.265581e-09	2.494663e+00	-8.487291e+01
8.500000e-07	4.999311e-07	-1.106315e-09	3.581451e+00	-7.448419e+01
8.600000e-07	6.515257e-07	-9.409204e-10	4.667458e+00	-6.366977e+01
8.700000e-07	8.029694e-07	-7.722105e-10	5.752384e+00	-5.239716e+01
8.800000e-07	9.541774e-07	-5.941883e-10	6.835621e+00	-4.064182e+01
8.900000e-07	1.105096e-06	-4.079473e-10	7.916783e+00	-2.839201e+01
9.000000e-07	1.255645e-06	-2.165460e-10	8.995303e+00	-1.565313e+01
9.100000e-07	1.405728e-06	-2.105377e-11	1.007048e+01	-2.450925e+00
9.200000e-07	1.555272e-06	1.839757e-10	1.114180e+01	1.116674e+01
9.300000e-07	1.704251e-06	3.980707e-10	1.220907e+01	2.513000e+01
9.400000e-07	1.852616e-06	6.133937e-10	1.327193e+01	3.934901e+01
9.500000e-07	2.000318e-06	8.325149e-10	1.433006e+01	5.371778e+01
9.600000e-07	2.147306e-06	1.052107e-09	1.538306e+01	6.811963e+01
9.700000e-07	2.293522e-06	1.268155e-09	1.643054e+01	8.243351e+01
9.800000e-07	2.438843e-06	1.480226e-09	1.747160e+01	9.654085e+01
9.900000e-07	2.583200e-06	1.690545e-09	1.850576e+01	1.103321e+02
1.000000e-06	2.726580e-06	1.896710e-09	1.953291e+01	1.237125e+02
1.010000e-06	2.868893e-06	2.091165e-09	2.055243e+01	1.366060e+02
1.020000e-06	3.010069e-06	2.272764e-09	2.156380e+01	1.489583e+02
1.030000e-06	3.149989e-06	2.445271e-09	2.256617e+01	1.607369e+02
1.040000e-06	3.288614e-06	2.612592e-09	2.355927e+01	1.719301e+02
1.050000e-06	3.426007e-06	2.774895e-09	2.454354e+01	1.825439e+02
1.060000e-06	3.562154e-06	2.930972e-09	2.551887e+01	1.925984e+02
1.070000e-06	3.696957e-06	3.078963e-09	2.648459e+01	2.021227e+02
1.080000e-06	3.830382e-06	3.217164e-09	2.744043e+01	2.111507e+02
1.090000e-06	3.962416e-06	3.349181e-09	2.838631e+01	2.197167e+02
1.100000e-06	4.093003e-06	3.474983e-09	2.932182e+01	2.278524e+02
1.110000e-06	4.222194e-06	3.594605e-09	3.024733e+01	2.355848e+02
1.120000e-06	4.349929e-06	3.707893e-09	3.116241e+01	2.429358e+02
1.130000e-06	4.476120e-06	3.812660e-09	3.206643e+01	2.499221e+02
1.140000e-06	4.600810e-06	3.909872e-09	3.295969e+01	2.565569e+02
1.150000e-06	4.723900e-06	4.004063e-09	3.384149e+01	2.628518e+02
1.160000e-06	4.845285e-06	4.094454e-09	3.471108e+01	2.688190e+02
1.170000e-06	4.964914e-06	4.178641e-09	3.556809e+01	2.744726e+02
1.180000e-06	5.082705e-06	4.258046e-09	3.641193e+01	2.798300e+02
1.190000e-06	5.198565e-06	4.335251e-09	3.724194e+01	2.849124e+02
1.200000e-06	5.312421e-06	4.410777e-09	3.805760e+01	2.897440e+02
1.210000e-06	5.424266e-06	4.482424e-09	3.885884e+01	2.943509e+02
1.220000e-06	5.534197e-06	4.550099e-09	3.964638e+01	2.987593e+02
1.230000e-06	5.642225e-06	4.613790e-09	4.042027e+01	3.029931e+02
1.240000e-06	5.748192e-06	4.674427e-09	4.117941e+01	3.070722e+02
1.250000e-06	5.852055e-06	4.732064e-09	4.192347e+01	3.110108e+02
1.260000e-06	5.953814e-06	4.789147e-09	4.265246e+01	3.148165e+02
1.270000e-06	6.053335e-06	4.844551e-09	4.336542e+01	3.184901e+02
1.280000e-06	6.150506e-06	4.896867e-09	4.406154e+01	3.220268e+02
1.290000e-06	6.245365e-06	4.947287e-09	4.474110e+01	3.254173e+02
1.300000e-06	6.338079e-06	4.995914e-09	4.540529e+01	3.286504e+02
1.310000e-06	6.428564e-06	5.042040e-09	4.605352e+01	3.317147e+02
1.320000e-06	6.516675e-06	5.083005e-09	4.668474e+01	3.346014e+02
1.330000e-06	6.602531e-06	5.120767e-09	4.729980e+01	3.373058e+02
1.340000e-06	6.686143e-06	5.157970e-09	4.789878e+01	3.398284e+02
1.350000e-06	6.767397e-06	5.193533e-09	4.848088e+01	3.421755e+02
1.360000e-06	6.846109e-06	5.227419e-09	4.904477e+01	3.443584e+02
1.370000e-06	6.922264e-06	5.259427e-09	4.959033e+01	3.463924e+02
1.380000e-06	6.995819e-06	5.289173e-09	5.011727e+01	3.482948e+02
1.390000e-06	7.066761e-06	5.316151e-09	5.062549e+01	3.500831e+02
1.400000e-06	7.135236e-06	5.341517e-09	5.111604e+01	3.517730e+02
1.410000e-06	7.201140e-06	5.365986e-09	5.158817e+01	3.533767e+02
1.420000e-06	7.264454e-06	5.390414e-09	5.204174e+01	3.549021e+02
1.430000e-06	7.325360e-06	5.413457e-09	5.247807e+01	3.563523e+02
1.440000e-06	7.383783e-06	5.434124e-09	5.289660e+01	3.577260e+02
1.450000e-06	7.439556e-06	5.451871e-09	5.329615e+01	3.590189e+02
1.460000e-06	7.492495e-06	5.468148e-09	5.367540e+01	3.602246e+02
1.470000e-06	7.542345e-06	5.483669e-09	5.403252e+01	3.613371e+02
1.480000e-06	7.589246e-06	5.497043e-09	5.436852e+01	3.623516e+02
1.490000e-06	7.633550e-06	5.509924e-09	5.468590e+01	3.632664e+02
1.500000e-06	7.675158e-06	5.521451e-09	5.498398e+01	3.640833e+02
1.510000e-06	7.713886e-06	5.533174e-09	5.526142e+01	3.648079e+02
1.520000e-06	7.749920e-06	5.546531e-09	5.551956e+01	3.654488e+02
1.530000e-06	7.783241e-06	5.559229e-09	5.575828e+01	3.660168e+02
1.540000e-06	7.813800e-06	5.569667e-09	5.597720e+01	3.665234e+02
1.550000e-06	7.841695e-06	5.577327e-09	5.617704e+01	3.669789e+02
1.560000e-06	7.866705e-06	5.584342e-09	5.635620e+01	3.673913e+02
1.570000e-06	7.888804e-06	5.590374e-09	5.651451e+01	3.677651e+02
1.580000e-06	7.908278e-06	5.594466e-09	5.665402e+01	3.681006e+02
1.590000e-06	7.924947e-06	5.597706e-09	5.677344e+01	3.683942e+02
1.600000e-06	7.938475e-06	5.600771e-09	5.687035e+01	3.686391e+02
1.610000e-06	7.948796e-06	5.604509e-09	5.694429e+01	3.688265e+02
1.620000e-06	7.956099e-06	5.607404e-09	5.699661e+01	3.689470e+02
1.630000e-06	7.960649e-06	5.608924e-09	5.702920e+01	3.689927e+02
1.640000e-06	7.962365e-06	5.610874e-09	5.704150e+01	3.689581e+02
1.650000e-06	7.961250e-06	5.612569e-09	5.703351e+01	3.688418e+02
1.660000e-06	7.957554e-06	5.601325e-09	5.700704e+01	3.686468e+02
1.670000e-06	7.951209e-06	5.596530e-09	5.696158e+01	3.683805e+02
1.680000e-06	7.942203e-06	5.595150e-09	5.689706e+01	3.680538e+02
1.690000e-06	7.930533e-06	5.592292e-09	5.681346e+01	3.676800e+02
1.700000e-06	7.916037e-06	5.591379e-09	5.670961e+01	3.672734e+02
1.710000e-06	7.899014e-06	5.593026e-09	5.658766e+01	3.668472e+02
1.720000e-06	7.879779e-06	5.595884e-09	5.644986e+01	3.664118e+02
1.730000e-06	7.857988e-06	5.509114e-09	5.629376e+01	3.659740e+02
1.740000e-06	7.832986e-06	5.462340e-09	5.611464e+01	3.655355e+02
1.750000e-06	7.804355e-06	5.531274e-09	5.590953e+01	3.650932e+02
1.760000e-06	7.772388e-06	5.535324e-09	5.568052e+01	3.646394e+02
1.770000e-06	7.737858e-06	5.506735e-09	5.543316e+01	3.641625e+02
1.780000e-06	7.701028e-06	5.575844e-09	5.516931e+01	3.636488e+02
1.790000e-06	7.662016e-06	5.618434e-09	5.488984e+01	3.630836e+02
1.800000e-06	7.620969e-06	5.431332e-09	5.459578e+01	3.624530e+02
1.810000e-06	7.577498e-06	5.505970e-09	5.428435e+01	3.617452e+02
1.820000e-06	7.531387e-06	5.512271e-09	5.395402e+01	3.609514e+02
1.830000e-06	7.482578e-06	5.444163e-09	5.360436e+01	3.600664e+02
1.840000e-06	7.430781e-06	5.580392e-09	5.323329e+01	3.590888e+02
1.850000e-06	7.376085e-06	5.449787e-09	5.284146e+01	3.580206e+02
1.860000e-06	7.318661e-06	5.485784e-09	5.243007e+01	3.568663e+02
1.870000e-06	7.258610e-06	5.408856e-09	5.199987e+01	3.556322e+02
1.880000e-06	7.195846e-06	5.350372e-09	5.155025e+01	3.543252e+02
1.890000e-06	7.130262e-06	5.447443e-09	5.108041e+01	3.529519e+02
1.900000e-06	7.061981e-06	5.340469e-09	5.059125e+01	3.515183e+02
1.910000e-06	6.990877e-06	5.371653e-09	5.008187e+01	3.500284e+02
1.920000e-06	6.917086e-06	5.301658e-09	4.955324e+01	3.484848e+02
1.930000e-06	6.840625e-06	5.300280e-09	4.900548e+01	3.468886e+02
1.940000e-06	6.761339e-06	5.285739e-09	4.843748e+01	3.452392e+02
1.950000e-06	6.679556e-06	5.212526e-09	4.785160e+01	3.435351e+02
1.960000e-06	6.595439e-06	5.254384e-09	4.724899e+01	3.417741e+02
1.970000e-06	6.508868e-06	5.161147e-09	4.662881e+01	3.399538e+02
1.980000e-06	6.419829e-06	5.163316e-09	4.599094e+01	3.380716e+02
1.990000e-06	6.328548e-06	5.131804e-09	4.533701e+01	3.361250e+02
2.000000e-06	6.235136e-06	5.122812e-09	4.466782e+01	3.341115e+02
2.010000e-06	6.139423e-06	5.070194e-09	4.398215e+01	3.320289e+02
2.020000e-06	6.041472e-06	5.000626e-09	4.328043e+01	3.298744e+02
2.030000e-06	5.941364e-06	4.993542e-09	4.256327e+01	3.276455e+02
2.040000e-06	5.839127e-06	4.962469e-09	4.183085e+01	3.253393e+02
2.050000e-06	5.734845e-06	4.963659e-09	4.108380e+01	3.229527e+02
2.060000e-06	5.628647e-06	4.897034e-09	4.032301e+01	3.204829e+02
2.070000e-06	5.520549e-06	4.856416e-09	3.954860e+01	3.179270e+02
2.080000e-06	5.410493e-06	4.800715e-09	3.876017e+01	3.152827e+02
2.090000e-06	5.298381e-06	4.757432e-09	3.795701e+01	3.125482e+02
2.100000e-06	5.184251e-06	4.722751e-09	3.713940e+01	3.097223e+02
2.110000e-06	5.068207e-06	4.703529e-09	3.630807e+01	3.068039e+02
2.120000e-06	4.950223e-06	4.656074e-09	3.546285e+01	3.037926e+02
2.130000e-06	4.830302e-06	4.584419e-09	3.460375e+01	3.006873e+02
2.140000e-06	4.708581e-06	4.537108e-09	3.373175e+01	2.974868e+02
2.150000e-06	4.585129e-06	4.496756e-09	3.284736e+01	2.941887e+02
2.160000e-06	4.460011e-06	4.456422e-09	3.195102e+01	2.907893e+02
2.170000e-06	4.333344e-06	4.387442e-09	3.104360e+01	2.872838e+02
2.180000e-06	4.205035e-06	4.337064e-09	3.012440e+01	2.836659e+02
2.190000e-06	4.075195e-06	4.280129e-09	2.919424e+01	2.799286e+02
2.200000e-06	3.943814e-06	4.221167e-09	2.825305e+01	2.760645e+02
2.210000e-06	3.810960e-06	4.159616e-09	2.730129e+01	2.720667e+02
2.220000e-06	3.676713e-06	4.106521e-09	2.633957e+01	2.679292e+02
2.230000e-06	3.541038e-06	4.037822e-09	2.536760e+01	2.636477e+02
2.240000e-06	3.403995e-06	3.962445e-09	2.438585e+01	2.592198e+02
2.250000e-06	3.265669e-06	3.897965e-09	2.339489e+01	2.546453e+02
2.260000e-06	3.126124e-06	3.836228e-09	2.239521e+01	2.499257e+02
2.270000e-06	2.985324e-06	3.760572e-09	2.138653e+01	2.450633e+02
2.280000e-06	2.843375e-06	3.670554e-09	2.036962e+01	2.400608e+02
2.290000e-06	2.700330e-06	3.589882e-09	1.934486e+01	2.349196e+02
2.300000e-06	2.556238e-06	3.509761e-09	1.831261e+01	2.296389e+02
2.310000e-06	2.411266e-06	3.434152e-09	1.727404e+01	2.242150e+02
2.320000e-06	2.265563e-06	3.356836e-09	1.623024e+01	2.186404e+02
2.330000e-06	2.119117e-06	3.269649e-09	1.518112e+01	2.129040e+02
2.340000e-06	1.971892e-06	3.170448e-09	1.412642e+01	2.069913e+02
2.350000e-06	1.824032e-06	3.070634e-09	1.306716e+01	2.008856e+02
2.360000e-06	1.675648e-06	2.976591e-09	1.200416e+01	1.945691e+02
2.370000e-06	1.526678e-06	2.881462e-09	1.093695e+01	1.880247e+02
2.380000e-06	1.377154e-06	2.778479e-09	9.865778e+00	1.812373e+02
2.390000e-06	1.227233e-06	2.668284e-09	8.791764e+00	1.741948e+02
2.400000e-06	1.076987e-06	2.552666e-09	7.715416e+00	1.668892e+02
2.410000e-06	9.264864e-07	2.436298e-09	6.637246e+00	1.593160e+02
2.420000e-06	7.756688e-07	2.323130e-09	5.556805e+00	1.514738e+02
2.430000e-06	6.245349e-07	2.205363e-09	4.474099e+00	1.433626e+02
2.440000e-06	4.731165e-07	2.076882e-09	3.389354e+00	1.349819e+02
2.450000e-06	3.214573e-07	1.943098e-09	2.302884e+00	1.263283e+02
2.460000e-06	1.696712e-07	1.807443e-09	1.215506e+00	1.173937e+02
2.470000e-06	1.778254e-08	1.668225e-09	1.273922e-01	1.081634e+02
2.480000e-06	-1.341557e-07	1.523838e-09	-9.610769e-01	9.861542e+01
2.490000e-06	-2.860198e-07	1.372780e-09	-2.049014e+00	8.872126e+01
2.500000e-06	-4.377835e-07	1.214071e-09	-3.136232e+00	7.844724e+01
2.510000e-06	-5.893855e-07	1.049712e-09	-4.222293e+00	6.775759e+01
2.520000e-06	-7.407979e-07	8.826785e-10	-5.306994e+00	5.661843e+01
2.530000e-06	-8.920077e-07	7.099742e-10	-6.390245e+00	4.500245e+01
2.540000e-06	-1.042874e-06	5.250249e-10	-7.471036e+00	3.289378e+01
2.550000e-06	-1.193331e-06	3.266692e-10	-8.548891e+00	2.029254e+01
2.560000e-06	-1.343398e-06	1.227507e-10	-9.623956e+00	7.218404e+00
2.570000e-06	-1.493022e-06	-8.236301e-11	-1.069584e+01	-6.287155e+00
2.580000e-06	-1.642043e-06	-2.913394e-10	-1.176341e+01	-2.016043e+01
2.590000e-06	-1.790466e-06	-5.057790e-10	-1.282670e+01	-3.431697e+01
2.600000e-06	-1.938332e-06	-7.250797e-10	-1.388600e+01	-4.865491e+01
2.610000e-06	-2.085519e-06	-9.488757e-10	-1.494043e+01	-6.306001e+01
2.620000e-06	-2.231881e-06	-1.173332e-09	-1.598895e+01	-7.741176e+01
2.630000e-06	-2.377396e-06	-1.393063e-09	-1.703140e+01	-9.159020e+01
2.640000e-06	-2.522061e-06	-1.606202e-09	-1.806776e+01	-1.054826e+02
2.650000e-06	-2.665686e-06	-1.814888e-09	-1.909668e+01	-1.189894e+02
2.660000e-06	-2.808134e-06	-2.018273e-09	-2.011716e+01	-1.320289e+02
2.670000e-06	-2.949455e-06	-2.210671e-09	-2.112957e+01	-1.445406e+02
2.680000e-06	-3.089661e-06	-2.391491e-09	-2.213399e+01	-1.564855e+02
2.690000e-06	-3.228692e-06	-2.560938e-09	-2.312999e+01	-1.678465e+02
2.700000e-06	-3.366457e-06	-2.721533e-09	-2.411693e+01	-1.786247e+02
2.710000e-06	-3.502950e-06	-2.876631e-09	-2.509475e+01	-1.888368e+02
2.720000e-06	-3.638103e-06	-3.026439e-09	-2.606297e+01	-1.985096e+02
2.730000e-06	-3.771896e-06	-3.167877e-09	-2.702144e+01	-2.076763e+02
2.740000e-06	-3.904412e-06	-3.301420e-09	-2.797077e+01	-2.163713e+02
2.750000e-06	-4.035581e-06	-3.430187e-09	-2.891045e+01	-2.246273e+02
2.760000e-06	-4.165356e-06	-3.552428e-09	-2.984015e+01	-2.324730e+02
2.770000e-06	-4.293750e-06	-3.667239e-09	-3.075995e+01	-2.399314e+02
2.780000e-06	-4.420632e-06	-3.776312e-09	-3.166892e+01	-2.470208e+02
2.790000e-06	-4.545976e-06	-3.878022e-09	-3.256686e+01	-2.537552e+02
2.800000e-06	-4.669804e-06	-3.970393e-09	-3.345395e+01	-2.601465e+02
2.810000e-06	-4.791930e-06	-4.057176e-09	-3.432886e+01	-2.662064e+02
2.820000e-06	-4.912277e-06	-4.142821e-09	-3.519100e+01	-2.719484e+02
2.830000e-06	-5.030713e-06	-4.229749e-09	-3.603947e+01	-2.773888e+02
2.840000e-06	-5.147113e-06	-4.312957e-09	-3.687334e+01	-2.825478e+02
2.850000e-06	-5.261417e-06	-4.389372e-09	-3.769221e+01	-2.874489e+02
2.860000e-06	-5.373570e-06	-4.462275e-09	-3.849566e+01	-2.921177e+02
2.870000e-06	-5.483662e-06	-4.532549e-09	-3.928435e+01	-2.965807e+02
2.880000e-06	-5.591818e-06	-4.598859e-09	-4.005916e+01	-3.008625e+02
2.890000e-06	-5.698138e-06	-4.661274e-09	-4.082083e+01	-3.049845e+02
2.900000e-06	-5.802420e-06	-4.721136e-09	-4.156789e+01	-3.089626e+02
2.910000e-06	-5.904513e-06	-4.779542e-09	-4.229928e+01	-3.128062e+02
2.920000e-06	-6.004456e-06	-4.837770e-09	-4.301525e+01	-3.165183e+02
2.930000e-06	-6.102274e-06	-4.896723e-09	-4.371601e+01	-3.200953e+02
2.940000e-06	-6.197915e-06	-4.953958e-09	-4.440118e+01	-3.235291e+02
