# Temperatura_=_42.93
# Concentracion g/m^3_=_5000.0
# C_Vs_to_Am_M_A/Vsm_=_65563218390.804596
# pendiente_HvsI_1/m_=_3716.3
# ordenada_HvsI_A/m_=_1297.0
# frecuencia_Hz_=_302491.6689297307

Tiempo_(s)	Campo_(V.s)	Magnetizacion_(V.s)	Campo_(kA/m)	Magnetizacion_(A/m)
0.000000e+00	-7.891040e-06	-5.728373e-09	-5.688204e+01	-3.752002e+02
1.000000e-08	-7.888836e-06	-5.728667e-09	-5.686615e+01	-3.750292e+02
2.000000e-08	-7.883939e-06	-5.724001e-09	-5.683085e+01	-3.747924e+02
3.000000e-08	-7.876493e-06	-5.718572e-09	-5.677718e+01	-3.744985e+02
4.000000e-08	-7.866314e-06	-5.717046e-09	-5.670380e+01	-3.741573e+02
5.000000e-08	-7.853241e-06	-5.714479e-09	-5.660957e+01	-3.737785e+02
6.000000e-08	-7.837193e-06	-5.707653e-09	-5.649389e+01	-3.733707e+02
7.000000e-08	-7.818609e-06	-5.698384e-09	-5.635992e+01	-3.729401e+02
8.000000e-08	-7.797820e-06	-5.689009e-09	-5.621007e+01	-3.724900e+02
9.000000e-08	-7.774351e-06	-5.714602e-09	-5.604090e+01	-3.720200e+02
1.000000e-07	-7.747694e-06	-5.732118e-09	-5.584874e+01	-3.715267e+02
1.100000e-07	-7.717905e-06	-5.694520e-09	-5.563401e+01	-3.710037e+02
1.200000e-07	-7.685385e-06	-5.663125e-09	-5.539959e+01	-3.704426e+02
1.300000e-07	-7.650243e-06	-5.650887e-09	-5.514627e+01	-3.698339e+02
1.400000e-07	-7.612660e-06	-5.626106e-09	-5.487535e+01	-3.691685e+02
1.500000e-07	-7.572974e-06	-5.585508e-09	-5.458928e+01	-3.684380e+02
1.600000e-07	-7.531098e-06	-5.608529e-09	-5.428742e+01	-3.676358e+02
1.700000e-07	-7.486573e-06	-5.623253e-09	-5.396647e+01	-3.667576e+02
1.800000e-07	-7.439347e-06	-5.549181e-09	-5.362604e+01	-3.658011e+02
1.900000e-07	-7.389273e-06	-5.565149e-09	-5.326509e+01	-3.647664e+02
2.000000e-07	-7.336130e-06	-5.554865e-09	-5.288201e+01	-3.636548e+02
2.100000e-07	-7.280230e-06	-5.512502e-09	-5.247906e+01	-3.624689e+02
2.200000e-07	-7.221696e-06	-5.517437e-09	-5.205712e+01	-3.612115e+02
2.300000e-07	-7.160548e-06	-5.475109e-09	-5.161634e+01	-3.598855e+02
2.400000e-07	-7.096810e-06	-5.451699e-09	-5.115689e+01	-3.584930e+02
2.500000e-07	-7.030323e-06	-5.419247e-09	-5.067762e+01	-3.570354e+02
2.600000e-07	-6.961167e-06	-5.418090e-09	-5.017911e+01	-3.555136e+02
2.700000e-07	-6.889372e-06	-5.410071e-09	-4.966158e+01	-3.539274e+02
2.800000e-07	-6.814769e-06	-5.371948e-09	-4.912381e+01	-3.522767e+02
2.900000e-07	-6.737381e-06	-5.338747e-09	-4.856597e+01	-3.505610e+02
3.000000e-07	-6.657250e-06	-5.305022e-09	-4.798834e+01	-3.487799e+02
3.100000e-07	-6.574662e-06	-5.292305e-09	-4.739302e+01	-3.469331e+02
3.200000e-07	-6.489936e-06	-5.254734e-09	-4.678227e+01	-3.450207e+02
3.300000e-07	-6.402962e-06	-5.225966e-09	-4.615533e+01	-3.430425e+02
3.400000e-07	-6.313625e-06	-5.204113e-09	-4.551135e+01	-3.409980e+02
3.500000e-07	-6.222029e-06	-5.166425e-09	-4.485108e+01	-3.388864e+02
3.600000e-07	-6.128251e-06	-5.132107e-09	-4.417509e+01	-3.367058e+02
3.700000e-07	-6.032244e-06	-5.099469e-09	-4.348303e+01	-3.344539e+02
3.800000e-07	-5.933993e-06	-5.067899e-09	-4.277480e+01	-3.321271e+02
3.900000e-07	-5.833639e-06	-5.022995e-09	-4.205140e+01	-3.297217e+02
4.000000e-07	-5.731327e-06	-4.983953e-09	-4.131389e+01	-3.272334e+02
4.100000e-07	-5.626964e-06	-4.949687e-09	-4.056160e+01	-3.246583e+02
4.200000e-07	-5.520522e-06	-4.911974e-09	-3.979432e+01	-3.219932e+02
4.300000e-07	-5.412090e-06	-4.866904e-09	-3.901269e+01	-3.192360e+02
4.400000e-07	-5.301801e-06	-4.818025e-09	-3.821768e+01	-3.163856e+02
4.500000e-07	-5.189579e-06	-4.772282e-09	-3.740874e+01	-3.134425e+02
4.600000e-07	-5.075251e-06	-4.726418e-09	-3.658461e+01	-3.104077e+02
4.700000e-07	-4.958955e-06	-4.681573e-09	-3.574630e+01	-3.072829e+02
4.800000e-07	-4.840859e-06	-4.636914e-09	-3.489501e+01	-3.040693e+02
4.900000e-07	-4.721002e-06	-4.588853e-09	-3.403103e+01	-3.007675e+02
5.000000e-07	-4.599397e-06	-4.533792e-09	-3.315445e+01	-2.973760e+02
5.100000e-07	-4.476040e-06	-4.476139e-09	-3.226524e+01	-2.938916e+02
5.200000e-07	-4.351073e-06	-4.419146e-09	-3.136442e+01	-2.903085e+02
5.300000e-07	-4.224596e-06	-4.363655e-09	-3.045272e+01	-2.866192e+02
5.400000e-07	-4.096618e-06	-4.302708e-09	-2.953020e+01	-2.828144e+02
5.500000e-07	-3.967166e-06	-4.238794e-09	-2.859705e+01	-2.788844e+02
5.600000e-07	-3.836124e-06	-4.177013e-09	-2.765245e+01	-2.748198e+02
5.700000e-07	-3.703571e-06	-4.116556e-09	-2.669695e+01	-2.706125e+02
5.800000e-07	-3.569671e-06	-4.050454e-09	-2.573174e+01	-2.662568e+02
5.900000e-07	-3.434448e-06	-3.979572e-09	-2.475699e+01	-2.617497e+02
6.000000e-07	-3.297928e-06	-3.907478e-09	-2.377290e+01	-2.570914e+02
6.100000e-07	-3.160162e-06	-3.832889e-09	-2.277982e+01	-2.522843e+02
6.200000e-07	-3.021054e-06	-3.757636e-09	-2.177707e+01	-2.473327e+02
6.300000e-07	-2.880566e-06	-3.682046e-09	-2.076437e+01	-2.422412e+02
6.400000e-07	-2.738871e-06	-3.604314e-09	-1.974297e+01	-2.370136e+02
6.500000e-07	-2.596117e-06	-3.520840e-09	-1.871394e+01	-2.316510e+02
6.600000e-07	-2.452433e-06	-3.435518e-09	-1.767820e+01	-2.261511e+02
6.700000e-07	-2.307779e-06	-3.349310e-09	-1.663547e+01	-2.205068e+02
6.800000e-07	-2.162185e-06	-3.261852e-09	-1.558596e+01	-2.147069e+02
6.900000e-07	-2.015909e-06	-3.171557e-09	-1.453154e+01	-2.087356e+02
7.000000e-07	-1.869097e-06	-3.077212e-09	-1.347326e+01	-2.025746e+02
7.100000e-07	-1.721743e-06	-2.979104e-09	-1.241107e+01	-1.962039e+02
7.200000e-07	-1.573831e-06	-2.876479e-09	-1.134485e+01	-1.896040e+02
7.300000e-07	-1.425434e-06	-2.771852e-09	-1.027515e+01	-1.827576e+02
7.400000e-07	-1.276633e-06	-2.661983e-09	-9.202522e+00	-1.756511e+02
7.500000e-07	-1.127479e-06	-2.547795e-09	-8.127354e+00	-1.682751e+02
7.600000e-07	-9.779962e-07	-2.434018e-09	-7.049821e+00	-1.606246e+02
7.700000e-07	-8.282168e-07	-2.319595e-09	-5.970146e+00	-1.526984e+02
7.800000e-07	-6.781669e-07	-2.197080e-09	-4.888521e+00	-1.444967e+02
7.900000e-07	-5.278448e-07	-2.066955e-09	-3.804934e+00	-1.360195e+02
8.000000e-07	-3.773549e-07	-1.931789e-09	-2.720138e+00	-1.272636e+02
8.100000e-07	-2.267434e-07	-1.789311e-09	-1.634465e+00	-1.182205e+02
8.200000e-07	-7.599326e-08	-1.641749e-09	-5.477924e-01	-1.088741e+02
8.300000e-07	7.483607e-08	-1.491223e-09	5.394509e-01	-9.920041e+01
8.400000e-07	2.256879e-07	-1.337549e-09	1.626856e+00	-8.916747e+01
8.500000e-07	3.765132e-07	-1.177303e-09	2.714070e+00	-7.873749e+01
8.600000e-07	5.272519e-07	-1.009649e-09	3.800661e+00	-6.786998e+01
8.700000e-07	6.778265e-07	-8.365070e-10	4.886068e+00	-5.652624e+01
8.800000e-07	8.281969e-07	-6.577615e-10	5.970003e+00	-4.467454e+01
8.900000e-07	9.783326e-07	-4.712654e-10	7.052246e+00	-3.229559e+01
9.000000e-07	1.128134e-06	-2.791612e-10	8.132076e+00	-1.938756e+01
9.100000e-07	1.277513e-06	-7.994318e-11	9.208870e+00	-5.970173e+00
9.200000e-07	1.426478e-06	1.297770e-10	1.028267e+01	7.912806e+00
9.300000e-07	1.575009e-06	3.485337e-10	1.135335e+01	2.219303e+01
9.400000e-07	1.723037e-06	5.722514e-10	1.242040e+01	3.677916e+01
9.500000e-07	1.870450e-06	7.977716e-10	1.348302e+01	5.156048e+01
9.600000e-07	2.017154e-06	1.026041e-09	1.454052e+01	6.641246e+01
9.700000e-07	2.163123e-06	1.252852e-09	1.559273e+01	8.120350e+01
9.800000e-07	2.308261e-06	1.474218e-09	1.663894e+01	9.580243e+01
9.900000e-07	2.452519e-06	1.689416e-09	1.767882e+01	1.100860e+02
1.000000e-06	2.595811e-06	1.898997e-09	1.871173e+01	1.239453e+02
1.010000e-06	2.738102e-06	2.101526e-09	1.973743e+01	1.372916e+02
1.020000e-06	2.879357e-06	2.294035e-09	2.075565e+01	1.500593e+02
1.030000e-06	3.019453e-06	2.475156e-09	2.176553e+01	1.622073e+02
1.040000e-06	3.158292e-06	2.646583e-09	2.276634e+01	1.737188e+02
1.050000e-06	3.295762e-06	2.810352e-09	2.375728e+01	1.845980e+02
1.060000e-06	3.431899e-06	2.966730e-09	2.473862e+01	1.948666e+02
1.070000e-06	3.566789e-06	3.115693e-09	2.571096e+01	2.045586e+02
1.080000e-06	3.700401e-06	3.257724e-09	2.667410e+01	2.137148e+02
1.090000e-06	3.832728e-06	3.391070e-09	2.762796e+01	2.223786e+02
1.100000e-06	3.963746e-06	3.517259e-09	2.857240e+01	2.305909e+02
1.110000e-06	4.093309e-06	3.637760e-09	2.950635e+01	2.383882e+02
1.120000e-06	4.221368e-06	3.753658e-09	3.042945e+01	2.458004e+02
1.130000e-06	4.347968e-06	3.862797e-09	3.134204e+01	2.528506e+02
1.140000e-06	4.473168e-06	3.962571e-09	3.224453e+01	2.595566e+02
1.150000e-06	4.596902e-06	4.056182e-09	3.313647e+01	2.659320e+02
1.160000e-06	4.718940e-06	4.146382e-09	3.401617e+01	2.719887e+02
1.170000e-06	4.839228e-06	4.233389e-09	3.488326e+01	2.777391e+02
1.180000e-06	4.957795e-06	4.316358e-09	3.573794e+01	2.831974e+02
1.190000e-06	5.074556e-06	4.395402e-09	3.657960e+01	2.883811e+02
1.200000e-06	5.189289e-06	4.470802e-09	3.740664e+01	2.933107e+02
1.210000e-06	5.301954e-06	4.543985e-09	3.821878e+01	2.980094e+02
1.220000e-06	5.412724e-06	4.613943e-09	3.901726e+01	3.025014e+02
1.230000e-06	5.521697e-06	4.679780e-09	3.980279e+01	3.068103e+02
1.240000e-06	5.628783e-06	4.741333e-09	4.057471e+01	3.109570e+02
1.250000e-06	5.733689e-06	4.800229e-09	4.133092e+01	3.149583e+02
1.260000e-06	5.836382e-06	4.857421e-09	4.207118e+01	3.188252e+02
1.270000e-06	5.937018e-06	4.914310e-09	4.279660e+01	3.225628e+02
1.280000e-06	6.035482e-06	4.968262e-09	4.350637e+01	3.261700e+02
1.290000e-06	6.131614e-06	5.018512e-09	4.419933e+01	3.296413e+02
1.300000e-06	6.225550e-06	5.067679e-09	4.487646e+01	3.329678e+02
1.310000e-06	6.317367e-06	5.114444e-09	4.553832e+01	3.361394e+02
1.320000e-06	6.406865e-06	5.159269e-09	4.618346e+01	3.391467e+02
1.330000e-06	6.493988e-06	5.201732e-09	4.681148e+01	3.419832e+02
1.340000e-06	6.578865e-06	5.241290e-09	4.742331e+01	3.446462e+02
1.350000e-06	6.661457e-06	5.278834e-09	4.801867e+01	3.471379e+02
1.360000e-06	6.741592e-06	5.313160e-09	4.859632e+01	3.494651e+02
1.370000e-06	6.819224e-06	5.344904e-09	4.915593e+01	3.516386e+02
1.380000e-06	6.894310e-06	5.375421e-09	4.969718e+01	3.536721e+02
1.390000e-06	6.966813e-06	5.405455e-09	5.021981e+01	3.555802e+02
1.400000e-06	7.036849e-06	5.433934e-09	5.072466e+01	3.573774e+02
1.410000e-06	7.104440e-06	5.460594e-09	5.121189e+01	3.590758e+02
1.420000e-06	7.169438e-06	5.485749e-09	5.168042e+01	3.606848e+02
1.430000e-06	7.231874e-06	5.509229e-09	5.213048e+01	3.622099e+02
1.440000e-06	7.291925e-06	5.531781e-09	5.256336e+01	3.636531e+02
1.450000e-06	7.349422e-06	5.552067e-09	5.297782e+01	3.650135e+02
1.460000e-06	7.404217e-06	5.568912e-09	5.337280e+01	3.662883e+02
1.470000e-06	7.456212e-06	5.584665e-09	5.374761e+01	3.674737e+02
1.480000e-06	7.505147e-06	5.600306e-09	5.410036e+01	3.685669e+02
1.490000e-06	7.551217e-06	5.614882e-09	5.443245e+01	3.695663e+02
1.500000e-06	7.594720e-06	5.628742e-09	5.474604e+01	3.704730e+02
1.510000e-06	7.635484e-06	5.643267e-09	5.503988e+01	3.712907e+02
1.520000e-06	7.673454e-06	5.658686e-09	5.531359e+01	3.720252e+02
1.530000e-06	7.708789e-06	5.671900e-09	5.556830e+01	3.726843e+02
1.540000e-06	7.741409e-06	5.681068e-09	5.580343e+01	3.732762e+02
1.550000e-06	7.771279e-06	5.687841e-09	5.601875e+01	3.738087e+02
1.560000e-06	7.798425e-06	5.693826e-09	5.621443e+01	3.742879e+02
1.570000e-06	7.822686e-06	5.700293e-09	5.638931e+01	3.747176e+02
1.580000e-06	7.844106e-06	5.707024e-09	5.654372e+01	3.750988e+02
1.590000e-06	7.862791e-06	5.712976e-09	5.667841e+01	3.754295e+02
1.600000e-06	7.878618e-06	5.717251e-09	5.679250e+01	3.757053e+02
1.610000e-06	7.891466e-06	5.721354e-09	5.688511e+01	3.759204e+02
1.620000e-06	7.901198e-06	5.725707e-09	5.695527e+01	3.760688e+02
1.630000e-06	7.907946e-06	5.728232e-09	5.700390e+01	3.761452e+02
1.640000e-06	7.911966e-06	5.728612e-09	5.703288e+01	3.761461e+02
1.650000e-06	7.913161e-06	5.727501e-09	5.704150e+01	3.760710e+02
1.660000e-06	7.911561e-06	5.723208e-09	5.702996e+01	3.759223e+02
1.670000e-06	7.907362e-06	5.717677e-09	5.699970e+01	3.757055e+02
1.680000e-06	7.900518e-06	5.715912e-09	5.695036e+01	3.754287e+02
1.690000e-06	7.891065e-06	5.714022e-09	5.688222e+01	3.751013e+02
1.700000e-06	7.878924e-06	5.709884e-09	5.679470e+01	3.747334e+02
1.710000e-06	7.863977e-06	5.706128e-09	5.668696e+01	3.743338e+02
1.720000e-06	7.846511e-06	5.704344e-09	5.656105e+01	3.739099e+02
1.730000e-06	7.826853e-06	5.690119e-09	5.641935e+01	3.734656e+02
1.740000e-06	7.804623e-06	5.626144e-09	5.625911e+01	3.730020e+02
1.750000e-06	7.779053e-06	5.616295e-09	5.607479e+01	3.725166e+02
1.760000e-06	7.749861e-06	5.646670e-09	5.586436e+01	3.720037e+02
1.770000e-06	7.717484e-06	5.641206e-09	5.563097e+01	3.714556e+02
1.780000e-06	7.682687e-06	5.637916e-09	5.538014e+01	3.708630e+02
1.790000e-06	7.645683e-06	5.676279e-09	5.511340e+01	3.702165e+02
1.800000e-06	7.606517e-06	5.648120e-09	5.483107e+01	3.695075e+02
1.810000e-06	7.565171e-06	5.581151e-09	5.453304e+01	3.687287e+02
1.820000e-06	7.521316e-06	5.631116e-09	5.421691e+01	3.678750e+02
1.830000e-06	7.474945e-06	5.591977e-09	5.388265e+01	3.669436e+02
1.840000e-06	7.425908e-06	5.595272e-09	5.352916e+01	3.659336e+02
1.850000e-06	7.373895e-06	5.587426e-09	5.315424e+01	3.648463e+02
1.860000e-06	7.318923e-06	5.520816e-09	5.275797e+01	3.636837e+02
1.870000e-06	7.261147e-06	5.558813e-09	5.234150e+01	3.624488e+02
1.880000e-06	7.200888e-06	5.500458e-09	5.190712e+01	3.611443e+02
1.890000e-06	7.137954e-06	5.508855e-09	5.145347e+01	3.597727e+02
1.900000e-06	7.072229e-06	5.489984e-09	5.097969e+01	3.583357e+02
1.910000e-06	7.003793e-06	5.417110e-09	5.048638e+01	3.568342e+02
1.920000e-06	6.932521e-06	5.425452e-09	4.997262e+01	3.552685e+02
1.930000e-06	6.858667e-06	5.380511e-09	4.944025e+01	3.536383e+02
1.940000e-06	6.782147e-06	5.394121e-09	4.888866e+01	3.519433e+02
1.950000e-06	6.702895e-06	5.354183e-09	4.831738e+01	3.501830e+02
1.960000e-06	6.621204e-06	5.321651e-09	4.772851e+01	3.483572e+02
1.970000e-06	6.537153e-06	5.299559e-09	4.712264e+01	3.464656e+02
1.980000e-06	6.450644e-06	5.232799e-09	4.649904e+01	3.445083e+02
1.990000e-06	6.361706e-06	5.228728e-09	4.585794e+01	3.424850e+02
2.000000e-06	6.270585e-06	5.190389e-09	4.520110e+01	3.403948e+02
2.010000e-06	6.177282e-06	5.167597e-09	4.452853e+01	3.382364e+02
2.020000e-06	6.081666e-06	5.123460e-09	4.383928e+01	3.360075e+02
2.030000e-06	5.983852e-06	5.093828e-09	4.313420e+01	3.337049e+02
2.040000e-06	5.884020e-06	5.064733e-09	4.241457e+01	3.313250e+02
2.050000e-06	5.782090e-06	5.020400e-09	4.167981e+01	3.288635e+02
2.060000e-06	5.678000e-06	4.981133e-09	4.092949e+01	3.263165e+02
2.070000e-06	5.571982e-06	4.930906e-09	4.016527e+01	3.236804e+02
2.080000e-06	5.464141e-06	4.896674e-09	3.938790e+01	3.209527e+02
2.090000e-06	5.354363e-06	4.850077e-09	3.859657e+01	3.181321e+02
2.100000e-06	5.242587e-06	4.818127e-09	3.779084e+01	3.152184e+02
2.110000e-06	5.128879e-06	4.771376e-09	3.697119e+01	3.122126e+02
2.120000e-06	5.013269e-06	4.722588e-09	3.613782e+01	3.091163e+02
2.130000e-06	4.895673e-06	4.665554e-09	3.529014e+01	3.059310e+02
2.140000e-06	4.776068e-06	4.615223e-09	3.442797e+01	3.026574e+02
2.150000e-06	4.654658e-06	4.570887e-09	3.355280e+01	2.992947e+02
2.160000e-06	4.531645e-06	4.522059e-09	3.266606e+01	2.958404e+02
2.170000e-06	4.407049e-06	4.469016e-09	3.176792e+01	2.922896e+02
2.180000e-06	4.280828e-06	4.409423e-09	3.085806e+01	2.886351e+02
2.190000e-06	4.152907e-06	4.354360e-09	2.993596e+01	2.848682e+02
2.200000e-06	4.023448e-06	4.293653e-09	2.900276e+01	2.809793e+02
2.210000e-06	3.892571e-06	4.234969e-09	2.805934e+01	2.769586e+02
2.220000e-06	3.760254e-06	4.171465e-09	2.710555e+01	2.727977e+02
2.230000e-06	3.626532e-06	4.108171e-09	2.614161e+01	2.684899e+02
2.240000e-06	3.491397e-06	4.038683e-09	2.516750e+01	2.640314e+02
2.250000e-06	3.354905e-06	3.969812e-09	2.418361e+01	2.594213e+02
2.260000e-06	3.217263e-06	3.900412e-09	2.319143e+01	2.546614e+02
2.270000e-06	3.078451e-06	3.825304e-09	2.219081e+01	2.497554e+02
2.280000e-06	2.938341e-06	3.743162e-09	2.118083e+01	2.447082e+02
2.290000e-06	2.797054e-06	3.661905e-09	2.016238e+01	2.395238e+02
2.300000e-06	2.654694e-06	3.584002e-09	1.913619e+01	2.342045e+02
2.310000e-06	2.511288e-06	3.504606e-09	1.810245e+01	2.287490e+02
2.320000e-06	2.366948e-06	3.421962e-09	1.706199e+01	2.231519e+02
2.330000e-06	2.221879e-06	3.332534e-09	1.601627e+01	2.174032e+02
2.340000e-06	2.076115e-06	3.238852e-09	1.496554e+01	2.114887e+02
2.350000e-06	1.929645e-06	3.142977e-09	1.390972e+01	2.053906e+02
2.360000e-06	1.782586e-06	3.048389e-09	1.284966e+01	1.990892e+02
2.370000e-06	1.635053e-06	2.950892e-09	1.178617e+01	1.925648e+02
2.380000e-06	1.486989e-06	2.845908e-09	1.071886e+01	1.857991e+02
2.390000e-06	1.338332e-06	2.736262e-09	9.647279e+00	1.787772e+02
2.400000e-06	1.189226e-06	2.624840e-09	8.572458e+00	1.714882e+02
2.410000e-06	1.039790e-06	2.510692e-09	7.495258e+00	1.639260e+02
2.420000e-06	8.900533e-07	2.393484e-09	6.415891e+00	1.560882e+02
2.430000e-06	7.400616e-07	2.272425e-09	5.334685e+00	1.479747e+02
2.440000e-06	5.898470e-07	2.146927e-09	4.251873e+00	1.395860e+02
2.450000e-06	4.394129e-07	2.014768e-09	3.167479e+00	1.309201e+02
2.460000e-06	2.887633e-07	1.877858e-09	2.081531e+00	1.219704e+02
2.470000e-06	1.379237e-07	1.737086e-09	9.942135e-01	1.127235e+02
2.480000e-06	-1.302611e-08	1.589971e-09	-9.389788e-02	1.031579e+02
2.490000e-06	-1.639956e-07	1.438024e-09	-1.182152e+00	9.324409e+01
2.500000e-06	-3.149032e-07	1.281965e-09	-2.269959e+00	8.294586e+01
2.510000e-06	-4.657106e-07	1.120645e-09	-3.357044e+00	7.222314e+01
2.520000e-06	-6.163549e-07	9.520615e-10	-4.442953e+00	6.103614e+01
2.530000e-06	-7.667374e-07	7.743619e-10	-5.526976e+00	4.935028e+01
2.540000e-06	-9.169081e-07	5.869569e-10	-6.609471e+00	3.714168e+01
2.550000e-06	-1.066818e-06	3.904320e-10	-7.690086e+00	2.440242e+01
2.560000e-06	-1.216364e-06	1.869837e-10	-8.768077e+00	1.114493e+01
2.570000e-06	-1.365464e-06	-2.425938e-11	-9.842860e+00	-2.594925e+00
2.580000e-06	-1.514006e-06	-2.405674e-10	-1.091362e+01	-1.675662e+01
2.590000e-06	-1.661971e-06	-4.593760e-10	-1.198021e+01	-3.125590e+01
2.600000e-06	-1.809343e-06	-6.828913e-10	-1.304253e+01	-4.598777e+01
2.610000e-06	-1.956091e-06	-9.113819e-10	-1.410035e+01	-6.083144e+01
2.620000e-06	-2.102164e-06	-1.143979e-09	-1.515331e+01	-7.565679e+01
2.630000e-06	-2.247467e-06	-1.373684e-09	-1.620072e+01	-9.033169e+01
2.640000e-06	-2.391935e-06	-1.596342e-09	-1.724210e+01	-1.047295e+02
2.650000e-06	-2.535483e-06	-1.810807e-09	-1.827686e+01	-1.187362e+02
2.660000e-06	-2.677948e-06	-2.016841e-09	-1.930381e+01	-1.322560e+02
2.670000e-06	-2.819277e-06	-2.214907e-09	-2.032257e+01	-1.452155e+02
2.680000e-06	-2.959455e-06	-2.402017e-09	-2.133304e+01	-1.575659e+02
2.690000e-06	-3.098489e-06	-2.579696e-09	-2.233525e+01	-1.692827e+02
2.700000e-06	-3.236332e-06	-2.747452e-09	-2.332888e+01	-1.803638e+02
2.710000e-06	-3.372944e-06	-2.905225e-09	-2.431364e+01	-1.908257e+02
2.720000e-06	-3.508332e-06	-3.057420e-09	-2.528958e+01	-2.006990e+02
2.730000e-06	-3.642391e-06	-3.204280e-09	-2.625594e+01	-2.100230e+02
2.740000e-06	-3.775078e-06	-3.341707e-09	-2.721240e+01	-2.188407e+02
2.750000e-06	-3.906477e-06	-3.470213e-09	-2.815958e+01	-2.271941e+02
2.760000e-06	-4.036600e-06	-3.591753e-09	-2.909756e+01	-2.351215e+02
2.770000e-06	-4.165400e-06	-3.705175e-09	-3.002601e+01	-2.426548e+02
2.780000e-06	-4.292776e-06	-3.812717e-09	-3.094419e+01	-2.498195e+02
2.790000e-06	-4.418542e-06	-3.916418e-09	-3.185076e+01	-2.566347e+02
2.800000e-06	-4.542754e-06	-4.015343e-09	-3.274614e+01	-2.631153e+02
2.810000e-06	-4.665462e-06	-4.107497e-09	-3.363067e+01	-2.692734e+02
2.820000e-06	-4.786486e-06	-4.193627e-09	-3.450307e+01	-2.751211e+02
2.830000e-06	-4.905667e-06	-4.277788e-09	-3.536217e+01	-2.806718e+02
2.840000e-06	-5.022904e-06	-4.360232e-09	-3.620727e+01	-2.859419e+02
2.850000e-06	-5.138115e-06	-4.438161e-09	-3.703776e+01	-2.909510e+02
2.860000e-06	-5.251211e-06	-4.510659e-09	-3.785301e+01	-2.957215e+02
2.870000e-06	-5.362193e-06	-4.581834e-09	-3.865301e+01	-3.002775e+02
2.880000e-06	-5.471229e-06	-4.651608e-09	-3.943899e+01	-3.046430e+02
2.890000e-06	-5.578454e-06	-4.716854e-09	-4.021192e+01	-3.088401e+02
2.900000e-06	-5.683798e-06	-4.777950e-09	-4.097128e+01	-3.128869e+02
2.910000e-06	-5.787046e-06	-4.836548e-09	-4.171554e+01	-3.167964e+02
2.920000e-06	-5.888077e-06	-4.895294e-09	-4.244381e+01	-3.205756e+02
2.930000e-06	-5.986973e-06	-4.953289e-09	-4.315670e+01	-3.242254e+02
2.940000e-06	-6.083805e-06	-5.009641e-09	-4.385471e+01	-3.277415e+02
