# Temperatura_=_47.1
# Concentracion g/m^3_=_5000.0
# C_Vs_to_Am_M_A/Vsm_=_65563218390.804596
# pendiente_HvsI_1/m_=_3716.3
# ordenada_HvsI_A/m_=_1297.0
# frecuencia_Hz_=_302506.0252082124

Tiempo_(s)	Campo_(V.s)	Magnetizacion_(V.s)	Campo_(kA/m)	Magnetizacion_(A/m)
0.000000e+00	-7.978806e-06	-5.914686e-09	-5.685914e+01	-3.878343e+02
1.000000e-08	-7.974468e-06	-5.914045e-09	-5.682823e+01	-3.875746e+02
2.000000e-08	-7.967639e-06	-5.909206e-09	-5.677956e+01	-3.872539e+02
3.000000e-08	-7.958152e-06	-5.908198e-09	-5.671196e+01	-3.868808e+02
4.000000e-08	-7.945806e-06	-5.904828e-09	-5.662397e+01	-3.864631e+02
5.000000e-08	-7.930423e-06	-5.896126e-09	-5.651435e+01	-3.860070e+02
6.000000e-08	-7.912262e-06	-5.884812e-09	-5.638492e+01	-3.855162e+02
7.000000e-08	-7.891817e-06	-5.867235e-09	-5.623923e+01	-3.849918e+02
8.000000e-08	-7.868863e-06	-5.892989e-09	-5.607565e+01	-3.844322e+02
9.000000e-08	-7.842812e-06	-5.944272e-09	-5.589001e+01	-3.838340e+02
1.000000e-07	-7.813562e-06	-5.889286e-09	-5.568157e+01	-3.831919e+02
1.100000e-07	-7.781458e-06	-5.830258e-09	-5.545278e+01	-3.825003e+02
1.200000e-07	-7.746604e-06	-5.825943e-09	-5.520440e+01	-3.817537e+02
1.300000e-07	-7.709182e-06	-5.820315e-09	-5.493772e+01	-3.809475e+02
1.400000e-07	-7.669625e-06	-5.769414e-09	-5.465583e+01	-3.800785e+02
1.500000e-07	-7.627904e-06	-5.738321e-09	-5.435852e+01	-3.791450e+02
1.600000e-07	-7.583545e-06	-5.820751e-09	-5.404240e+01	-3.781465e+02
1.700000e-07	-7.536421e-06	-5.711495e-09	-5.370658e+01	-3.770833e+02
1.800000e-07	-7.486464e-06	-5.704165e-09	-5.335058e+01	-3.759564e+02
1.900000e-07	-7.433482e-06	-5.774327e-09	-5.297301e+01	-3.747661e+02
2.000000e-07	-7.377666e-06	-5.683642e-09	-5.257525e+01	-3.735123e+02
2.100000e-07	-7.319121e-06	-5.693573e-09	-5.215804e+01	-3.721935e+02
2.200000e-07	-7.257919e-06	-5.649573e-09	-5.172190e+01	-3.708073e+02
2.300000e-07	-7.194188e-06	-5.630131e-09	-5.126774e+01	-3.693501e+02
2.400000e-07	-7.127687e-06	-5.600150e-09	-5.079383e+01	-3.678179e+02
2.500000e-07	-7.058472e-06	-5.556852e-09	-5.030059e+01	-3.662068e+02
2.600000e-07	-6.986587e-06	-5.558928e-09	-4.978831e+01	-3.645134e+02
2.700000e-07	-6.911854e-06	-5.521929e-09	-4.925575e+01	-3.627356e+02
2.800000e-07	-6.834336e-06	-5.490579e-09	-4.870334e+01	-3.608727e+02
2.900000e-07	-6.754048e-06	-5.446672e-09	-4.813118e+01	-3.589256e+02
3.000000e-07	-6.671274e-06	-5.457665e-09	-4.754131e+01	-3.568966e+02
3.100000e-07	-6.586255e-06	-5.430586e-09	-4.693544e+01	-3.547889e+02
3.200000e-07	-6.498888e-06	-5.353075e-09	-4.631284e+01	-3.526060e+02
3.300000e-07	-6.409127e-06	-5.342102e-09	-4.567318e+01	-3.503508e+02
3.400000e-07	-6.317055e-06	-5.313603e-09	-4.501705e+01	-3.480253e+02
3.500000e-07	-6.222748e-06	-5.270810e-09	-4.434499e+01	-3.456298e+02
3.600000e-07	-6.126158e-06	-5.226940e-09	-4.365666e+01	-3.431630e+02
3.700000e-07	-6.027329e-06	-5.207374e-09	-4.295239e+01	-3.406217e+02
3.800000e-07	-5.926330e-06	-5.171032e-09	-4.223264e+01	-3.380017e+02
3.900000e-07	-5.823184e-06	-5.106164e-09	-4.149759e+01	-3.352981e+02
4.000000e-07	-5.718008e-06	-5.063043e-09	-4.074808e+01	-3.325060e+02
4.100000e-07	-5.610822e-06	-5.027309e-09	-3.998424e+01	-3.296215e+02
4.200000e-07	-5.501675e-06	-4.985504e-09	-3.920643e+01	-3.266421e+02
4.300000e-07	-5.390639e-06	-4.919121e-09	-3.841516e+01	-3.235671e+02
4.400000e-07	-5.277586e-06	-4.877748e-09	-3.760951e+01	-3.203971e+02
4.500000e-07	-5.162419e-06	-4.842895e-09	-3.678880e+01	-3.171342e+02
4.600000e-07	-5.045257e-06	-4.787970e-09	-3.595388e+01	-3.137810e+02
4.700000e-07	-4.926257e-06	-4.727575e-09	-3.510585e+01	-3.103395e+02
4.800000e-07	-4.805456e-06	-4.676879e-09	-3.424498e+01	-3.068106e+02
4.900000e-07	-4.682893e-06	-4.623340e-09	-3.337157e+01	-3.031928e+02
5.000000e-07	-4.558624e-06	-4.557072e-09	-3.248599e+01	-2.994822e+02
5.100000e-07	-4.432750e-06	-4.499182e-09	-3.158898e+01	-2.956722e+02
5.200000e-07	-4.305238e-06	-4.443761e-09	-3.068030e+01	-2.917540e+02
5.300000e-07	-4.176150e-06	-4.380714e-09	-2.976038e+01	-2.877171e+02
5.400000e-07	-4.045560e-06	-4.309458e-09	-2.882976e+01	-2.835510e+02
5.500000e-07	-3.913423e-06	-4.244265e-09	-2.788811e+01	-2.792461e+02
5.600000e-07	-3.779791e-06	-4.180588e-09	-2.693582e+01	-2.747950e+02
5.700000e-07	-3.644678e-06	-4.110113e-09	-2.597296e+01	-2.701934e+02
5.800000e-07	-3.508152e-06	-4.038391e-09	-2.500004e+01	-2.654405e+02
5.900000e-07	-3.370288e-06	-3.965303e-09	-2.401759e+01	-2.605393e+02
6.000000e-07	-3.231101e-06	-3.886231e-09	-2.302571e+01	-2.554950e+02
6.100000e-07	-3.090500e-06	-3.802556e-09	-2.202374e+01	-2.503144e+02
6.200000e-07	-2.948480e-06	-3.723398e-09	-2.101167e+01	-2.450039e+02
6.300000e-07	-2.805339e-06	-3.643848e-09	-1.999161e+01	-2.395677e+02
6.400000e-07	-2.661203e-06	-3.559956e-09	-1.896446e+01	-2.340060e+02
6.500000e-07	-2.516108e-06	-3.473900e-09	-1.793047e+01	-2.283140e+02
6.600000e-07	-2.370225e-06	-3.385537e-09	-1.689087e+01	-2.224813e+02
6.700000e-07	-2.223556e-06	-3.292734e-09	-1.584566e+01	-2.164918e+02
6.800000e-07	-2.076062e-06	-3.196561e-09	-1.479458e+01	-2.103251e+02
6.900000e-07	-1.927809e-06	-3.100231e-09	-1.373809e+01	-2.039582e+02
7.000000e-07	-1.778957e-06	-2.997980e-09	-1.267733e+01	-1.973675e+02
7.100000e-07	-1.629671e-06	-2.891195e-09	-1.161348e+01	-1.905316e+02
7.200000e-07	-1.479916e-06	-2.783756e-09	-1.054628e+01	-1.834331e+02
7.300000e-07	-1.329606e-06	-2.673558e-09	-9.475132e+00	-1.760603e+02
7.400000e-07	-1.178732e-06	-2.555632e-09	-8.399966e+00	-1.684074e+02
7.500000e-07	-1.027390e-06	-2.434383e-09	-7.321461e+00	-1.604750e+02
7.600000e-07	-8.756986e-07	-2.314675e-09	-6.240466e+00	-1.522673e+02
7.700000e-07	-7.237085e-07	-2.189030e-09	-5.157344e+00	-1.437905e+02
7.800000e-07	-5.714856e-07	-2.056067e-09	-4.072562e+00	-1.350494e+02
7.900000e-07	-4.190952e-07	-1.917670e-09	-2.986586e+00	-1.260437e+02
8.000000e-07	-2.665551e-07	-1.773304e-09	-1.899544e+00	-1.167655e+02
8.100000e-07	-1.139195e-07	-1.620363e-09	-8.118216e-01	-1.071969e+02
8.200000e-07	3.877991e-08	-1.462292e-09	2.763562e-01	-9.730933e+01
8.300000e-07	1.915088e-07	-1.304237e-09	1.364744e+00	-8.706440e+01
8.400000e-07	3.442124e-07	-1.143533e-09	2.452951e+00	-7.641643e+01
8.500000e-07	4.968380e-07	-9.747238e-10	3.540603e+00	-6.531679e+01
8.600000e-07	6.492961e-07	-7.990618e-10	4.627061e+00	-5.371935e+01
8.700000e-07	8.015814e-07	-6.184192e-10	5.712286e+00	-4.158677e+01
8.800000e-07	9.536869e-07	-4.278197e-10	6.796232e+00	-2.889680e+01
8.900000e-07	1.105567e-06	-2.281184e-10	7.878569e+00	-1.564793e+01
9.000000e-07	1.257060e-06	-1.943625e-11	8.958151e+00	-1.863599e+00
9.100000e-07	1.408030e-06	1.960387e-10	1.003400e+01	1.240550e+01
9.200000e-07	1.558367e-06	4.193244e-10	1.110535e+01	2.708150e+01
9.300000e-07	1.708024e-06	6.471051e-10	1.217184e+01	4.206187e+01
9.400000e-07	1.857093e-06	8.764465e-10	1.323415e+01	5.722422e+01
9.500000e-07	2.005548e-06	1.110110e-09	1.429208e+01	7.243303e+01
9.600000e-07	2.153325e-06	1.342490e-09	1.534518e+01	8.754753e+01
9.700000e-07	2.300264e-06	1.570093e-09	1.639231e+01	1.024301e+02
9.800000e-07	2.446214e-06	1.790576e-09	1.743238e+01	1.169544e+02
9.900000e-07	2.591293e-06	2.005029e-09	1.846626e+01	1.310119e+02
1.000000e-06	2.735559e-06	2.209889e-09	1.949434e+01	1.445174e+02
1.010000e-06	2.878784e-06	2.402353e-09	2.051500e+01	1.574117e+02
1.020000e-06	3.020769e-06	2.582117e-09	2.152682e+01	1.696618e+02
1.030000e-06	3.161482e-06	2.752783e-09	2.252958e+01	1.812598e+02
1.040000e-06	3.300924e-06	2.918761e-09	2.352328e+01	1.922187e+02
1.050000e-06	3.439105e-06	3.079381e-09	2.450800e+01	2.025676e+02
1.060000e-06	3.575990e-06	3.232213e-09	2.548348e+01	2.123461e+02
1.070000e-06	3.711515e-06	3.376256e-09	2.644927e+01	2.215983e+02
1.080000e-06	3.845675e-06	3.512896e-09	2.740533e+01	2.303684e+02
1.090000e-06	3.978435e-06	3.643116e-09	2.835141e+01	2.386961e+02
1.100000e-06	4.109796e-06	3.764406e-09	2.928753e+01	2.466147e+02
1.110000e-06	4.239776e-06	3.878448e-09	3.021379e+01	2.541503e+02
1.120000e-06	4.368297e-06	3.988020e-09	3.112967e+01	2.613216e+02
1.130000e-06	4.495257e-06	4.091414e-09	3.203442e+01	2.681427e+02
1.140000e-06	4.620631e-06	4.189178e-09	3.292787e+01	2.746242e+02
1.150000e-06	4.744420e-06	4.282627e-09	3.381002e+01	2.807768e+02
1.160000e-06	4.866563e-06	4.371518e-09	3.468045e+01	2.866128e+02
1.170000e-06	4.987018e-06	4.454552e-09	3.553885e+01	2.921481e+02
1.180000e-06	5.105629e-06	4.533659e-09	3.638410e+01	2.974028e+02
1.190000e-06	5.222287e-06	4.611737e-09	3.721544e+01	3.024008e+02
1.200000e-06	5.336971e-06	4.686222e-09	3.803270e+01	3.071687e+02
1.210000e-06	5.449606e-06	4.755488e-09	3.883537e+01	3.117340e+02
1.220000e-06	5.560207e-06	4.821264e-09	3.962354e+01	3.161229e+02
1.230000e-06	5.668812e-06	4.884650e-09	4.039749e+01	3.203580e+02
1.240000e-06	5.775442e-06	4.946043e-09	4.115737e+01	3.244564e+02
1.250000e-06	5.879980e-06	5.004361e-09	4.190233e+01	3.284290e+02
1.260000e-06	5.982335e-06	5.062099e-09	4.263174e+01	3.322797e+02
1.270000e-06	6.082472e-06	5.117294e-09	4.334535e+01	3.360062e+02
1.280000e-06	6.180294e-06	5.169715e-09	4.404246e+01	3.396014e+02
1.290000e-06	6.275792e-06	5.219824e-09	4.472300e+01	3.430550e+02
1.300000e-06	6.369038e-06	5.268149e-09	4.538749e+01	3.463560e+02
1.310000e-06	6.460101e-06	5.314193e-09	4.603644e+01	3.494946e+02
1.320000e-06	6.548817e-06	5.356373e-09	4.666865e+01	3.524644e+02
1.330000e-06	6.635149e-06	5.396929e-09	4.728388e+01	3.552628e+02
1.340000e-06	6.719232e-06	5.437607e-09	4.788307e+01	3.578925e+02
1.350000e-06	6.800948e-06	5.476220e-09	4.846541e+01	3.603603e+02
1.360000e-06	6.880151e-06	5.511384e-09	4.902983e+01	3.626770e+02
1.370000e-06	6.956762e-06	5.544475e-09	4.957578e+01	3.648554e+02
1.380000e-06	7.030774e-06	5.575320e-09	5.010321e+01	3.669088e+02
1.390000e-06	7.102238e-06	5.604242e-09	5.061247e+01	3.688496e+02
1.400000e-06	7.171143e-06	5.632179e-09	5.110351e+01	3.706882e+02
1.410000e-06	7.237434e-06	5.659005e-09	5.157592e+01	3.724313e+02
1.420000e-06	7.301132e-06	5.685372e-09	5.202985e+01	3.740828e+02
1.430000e-06	7.362346e-06	5.710685e-09	5.246607e+01	3.756431e+02
1.440000e-06	7.421080e-06	5.733219e-09	5.288463e+01	3.771105e+02
1.450000e-06	7.477170e-06	5.751874e-09	5.328435e+01	3.784822e+02
1.460000e-06	7.530464e-06	5.767331e-09	5.366413e+01	3.797555e+02
1.470000e-06	7.580690e-06	5.782356e-09	5.402205e+01	3.809288e+02
1.480000e-06	7.627918e-06	5.797029e-09	5.435862e+01	3.820026e+02
1.490000e-06	7.672514e-06	5.811015e-09	5.467642e+01	3.829798e+02
1.500000e-06	7.714380e-06	5.825586e-09	5.497476e+01	3.838659e+02
1.510000e-06	7.753421e-06	5.840176e-09	5.525299e+01	3.846678e+02
1.520000e-06	7.789836e-06	5.853662e-09	5.551249e+01	3.853937e+02
1.530000e-06	7.823505e-06	5.865644e-09	5.575242e+01	3.860513e+02
1.540000e-06	7.854318e-06	5.875743e-09	5.597201e+01	3.866474e+02
1.550000e-06	7.882412e-06	5.883972e-09	5.617221e+01	3.871862e+02
1.560000e-06	7.907587e-06	5.891556e-09	5.635162e+01	3.876696e+02
1.570000e-06	7.929860e-06	5.898526e-09	5.651034e+01	3.880964e+02
1.580000e-06	7.949472e-06	5.903642e-09	5.665009e+01	3.884631e+02
1.590000e-06	7.966254e-06	5.907771e-09	5.676969e+01	3.887644e+02
1.600000e-06	7.979984e-06	5.910644e-09	5.686754e+01	3.889943e+02
1.610000e-06	7.990530e-06	5.914087e-09	5.694269e+01	3.891473e+02
1.620000e-06	7.997990e-06	5.917723e-09	5.699585e+01	3.892193e+02
1.630000e-06	8.002630e-06	5.919986e-09	5.702892e+01	3.892086e+02
1.640000e-06	8.004396e-06	5.922731e-09	5.704150e+01	3.891164e+02
1.650000e-06	8.003371e-06	5.921921e-09	5.703420e+01	3.889465e+02
1.660000e-06	7.999779e-06	5.909788e-09	5.700860e+01	3.887052e+02
1.670000e-06	7.993494e-06	5.902889e-09	5.696381e+01	3.884005e+02
1.680000e-06	7.984544e-06	5.898857e-09	5.690003e+01	3.880410e+02
1.690000e-06	7.972855e-06	5.894292e-09	5.681673e+01	3.876348e+02
1.700000e-06	7.958315e-06	5.890692e-09	5.671312e+01	3.871886e+02
1.710000e-06	7.941199e-06	5.888763e-09	5.659114e+01	3.867069e+02
1.720000e-06	7.921861e-06	5.887869e-09	5.645333e+01	3.861916e+02
1.730000e-06	7.900041e-06	5.803498e-09	5.629784e+01	3.856419e+02
1.740000e-06	7.875018e-06	5.765428e-09	5.611952e+01	3.850546e+02
1.750000e-06	7.846420e-06	5.830281e-09	5.591572e+01	3.844251e+02
1.760000e-06	7.814394e-06	5.829558e-09	5.568750e+01	3.837476e+02
1.770000e-06	7.779741e-06	5.795073e-09	5.544055e+01	3.830167e+02
1.780000e-06	7.742806e-06	5.841204e-09	5.517734e+01	3.822274e+02
1.790000e-06	7.703646e-06	5.877560e-09	5.489827e+01	3.813761e+02
1.800000e-06	7.662446e-06	5.727873e-09	5.460467e+01	3.804606e+02
1.810000e-06	7.618760e-06	5.804560e-09	5.429335e+01	3.794801e+02
1.820000e-06	7.572430e-06	5.808057e-09	5.396320e+01	3.784348e+02
1.830000e-06	7.523440e-06	5.718457e-09	5.361408e+01	3.773255e+02
1.840000e-06	7.471457e-06	5.791742e-09	5.324363e+01	3.761528e+02
1.850000e-06	7.416527e-06	5.662812e-09	5.285219e+01	3.749166e+02
1.860000e-06	7.358810e-06	5.726556e-09	5.244088e+01	3.736161e+02
1.870000e-06	7.298502e-06	5.685991e-09	5.201110e+01	3.722489e+02
1.880000e-06	7.235531e-06	5.632926e-09	5.156236e+01	3.708118e+02
1.890000e-06	7.169743e-06	5.709306e-09	5.109353e+01	3.693009e+02
1.900000e-06	7.101203e-06	5.594951e-09	5.060510e+01	3.677122e+02
1.910000e-06	7.029786e-06	5.598690e-09	5.009616e+01	3.660421e+02
1.920000e-06	6.955654e-06	5.545870e-09	4.956788e+01	3.642880e+02
1.930000e-06	6.878789e-06	5.565738e-09	4.902012e+01	3.624488e+02
1.940000e-06	6.799162e-06	5.522540e-09	4.845268e+01	3.605251e+02
1.950000e-06	6.717097e-06	5.436304e-09	4.786786e+01	3.585187e+02
1.960000e-06	6.632601e-06	5.479291e-09	4.726572e+01	3.564326e+02
1.970000e-06	6.545611e-06	5.391218e-09	4.664580e+01	3.542703e+02
1.980000e-06	6.456229e-06	5.380375e-09	4.600884e+01	3.520349e+02
1.990000e-06	6.364676e-06	5.344458e-09	4.535641e+01	3.497289e+02
2.000000e-06	6.270918e-06	5.326537e-09	4.468827e+01	3.473529e+02
2.010000e-06	6.174837e-06	5.262683e-09	4.400357e+01	3.449062e+02
2.020000e-06	6.076495e-06	5.195274e-09	4.330275e+01	3.423860e+02
2.030000e-06	5.976004e-06	5.189146e-09	4.258663e+01	3.397885e+02
2.040000e-06	5.873363e-06	5.152188e-09	4.185518e+01	3.371087e+02
2.050000e-06	5.768622e-06	5.115519e-09	4.110877e+01	3.343418e+02
2.060000e-06	5.661986e-06	5.045550e-09	4.034885e+01	3.314835e+02
2.070000e-06	5.553378e-06	5.025023e-09	3.957488e+01	3.285309e+02
2.080000e-06	5.442715e-06	4.968879e-09	3.878627e+01	3.254826e+02
2.090000e-06	5.330019e-06	4.921829e-09	3.798316e+01	3.223390e+02
2.100000e-06	5.215360e-06	4.879298e-09	3.716607e+01	3.191019e+02
2.110000e-06	5.098775e-06	4.834952e-09	3.633526e+01	3.157737e+02
2.120000e-06	4.980188e-06	4.765822e-09	3.549018e+01	3.123568e+02
2.130000e-06	4.859689e-06	4.701647e-09	3.463146e+01	3.088523e+02
2.140000e-06	4.737433e-06	4.664425e-09	3.376023e+01	3.052597e+02
2.150000e-06	4.613431e-06	4.615335e-09	3.287656e+01	3.015756e+02
2.160000e-06	4.487701e-06	4.557459e-09	3.198058e+01	2.977943e+02
2.170000e-06	4.360339e-06	4.489220e-09	3.107296e+01	2.939075e+02
2.180000e-06	4.231397e-06	4.438032e-09	3.015409e+01	2.899051e+02
2.190000e-06	4.100958e-06	4.373556e-09	2.922454e+01	2.857764e+02
2.200000e-06	3.969002e-06	4.310244e-09	2.828418e+01	2.815115e+02
2.210000e-06	3.835595e-06	4.238558e-09	2.733349e+01	2.771022e+02
2.220000e-06	3.700723e-06	4.166232e-09	2.637235e+01	2.725433e+02
2.230000e-06	3.564410e-06	4.086564e-09	2.540095e+01	2.678329e+02
2.240000e-06	3.426738e-06	4.014898e-09	2.441987e+01	2.629731e+02
2.250000e-06	3.287691e-06	3.949265e-09	2.342898e+01	2.579685e+02
2.260000e-06	3.147396e-06	3.874871e-09	2.242920e+01	2.528256e+02
2.270000e-06	3.005895e-06	3.791385e-09	2.142083e+01	2.475511e+02
2.280000e-06	2.863185e-06	3.703728e-09	2.040383e+01	2.421500e+02
2.290000e-06	2.719339e-06	3.618977e-09	1.937874e+01	2.366239e+02
2.300000e-06	2.574593e-06	3.532119e-09	1.834725e+01	2.309695e+02
2.310000e-06	2.429070e-06	3.449117e-09	1.731022e+01	2.251779e+02
2.320000e-06	2.282765e-06	3.359097e-09	1.626760e+01	2.192345e+02
2.330000e-06	2.135540e-06	3.259829e-09	1.521844e+01	2.131202e+02
2.340000e-06	1.987405e-06	3.158692e-09	1.416279e+01	2.068123e+02
2.350000e-06	1.838635e-06	3.063210e-09	1.310262e+01	2.002874e+02
2.360000e-06	1.689468e-06	2.965492e-09	1.203960e+01	1.935230e+02
2.370000e-06	1.539897e-06	2.856063e-09	1.097373e+01	1.865005e+02
2.380000e-06	1.389815e-06	2.740029e-09	9.904202e+00	1.792063e+02
2.390000e-06	1.239214e-06	2.621757e-09	8.830972e+00	1.716331e+02
2.400000e-06	1.088180e-06	2.501303e-09	7.754669e+00	1.637797e+02
2.410000e-06	9.367680e-07	2.380493e-09	6.675663e+00	1.556495e+02
2.420000e-06	7.849915e-07	2.257294e-09	5.594062e+00	1.472485e+02
2.430000e-06	6.329760e-07	2.127007e-09	4.510759e+00	1.385821e+02
2.440000e-06	4.807343e-07	1.990958e-09	3.425843e+00	1.296519e+02
2.450000e-06	3.283146e-07	1.854615e-09	2.339659e+00	1.204524e+02
2.460000e-06	1.757516e-07	1.715360e-09	1.252453e+00	1.109687e+02
2.470000e-06	2.307969e-08	1.566366e-09	1.644721e-01	1.011752e+02
2.480000e-06	-1.296084e-07	1.407920e-09	-9.236248e-01	9.103626e+01
2.490000e-06	-2.822842e-07	1.244156e-09	-2.011634e+00	8.050784e+01
2.500000e-06	-4.348795e-07	1.074507e-09	-3.099070e+00	6.954164e+01
2.510000e-06	-5.873005e-07	8.986525e-10	-4.185263e+00	5.809020e+01
2.520000e-06	-7.395093e-07	7.187844e-10	-5.269944e+00	4.611303e+01
2.530000e-06	-8.915480e-07	5.310452e-10	-6.353413e+00	3.358293e+01
2.540000e-06	-1.043338e-06	3.320894e-10	-7.435108e+00	2.049197e+01
2.550000e-06	-1.194706e-06	1.234447e-10	-8.513802e+00	6.856132e+00
2.560000e-06	-1.345585e-06	-9.170292e-11	-9.589002e+00	-7.281783e+00
2.570000e-06	-1.495954e-06	-3.124131e-10	-1.066057e+01	-2.185152e+01
2.580000e-06	-1.645768e-06	-5.406314e-10	-1.172819e+01	-3.675719e+01
2.590000e-06	-1.795033e-06	-7.738181e-10	-1.279189e+01	-5.188148e+01
2.600000e-06	-1.943699e-06	-1.008831e-09	-1.385132e+01	-6.709185e+01
2.610000e-06	-2.091660e-06	-1.242293e-09	-1.490574e+01	-8.224816e+01
2.620000e-06	-2.238765e-06	-1.471984e-09	-1.595405e+01	-9.721108e+01
2.630000e-06	-2.384945e-06	-1.697215e-09	-1.699576e+01	-1.118502e+02
2.640000e-06	-2.530224e-06	-1.915872e-09	-1.803107e+01	-1.260514e+02
2.650000e-06	-2.674545e-06	-2.126859e-09	-1.905953e+01	-1.397224e+02
2.660000e-06	-2.817836e-06	-2.327047e-09	-2.008067e+01	-1.527963e+02
2.670000e-06	-2.960001e-06	-2.515252e-09	-2.109377e+01	-1.652329e+02
2.680000e-06	-3.100998e-06	-2.693422e-09	-2.209856e+01	-1.770173e+02
2.690000e-06	-3.240847e-06	-2.860594e-09	-2.309516e+01	-1.881570e+02
2.700000e-06	-3.379438e-06	-3.018668e-09	-2.408279e+01	-1.986770e+02
2.710000e-06	-3.516661e-06	-3.171305e-09	-2.506068e+01	-2.086145e+02
2.720000e-06	-3.652575e-06	-3.316375e-09	-2.602924e+01	-2.180131e+02
2.730000e-06	-3.787163e-06	-3.451468e-09	-2.698835e+01	-2.269171e+02
2.740000e-06	-3.920399e-06	-3.581669e-09	-2.793783e+01	-2.353680e+02
2.750000e-06	-4.052304e-06	-3.708983e-09	-2.887782e+01	-2.434011e+02
2.760000e-06	-4.182779e-06	-3.828574e-09	-2.980762e+01	-2.510445e+02
2.770000e-06	-4.311766e-06	-3.938457e-09	-3.072682e+01	-2.583188e+02
2.780000e-06	-4.439297e-06	-4.041020e-09	-3.163564e+01	-2.652393e+02
2.790000e-06	-4.565295e-06	-4.138776e-09	-3.253353e+01	-2.718173e+02
2.800000e-06	-4.689725e-06	-4.230846e-09	-3.342026e+01	-2.780633e+02
2.810000e-06	-4.812476e-06	-4.317795e-09	-3.429501e+01	-2.839888e+02
2.820000e-06	-4.933442e-06	-4.402124e-09	-3.515705e+01	-2.896087e+02
2.830000e-06	-5.052637e-06	-4.485453e-09	-3.600647e+01	-2.949418e+02
2.840000e-06	-5.169893e-06	-4.565377e-09	-3.684206e+01	-3.000111e+02
2.850000e-06	-5.284984e-06	-4.641019e-09	-3.766223e+01	-3.048425e+02
2.860000e-06	-5.397886e-06	-4.715581e-09	-3.846680e+01	-3.094634e+02
2.870000e-06	-5.508685e-06	-4.786734e-09	-3.925639e+01	-3.139008e+02
2.880000e-06	-5.617457e-06	-4.852022e-09	-4.003152e+01	-3.181783e+02
2.890000e-06	-5.724310e-06	-4.913563e-09	-4.079299e+01	-3.223149e+02
2.900000e-06	-5.829158e-06	-4.974200e-09	-4.154017e+01	-3.263233e+02
2.910000e-06	-5.931894e-06	-5.035746e-09	-4.227229e+01	-3.302094e+02
2.920000e-06	-6.032453e-06	-5.096047e-09	-4.298890e+01	-3.339725e+02
2.930000e-06	-6.130794e-06	-5.154491e-09	-4.368970e+01	-3.376066e+02
2.940000e-06	-6.226945e-06	-5.210867e-09	-4.437490e+01	-3.411023e+02
