# Temperatura_=_37.47
# Concentracion g/m^3_=_5000.0
# C_Vs_to_Am_M_A/Vsm_=_65563218390.804596
# pendiente_HvsI_1/m_=_3716.3
# ordenada_HvsI_A/m_=_1297.0
# frecuencia_Hz_=_302498.34360689396

Tiempo_(s)	Campo_(V.s)	Magnetizacion_(V.s)	Campo_(kA/m)	Magnetizacion_(A/m)
0.000000e+00	-7.939602e-06	-5.847717e-09	-5.686833e+01	-3.824179e+02
1.000000e-08	-7.935177e-06	-5.847533e-09	-5.683663e+01	-3.821842e+02
2.000000e-08	-7.928212e-06	-5.838818e-09	-5.678674e+01	-3.818842e+02
3.000000e-08	-7.918564e-06	-5.834045e-09	-5.671764e+01	-3.815291e+02
4.000000e-08	-7.906074e-06	-5.829171e-09	-5.662817e+01	-3.811311e+02
5.000000e-08	-7.890604e-06	-5.821245e-09	-5.651737e+01	-3.807022e+02
6.000000e-08	-7.872453e-06	-5.811381e-09	-5.638736e+01	-3.802527e+02
7.000000e-08	-7.852069e-06	-5.799870e-09	-5.624136e+01	-3.797896e+02
8.000000e-08	-7.829110e-06	-5.821505e-09	-5.607691e+01	-3.793162e+02
9.000000e-08	-7.802990e-06	-5.875698e-09	-5.588982e+01	-3.788315e+02
1.000000e-07	-7.773706e-06	-5.829496e-09	-5.568008e+01	-3.783304e+02
1.100000e-07	-7.741606e-06	-5.772058e-09	-5.545015e+01	-3.778044e+02
1.200000e-07	-7.706774e-06	-5.761865e-09	-5.520066e+01	-3.772428e+02
1.300000e-07	-7.669440e-06	-5.736898e-09	-5.493326e+01	-3.766335e+02
1.400000e-07	-7.629987e-06	-5.679747e-09	-5.465067e+01	-3.759648e+02
1.500000e-07	-7.588306e-06	-5.678072e-09	-5.435213e+01	-3.752263e+02
1.600000e-07	-7.544011e-06	-5.790695e-09	-5.403485e+01	-3.744099e+02
1.700000e-07	-7.497066e-06	-5.683770e-09	-5.369861e+01	-3.735105e+02
1.800000e-07	-7.447278e-06	-5.667575e-09	-5.334199e+01	-3.725255e+02
1.900000e-07	-7.394408e-06	-5.709706e-09	-5.296331e+01	-3.714556e+02
2.000000e-07	-7.338736e-06	-5.603007e-09	-5.256455e+01	-3.703034e+02
2.100000e-07	-7.280361e-06	-5.621941e-09	-5.214643e+01	-3.690728e+02
2.200000e-07	-7.219340e-06	-5.594928e-09	-5.170936e+01	-3.677685e+02
2.300000e-07	-7.155754e-06	-5.580417e-09	-5.125392e+01	-3.663953e+02
2.400000e-07	-7.089391e-06	-5.552125e-09	-5.077859e+01	-3.649569e+02
2.500000e-07	-7.020357e-06	-5.513901e-09	-5.028413e+01	-3.634563e+02
2.600000e-07	-6.948685e-06	-5.525598e-09	-4.977076e+01	-3.618951e+02
2.700000e-07	-6.874168e-06	-5.494929e-09	-4.923703e+01	-3.602738e+02
2.800000e-07	-6.796858e-06	-5.459705e-09	-4.868329e+01	-3.585920e+02
2.900000e-07	-6.716826e-06	-5.416282e-09	-4.811005e+01	-3.568486e+02
3.000000e-07	-6.634283e-06	-5.426221e-09	-4.751882e+01	-3.550424e+02
3.100000e-07	-6.549494e-06	-5.404681e-09	-4.691151e+01	-3.531718e+02
3.200000e-07	-6.462496e-06	-5.336953e-09	-4.628838e+01	-3.512357e+02
3.300000e-07	-6.373182e-06	-5.325535e-09	-4.564865e+01	-3.492325e+02
3.400000e-07	-6.281528e-06	-5.284616e-09	-4.499217e+01	-3.471611e+02
3.500000e-07	-6.187657e-06	-5.244913e-09	-4.431981e+01	-3.450197e+02
3.600000e-07	-6.091494e-06	-5.212422e-09	-4.363104e+01	-3.428066e+02
3.700000e-07	-5.993025e-06	-5.199621e-09	-4.292574e+01	-3.405193e+02
3.800000e-07	-5.892415e-06	-5.173126e-09	-4.220511e+01	-3.381551e+02
3.900000e-07	-5.789803e-06	-5.111846e-09	-4.147014e+01	-3.357107e+02
4.000000e-07	-5.685146e-06	-5.064754e-09	-4.072052e+01	-3.331829e+02
4.100000e-07	-5.578455e-06	-5.025662e-09	-3.995633e+01	-3.305685e+02
4.200000e-07	-5.469795e-06	-5.000751e-09	-3.917804e+01	-3.278646e+02
4.300000e-07	-5.359204e-06	-4.949731e-09	-3.838592e+01	-3.250691e+02
4.400000e-07	-5.246619e-06	-4.901975e-09	-3.757952e+01	-3.221807e+02
4.500000e-07	-5.131881e-06	-4.860461e-09	-3.675769e+01	-3.191986e+02
4.600000e-07	-5.015152e-06	-4.810783e-09	-3.592161e+01	-3.161226e+02
4.700000e-07	-4.896711e-06	-4.754630e-09	-3.507326e+01	-3.129522e+02
4.800000e-07	-4.776501e-06	-4.711167e-09	-3.421224e+01	-3.096870e+02
4.900000e-07	-4.654452e-06	-4.671070e-09	-3.333805e+01	-3.063254e+02
5.000000e-07	-4.530714e-06	-4.609971e-09	-3.245177e+01	-3.028644e+02
5.100000e-07	-4.405363e-06	-4.547975e-09	-3.155392e+01	-2.992995e+02
5.200000e-07	-4.278421e-06	-4.493988e-09	-3.064469e+01	-2.956248e+02
5.300000e-07	-4.149906e-06	-4.441000e-09	-2.972419e+01	-2.918330e+02
5.400000e-07	-4.019832e-06	-4.367866e-09	-2.879251e+01	-2.879160e+02
5.500000e-07	-3.888235e-06	-4.300507e-09	-2.784994e+01	-2.838660e+02
5.600000e-07	-3.755158e-06	-4.244633e-09	-2.689676e+01	-2.796755e+02
5.700000e-07	-3.620693e-06	-4.181772e-09	-2.593364e+01	-2.753389e+02
5.800000e-07	-3.484896e-06	-4.111301e-09	-2.496097e+01	-2.708525e+02
5.900000e-07	-3.347619e-06	-4.041075e-09	-2.397771e+01	-2.662147e+02
6.000000e-07	-3.208931e-06	-3.970766e-09	-2.298434e+01	-2.614260e+02
6.100000e-07	-3.069035e-06	-3.886036e-09	-2.198232e+01	-2.564886e+02
6.200000e-07	-2.927832e-06	-3.805696e-09	-2.097094e+01	-2.514049e+02
6.300000e-07	-2.785388e-06	-3.733184e-09	-1.995066e+01	-2.461770e+02
6.400000e-07	-2.641916e-06	-3.657513e-09	-1.892303e+01	-2.408047e+02
6.500000e-07	-2.497450e-06	-3.571945e-09	-1.788827e+01	-2.352852e+02
6.600000e-07	-2.352090e-06	-3.480829e-09	-1.684712e+01	-2.296119e+02
6.700000e-07	-2.205966e-06	-3.391971e-09	-1.580049e+01	-2.237739e+02
6.800000e-07	-2.059093e-06	-3.300942e-09	-1.474849e+01	-2.177569e+02
6.900000e-07	-1.911547e-06	-3.208383e-09	-1.369168e+01	-2.115434e+02
7.000000e-07	-1.763409e-06	-3.110656e-09	-1.263062e+01	-2.051144e+02
7.100000e-07	-1.614756e-06	-3.005797e-09	-1.156588e+01	-1.984510e+02
7.200000e-07	-1.465632e-06	-2.895873e-09	-1.049776e+01	-1.915359e+02
7.300000e-07	-1.316048e-06	-2.785612e-09	-9.426350e+00	-1.843549e+02
7.400000e-07	-1.166081e-06	-2.671434e-09	-8.352194e+00	-1.768980e+02
7.500000e-07	-1.015702e-06	-2.555040e-09	-7.275084e+00	-1.691594e+02
7.600000e-07	-8.649535e-07	-2.439087e-09	-6.195330e+00	-1.611373e+02
7.700000e-07	-7.139090e-07	-2.315806e-09	-5.113456e+00	-1.528321e+02
7.800000e-07	-5.625346e-07	-2.184879e-09	-4.029219e+00	-1.442448e+02
7.900000e-07	-4.109229e-07	-2.048346e-09	-2.943283e+00	-1.353744e+02
8.000000e-07	-2.592549e-07	-1.906675e-09	-1.856943e+00	-1.262153e+02
8.100000e-07	-1.075150e-07	-1.756497e-09	-7.700890e-01	-1.167555e+02
8.200000e-07	4.437112e-08	-1.600574e-09	3.178133e-01	-1.069751e+02
8.300000e-07	1.963282e-07	-1.444463e-09	1.406224e+00	-9.684640e+01
8.400000e-07	3.482711e-07	-1.285316e-09	2.494532e+00	-8.633475e+01
8.500000e-07	5.002013e-07	-1.118702e-09	3.582750e+00	-7.540137e+01
8.600000e-07	6.519854e-07	-9.458970e-10	4.669921e+00	-6.400712e+01
8.700000e-07	8.034884e-07	-7.685602e-10	5.755079e+00	-5.211734e+01
8.800000e-07	9.546979e-07	-5.801337e-10	6.838134e+00	-3.970713e+01
8.900000e-07	1.105604e-06	-3.843432e-10	7.919019e+00	-2.676657e+01
9.000000e-07	1.256120e-06	-1.844149e-10	8.997103e+00	-1.330525e+01
9.100000e-07	1.406148e-06	2.352566e-11	1.007170e+01	6.445305e-01
9.200000e-07	1.555642e-06	2.445396e-10	1.114247e+01	1.502624e+01
9.300000e-07	1.704605e-06	4.740990e-10	1.220943e+01	2.975969e+01
9.400000e-07	1.853046e-06	7.034351e-10	1.327266e+01	4.474362e+01
9.500000e-07	2.000842e-06	9.330030e-10	1.433126e+01	5.986035e+01
9.600000e-07	2.147866e-06	1.162215e-09	1.538434e+01	7.498187e+01
9.700000e-07	2.294034e-06	1.388632e-09	1.643129e+01	8.997697e+01
9.800000e-07	2.439375e-06	1.610670e-09	1.747231e+01	1.047187e+02
9.900000e-07	2.583824e-06	1.829264e-09	1.850694e+01	1.190913e+02
1.000000e-06	2.727252e-06	2.043676e-09	1.953426e+01	1.329963e+02
1.010000e-06	2.869660e-06	2.246014e-09	2.055428e+01	1.463566e+02
1.020000e-06	3.010973e-06	2.434194e-09	2.156644e+01	1.591192e+02
1.030000e-06	3.151009e-06	2.614315e-09	2.256947e+01	1.712548e+02
1.040000e-06	3.289673e-06	2.788582e-09	2.356266e+01	1.827568e+02
1.050000e-06	3.427105e-06	2.954735e-09	2.454704e+01	1.936374e+02
1.060000e-06	3.563325e-06	3.112210e-09	2.552273e+01	2.039232e+02
1.070000e-06	3.698110e-06	3.260262e-09	2.648814e+01	2.136501e+02
1.080000e-06	3.831559e-06	3.400716e-09	2.744399e+01	2.228579e+02
1.090000e-06	3.963716e-06	3.534992e-09	2.839057e+01	2.315866e+02
1.100000e-06	4.094347e-06	3.662672e-09	2.932624e+01	2.398720e+02
1.110000e-06	4.223530e-06	3.785724e-09	3.025153e+01	2.477445e+02
1.120000e-06	4.351244e-06	3.902055e-09	3.116629e+01	2.552279e+02
1.130000e-06	4.477441e-06	4.009529e-09	3.207019e+01	2.623399e+02
1.140000e-06	4.602215e-06	4.109381e-09	3.296390e+01	2.690941e+02
1.150000e-06	4.725332e-06	4.206553e-09	3.384574e+01	2.755017e+02
1.160000e-06	4.846786e-06	4.298930e-09	3.471567e+01	2.815741e+02
1.170000e-06	4.966519e-06	4.384177e-09	3.557327e+01	2.873245e+02
1.180000e-06	5.084422e-06	4.463096e-09	3.641776e+01	2.927698e+02
1.190000e-06	5.200446e-06	4.539696e-09	3.724880e+01	2.979307e+02
1.200000e-06	5.314427e-06	4.615844e-09	3.806520e+01	3.028313e+02
1.210000e-06	5.426307e-06	4.688698e-09	3.886656e+01	3.074983e+02
1.220000e-06	5.536232e-06	4.757850e-09	3.965390e+01	3.119588e+02
1.230000e-06	5.644260e-06	4.823865e-09	4.042767e+01	3.162382e+02
1.240000e-06	5.750276e-06	4.886756e-09	4.118702e+01	3.203582e+02
1.250000e-06	5.854187e-06	4.946698e-09	4.193129e+01	3.243352e+02
1.260000e-06	5.955943e-06	5.004876e-09	4.266013e+01	3.281789e+02
1.270000e-06	6.055492e-06	5.060209e-09	4.337316e+01	3.318927e+02
1.280000e-06	6.152745e-06	5.112184e-09	4.406975e+01	3.354736e+02
1.290000e-06	6.247742e-06	5.161371e-09	4.475018e+01	3.389142e+02
1.300000e-06	6.340476e-06	5.209178e-09	4.541440e+01	3.422043e+02
1.310000e-06	6.430899e-06	5.254817e-09	4.606206e+01	3.453331e+02
1.320000e-06	6.518995e-06	5.298044e-09	4.669306e+01	3.482915e+02
1.330000e-06	6.604828e-06	5.340166e-09	4.730785e+01	3.510739e+02
1.340000e-06	6.688382e-06	5.380602e-09	4.790631e+01	3.536791e+02
1.350000e-06	6.769558e-06	5.417515e-09	4.848775e+01	3.561112e+02
1.360000e-06	6.848264e-06	5.450884e-09	4.905149e+01	3.583788e+02
1.370000e-06	6.924342e-06	5.483181e-09	4.959640e+01	3.604943e+02
1.380000e-06	6.997776e-06	5.513221e-09	5.012239e+01	3.624725e+02
1.390000e-06	7.068720e-06	5.540229e-09	5.063053e+01	3.643285e+02
1.400000e-06	7.137203e-06	5.565831e-09	5.112105e+01	3.660763e+02
1.410000e-06	7.203105e-06	5.590956e-09	5.159307e+01	3.677273e+02
1.420000e-06	7.266433e-06	5.616253e-09	5.204667e+01	3.692894e+02
1.430000e-06	7.327338e-06	5.639482e-09	5.248291e+01	3.707666e+02
1.440000e-06	7.385690e-06	5.659659e-09	5.290086e+01	3.721595e+02
1.450000e-06	7.441397e-06	5.677226e-09	5.329987e+01	3.734660e+02
1.460000e-06	7.494325e-06	5.693063e-09	5.367897e+01	3.746826e+02
1.470000e-06	7.544167e-06	5.708466e-09	5.403597e+01	3.758057e+02
1.480000e-06	7.591087e-06	5.723454e-09	5.437204e+01	3.768331e+02
1.490000e-06	7.635363e-06	5.737908e-09	5.468917e+01	3.777648e+02
1.500000e-06	7.676859e-06	5.751770e-09	5.498640e+01	3.786038e+02
1.510000e-06	7.715587e-06	5.765801e-09	5.526379e+01	3.793555e+02
1.520000e-06	7.751715e-06	5.779020e-09	5.552256e+01	3.800279e+02
1.530000e-06	7.785067e-06	5.790318e-09	5.576145e+01	3.806301e+02
1.540000e-06	7.815581e-06	5.799223e-09	5.598001e+01	3.811713e+02
1.550000e-06	7.843430e-06	5.806425e-09	5.617948e+01	3.816594e+02
1.560000e-06	7.868444e-06	5.813563e-09	5.635864e+01	3.821000e+02
1.570000e-06	7.890521e-06	5.820861e-09	5.651677e+01	3.824954e+02
1.580000e-06	7.909858e-06	5.826677e-09	5.665527e+01	3.828445e+02
1.590000e-06	7.926388e-06	5.830166e-09	5.677368e+01	3.831432e+02
1.600000e-06	7.939925e-06	5.833164e-09	5.687063e+01	3.833849e+02
1.610000e-06	7.950281e-06	5.835709e-09	5.694481e+01	3.835618e+02
1.620000e-06	7.957578e-06	5.837277e-09	5.699708e+01	3.836664e+02
1.630000e-06	7.962090e-06	5.838596e-09	5.702939e+01	3.836926e+02
1.640000e-06	7.963780e-06	5.841958e-09	5.704150e+01	3.836372e+02
1.650000e-06	7.962722e-06	5.844980e-09	5.703392e+01	3.835008e+02
1.660000e-06	7.959095e-06	5.835239e-09	5.700794e+01	3.832873e+02
1.670000e-06	7.952798e-06	5.830109e-09	5.696284e+01	3.830048e+02
1.680000e-06	7.943801e-06	5.827556e-09	5.689840e+01	3.826637e+02
1.690000e-06	7.932097e-06	5.823695e-09	5.681456e+01	3.822762e+02
1.700000e-06	7.917544e-06	5.821048e-09	5.671033e+01	3.818546e+02
1.710000e-06	7.900443e-06	5.821535e-09	5.658784e+01	3.814096e+02
1.720000e-06	7.881118e-06	5.821628e-09	5.644942e+01	3.809494e+02
1.730000e-06	7.859328e-06	5.751423e-09	5.629335e+01	3.804784e+02
1.740000e-06	7.834341e-06	5.704552e-09	5.611438e+01	3.799968e+02
1.750000e-06	7.805713e-06	5.764459e-09	5.590933e+01	3.795007e+02
1.760000e-06	7.773796e-06	5.769426e-09	5.568072e+01	3.789824e+02
1.770000e-06	7.739295e-06	5.740798e-09	5.543360e+01	3.784317e+02
1.780000e-06	7.702510e-06	5.796625e-09	5.517013e+01	3.778368e+02
1.790000e-06	7.663521e-06	5.841171e-09	5.489086e+01	3.771857e+02
1.800000e-06	7.622462e-06	5.673741e-09	5.459677e+01	3.764677e+02
1.810000e-06	7.578934e-06	5.717790e-09	5.428500e+01	3.756738e+02
1.820000e-06	7.532749e-06	5.741633e-09	5.395419e+01	3.747979e+02
1.830000e-06	7.483897e-06	5.660035e-09	5.360428e+01	3.738370e+02
1.840000e-06	7.432072e-06	5.767308e-09	5.323308e+01	3.727908e+02
1.850000e-06	7.377334e-06	5.654052e-09	5.284102e+01	3.716612e+02
1.860000e-06	7.319878e-06	5.682747e-09	5.242948e+01	3.704521e+02
1.870000e-06	7.259844e-06	5.632871e-09	5.199948e+01	3.691679e+02
1.880000e-06	7.197122e-06	5.556618e-09	5.155023e+01	3.678135e+02
1.890000e-06	7.131532e-06	5.646540e-09	5.108043e+01	3.663930e+02
1.900000e-06	7.063192e-06	5.546103e-09	5.059093e+01	3.649095e+02
1.910000e-06	6.992026e-06	5.555259e-09	5.008120e+01	3.633650e+02
1.920000e-06	6.918183e-06	5.508865e-09	4.955229e+01	3.617604e+02
1.930000e-06	6.841636e-06	5.505962e-09	4.900401e+01	3.600955e+02
1.940000e-06	6.762337e-06	5.491987e-09	4.843603e+01	3.583694e+02
1.950000e-06	6.680622e-06	5.408353e-09	4.785073e+01	3.565808e+02
1.960000e-06	6.596499e-06	5.443784e-09	4.724819e+01	3.547283e+02
1.970000e-06	6.509883e-06	5.362129e-09	4.662780e+01	3.528106e+02
1.980000e-06	6.420773e-06	5.355790e-09	4.598953e+01	3.508263e+02
1.990000e-06	6.329454e-06	5.328909e-09	4.533545e+01	3.487740e+02
2.000000e-06	6.235976e-06	5.310213e-09	4.466590e+01	3.466524e+02
2.010000e-06	6.140199e-06	5.257821e-09	4.397989e+01	3.444595e+02
2.020000e-06	6.042247e-06	5.183677e-09	4.327830e+01	3.421932e+02
2.030000e-06	5.942209e-06	5.178925e-09	4.256176e+01	3.398508e+02
2.040000e-06	5.840055e-06	5.149562e-09	4.183008e+01	3.374293e+02
2.050000e-06	5.735772e-06	5.143273e-09	4.108314e+01	3.349252e+02
2.060000e-06	5.629498e-06	5.076270e-09	4.032194e+01	3.323353e+02
2.070000e-06	5.521312e-06	5.034229e-09	3.954704e+01	3.296568e+02
2.080000e-06	5.411225e-06	4.979810e-09	3.875853e+01	3.268872e+02
2.090000e-06	5.299146e-06	4.932814e-09	3.795575e+01	3.240250e+02
2.100000e-06	5.185092e-06	4.899528e-09	3.713883e+01	3.210693e+02
2.110000e-06	5.069061e-06	4.871980e-09	3.630774e+01	3.180196e+02
2.120000e-06	4.951015e-06	4.819256e-09	3.546222e+01	3.148758e+02
2.130000e-06	4.831050e-06	4.747902e-09	3.460296e+01	3.116374e+02
2.140000e-06	4.709320e-06	4.702849e-09	3.373106e+01	3.083030e+02
2.150000e-06	4.585943e-06	4.660042e-09	3.284735e+01	3.048703e+02
2.160000e-06	4.460884e-06	4.615701e-09	3.195160e+01	3.013352e+02
2.170000e-06	4.334152e-06	4.545736e-09	3.104387e+01	2.976921e+02
2.180000e-06	4.205732e-06	4.493205e-09	3.012405e+01	2.939341e+02
2.190000e-06	4.075793e-06	4.432204e-09	2.919334e+01	2.900533e+02
2.200000e-06	3.944447e-06	4.367515e-09	2.825256e+01	2.860416e+02
2.210000e-06	3.811580e-06	4.302761e-09	2.730089e+01	2.818915e+02
2.220000e-06	3.677229e-06	4.244478e-09	2.633858e+01	2.775967e+02
2.230000e-06	3.541542e-06	4.173893e-09	2.536671e+01	2.731528e+02
2.240000e-06	3.404533e-06	4.102063e-09	2.438536e+01	2.685578e+02
2.250000e-06	3.266269e-06	4.040702e-09	2.339503e+01	2.638117e+02
2.260000e-06	3.126818e-06	3.974825e-09	2.239620e+01	2.589160e+02
2.270000e-06	2.986082e-06	3.893462e-09	2.138816e+01	2.538734e+02
2.280000e-06	2.844069e-06	3.798764e-09	2.037098e+01	2.486861e+02
2.290000e-06	2.700916e-06	3.713311e-09	1.934562e+01	2.433548e+02
2.300000e-06	2.556835e-06	3.629733e-09	1.831363e+01	2.378774e+02
2.310000e-06	2.411885e-06	3.553231e-09	1.727541e+01	2.322485e+02
2.320000e-06	2.266170e-06	3.473029e-09	1.623171e+01	2.264585e+02
2.330000e-06	2.119777e-06	3.378877e-09	1.518315e+01	2.204938e+02
2.340000e-06	1.972666e-06	3.274371e-09	1.412945e+01	2.143379e+02
2.350000e-06	1.824827e-06	3.174162e-09	1.307053e+01	2.079720e+02
2.360000e-06	1.676357e-06	3.079701e-09	1.200710e+01	2.013770e+02
2.370000e-06	1.527379e-06	2.979683e-09	1.094003e+01	1.945349e+02
2.380000e-06	1.377936e-06	2.870753e-09	9.869626e+00	1.874306e+02
2.390000e-06	1.228072e-06	2.755695e-09	8.796211e+00	1.800528e+02
2.400000e-06	1.077805e-06	2.635378e-09	7.719905e+00	1.723946e+02
2.410000e-06	9.271650e-07	2.512116e-09	6.640927e+00	1.644531e+02
2.420000e-06	7.761779e-07	2.390575e-09	5.559464e+00	1.562282e+02
2.430000e-06	6.248684e-07	2.267973e-09	4.475693e+00	1.477211e+02
2.440000e-06	4.733246e-07	2.135744e-09	3.390242e+00	1.389314e+02
2.450000e-06	3.216127e-07	1.996387e-09	2.303588e+00	1.298552e+02
2.460000e-06	1.697299e-07	1.855497e-09	1.215710e+00	1.204825e+02
2.470000e-06	1.769286e-08	1.708918e-09	1.267272e-01	1.107958e+02
2.480000e-06	-1.343991e-07	1.554364e-09	-9.626495e-01	1.007694e+02
2.490000e-06	-2.864141e-07	1.393206e-09	-2.051474e+00	9.037057e+01
2.500000e-06	-4.383342e-07	1.226463e-09	-3.139620e+00	7.956129e+01
2.510000e-06	-5.900998e-07	1.054045e-09	-4.226658e+00	6.830209e+01
2.520000e-06	-7.416358e-07	8.764860e-10	-5.312052e+00	5.655650e+01
2.530000e-06	-8.928948e-07	6.928915e-10	-6.395463e+00	4.429628e+01
2.540000e-06	-1.043793e-06	4.987245e-10	-7.476285e+00	3.150675e+01
2.550000e-06	-1.194265e-06	2.922401e-10	-8.554060e+00	1.819150e+01
2.560000e-06	-1.344314e-06	7.773229e-11	-9.628803e+00	4.376124e+00
2.570000e-06	-1.493872e-06	-1.401000e-10	-1.070004e+01	-9.889818e+00
2.580000e-06	-1.642955e-06	-3.604202e-10	-1.176785e+01	-2.453270e+01
2.590000e-06	-1.791567e-06	-5.862625e-10	-1.283231e+01	-3.945692e+01
2.600000e-06	-1.939463e-06	-8.194910e-10	-1.389163e+01	-5.454890e+01
2.610000e-06	-2.086502e-06	-1.055950e-09	-1.494481e+01	-6.968290e+01
2.620000e-06	-2.232727e-06	-1.288818e-09	-1.599217e+01	-8.472785e+01
2.630000e-06	-2.378200e-06	-1.515325e-09	-1.703413e+01	-9.955484e+01
2.640000e-06	-2.522867e-06	-1.737166e-09	-1.807033e+01	-1.140443e+02
2.650000e-06	-2.666504e-06	-1.953919e-09	-1.909914e+01	-1.280922e+02
2.660000e-06	-2.808955e-06	-2.163622e-09	-2.011947e+01	-1.416151e+02
2.670000e-06	-2.950290e-06	-2.362683e-09	-2.113180e+01	-1.545529e+02
2.680000e-06	-3.090535e-06	-2.550401e-09	-2.213631e+01	-1.668697e+02
2.690000e-06	-3.229570e-06	-2.727057e-09	-2.313217e+01	-1.785527e+02
2.700000e-06	-3.367356e-06	-2.892991e-09	-2.411908e+01	-1.896092e+02
2.710000e-06	-3.503906e-06	-3.052367e-09	-2.509713e+01	-2.000620e+02
2.720000e-06	-3.639079e-06	-3.204337e-09	-2.606532e+01	-2.099450e+02
2.730000e-06	-3.772926e-06	-3.346704e-09	-2.702402e+01	-2.192975e+02
2.740000e-06	-3.905515e-06	-3.481890e-09	-2.797371e+01	-2.281596e+02
2.750000e-06	-4.036687e-06	-3.612701e-09	-2.891324e+01	-2.365688e+02
2.760000e-06	-4.166503e-06	-3.738737e-09	-2.984306e+01	-2.445570e+02
2.770000e-06	-4.294930e-06	-3.858308e-09	-3.076293e+01	-2.521500e+02
2.780000e-06	-4.421718e-06	-3.969677e-09	-3.167107e+01	-2.593670e+02
2.790000e-06	-4.547041e-06	-4.073138e-09	-3.256871e+01	-2.662227e+02
2.800000e-06	-4.670841e-06	-4.168019e-09	-3.345544e+01	-2.727287e+02
2.810000e-06	-4.792880e-06	-4.256211e-09	-3.432956e+01	-2.788961e+02
2.820000e-06	-4.913231e-06	-4.343846e-09	-3.519159e+01	-2.847374e+02
2.830000e-06	-5.031694e-06	-4.430253e-09	-3.604009e+01	-2.902684e+02
2.840000e-06	-5.148187e-06	-4.511879e-09	-3.687449e+01	-2.955086e+02
2.850000e-06	-5.262603e-06	-4.587996e-09	-3.769401e+01	-3.004814e+02
2.860000e-06	-5.374833e-06	-4.662545e-09	-3.849786e+01	-3.052129e+02
2.870000e-06	-5.485029e-06	-4.735430e-09	-3.928716e+01	-3.097301e+02
2.880000e-06	-5.593285e-06	-4.803685e-09	-4.006255e+01	-3.140593e+02
2.890000e-06	-5.699689e-06	-4.868166e-09	-4.082469e+01	-3.182233e+02
2.900000e-06	-5.804105e-06	-4.930217e-09	-4.157257e+01	-3.222403e+02
2.910000e-06	-5.906303e-06	-4.989976e-09	-4.230458e+01	-3.261220e+02
2.920000e-06	-6.006256e-06	-5.047018e-09	-4.302051e+01	-3.298734e+02
2.930000e-06	-6.104087e-06	-5.103385e-09	-4.372123e+01	-3.334933e+02
2.940000e-06	-6.199754e-06	-5.157937e-09	-4.440646e+01	-3.369754e+02
