# Temperatura_=_43.5
# Concentracion g/m^3_=_5000.0
# C_Vs_to_Am_M_A/Vsm_=_65563218390.804596
# pendiente_HvsI_1/m_=_3716.3
# ordenada_HvsI_A/m_=_1297.0
# frecuencia_Hz_=_302494.5880695975

Tiempo_(s)	Campo_(V.s)	Magnetizacion_(V.s)	Campo_(kA/m)	Magnetizacion_(A/m)
0.000000e+00	-7.938262e-06	-5.675138e-09	-5.688138e+01	-3.720745e+02
1.000000e-08	-7.935845e-06	-5.678148e-09	-5.686406e+01	-3.718724e+02
2.000000e-08	-7.930722e-06	-5.674952e-09	-5.682735e+01	-3.716067e+02
3.000000e-08	-7.923064e-06	-5.671251e-09	-5.677248e+01	-3.712873e+02
4.000000e-08	-7.912659e-06	-5.669134e-09	-5.669792e+01	-3.709247e+02
5.000000e-08	-7.899297e-06	-5.663575e-09	-5.660218e+01	-3.705281e+02
6.000000e-08	-7.882980e-06	-5.651846e-09	-5.648525e+01	-3.701050e+02
7.000000e-08	-7.864163e-06	-5.635043e-09	-5.635043e+01	-3.696593e+02
8.000000e-08	-7.843173e-06	-5.630258e-09	-5.620002e+01	-3.691917e+02
9.000000e-08	-7.819456e-06	-5.690403e-09	-5.603008e+01	-3.686991e+02
1.000000e-07	-7.792476e-06	-5.685503e-09	-5.583675e+01	-3.681759e+02
1.100000e-07	-7.762381e-06	-5.624023e-09	-5.562111e+01	-3.676142e+02
1.200000e-07	-7.729513e-06	-5.605287e-09	-5.538559e+01	-3.670055e+02
1.300000e-07	-7.694015e-06	-5.599499e-09	-5.513123e+01	-3.663416e+02
1.400000e-07	-7.656153e-06	-5.564331e-09	-5.485994e+01	-3.656158e+02
1.500000e-07	-7.616133e-06	-5.503282e-09	-5.457317e+01	-3.648236e+02
1.600000e-07	-7.573797e-06	-5.578265e-09	-5.426981e+01	-3.639630e+02
1.700000e-07	-7.528810e-06	-5.541015e-09	-5.394746e+01	-3.630342e+02
1.800000e-07	-7.481105e-06	-5.465612e-09	-5.360564e+01	-3.620397e+02
1.900000e-07	-7.430493e-06	-5.554635e-09	-5.324297e+01	-3.609829e+02
2.000000e-07	-7.376899e-06	-5.496591e-09	-5.285895e+01	-3.598674e+02
2.100000e-07	-7.320581e-06	-5.459625e-09	-5.245540e+01	-3.586963e+02
2.200000e-07	-7.261585e-06	-5.449817e-09	-5.203267e+01	-3.574713e+02
2.300000e-07	-7.199986e-06	-5.404176e-09	-5.159129e+01	-3.561924e+02
2.400000e-07	-7.135732e-06	-5.404337e-09	-5.113088e+01	-3.548576e+02
2.500000e-07	-7.068742e-06	-5.363400e-09	-5.065086e+01	-3.534635e+02
2.600000e-07	-6.999103e-06	-5.371385e-09	-5.015186e+01	-3.520058e+02
2.700000e-07	-6.926724e-06	-5.343107e-09	-4.963323e+01	-3.504797e+02
2.800000e-07	-6.851546e-06	-5.306244e-09	-4.909455e+01	-3.488812e+02
2.900000e-07	-6.773543e-06	-5.268222e-09	-4.853562e+01	-3.472071e+02
3.000000e-07	-6.692799e-06	-5.256020e-09	-4.795705e+01	-3.454560e+02
3.100000e-07	-6.609662e-06	-5.265511e-09	-4.736133e+01	-3.436281e+02
3.200000e-07	-6.524308e-06	-5.199732e-09	-4.674974e+01	-3.417251e+02
3.300000e-07	-6.436704e-06	-5.179707e-09	-4.612201e+01	-3.397494e+02
3.400000e-07	-6.346748e-06	-5.158691e-09	-4.547743e+01	-3.377038e+02
3.500000e-07	-6.254497e-06	-5.116054e-09	-4.481641e+01	-3.355906e+02
3.600000e-07	-6.160021e-06	-5.067004e-09	-4.413945e+01	-3.334109e+02
3.700000e-07	-6.063242e-06	-5.040729e-09	-4.344598e+01	-3.311643e+02
3.800000e-07	-5.964247e-06	-5.023349e-09	-4.273664e+01	-3.288484e+02
3.900000e-07	-5.863141e-06	-4.971304e-09	-4.201216e+01	-3.264596e+02
4.000000e-07	-5.759930e-06	-4.936197e-09	-4.127261e+01	-3.239929e+02
4.100000e-07	-5.654662e-06	-4.901969e-09	-4.051831e+01	-3.214432e+02
4.200000e-07	-5.547427e-06	-4.863993e-09	-3.974992e+01	-3.188053e+02
4.300000e-07	-5.438291e-06	-4.798928e-09	-3.896791e+01	-3.160756e+02
4.400000e-07	-5.327185e-06	-4.753830e-09	-3.817178e+01	-3.132517e+02
4.500000e-07	-5.214007e-06	-4.728937e-09	-3.736081e+01	-3.103332e+02
4.600000e-07	-5.098807e-06	-4.689711e-09	-3.653535e+01	-3.073209e+02
4.700000e-07	-4.981681e-06	-4.634097e-09	-3.569609e+01	-3.042171e+02
4.800000e-07	-4.862737e-06	-4.584297e-09	-3.484380e+01	-3.010241e+02
4.900000e-07	-4.742080e-06	-4.538884e-09	-3.397924e+01	-2.977434e+02
5.000000e-07	-4.619710e-06	-4.477297e-09	-3.310239e+01	-2.943752e+02
5.100000e-07	-4.495650e-06	-4.421715e-09	-3.221345e+01	-2.909169e+02
5.200000e-07	-4.369919e-06	-4.370196e-09	-3.131253e+01	-2.873637e+02
5.300000e-07	-4.242516e-06	-4.316651e-09	-3.039962e+01	-2.837078e+02
5.400000e-07	-4.113545e-06	-4.248943e-09	-2.947548e+01	-2.799396e+02
5.500000e-07	-3.983093e-06	-4.187593e-09	-2.854073e+01	-2.760481e+02
5.600000e-07	-3.851115e-06	-4.131558e-09	-2.759505e+01	-2.720225e+02
5.700000e-07	-3.717689e-06	-4.070137e-09	-2.663899e+01	-2.678533e+02
5.800000e-07	-3.582937e-06	-4.002269e-09	-2.567343e+01	-2.635334e+02
5.900000e-07	-3.446807e-06	-3.935129e-09	-2.469799e+01	-2.590590e+02
6.000000e-07	-3.309261e-06	-3.868930e-09	-2.371241e+01	-2.544297e+02
6.100000e-07	-3.170349e-06	-3.792127e-09	-2.271704e+01	-2.496484e+02
6.200000e-07	-3.030109e-06	-3.714232e-09	-2.171216e+01	-2.447202e+02
6.300000e-07	-2.888592e-06	-3.634253e-09	-2.069812e+01	-2.396513e+02
6.400000e-07	-2.745907e-06	-3.556016e-09	-1.967572e+01	-2.344467e+02
6.500000e-07	-2.602178e-06	-3.478260e-09	-1.864583e+01	-2.291093e+02
6.600000e-07	-2.457544e-06	-3.400732e-09	-1.760946e+01	-2.236380e+02
6.700000e-07	-2.312089e-06	-3.317392e-09	-1.656720e+01	-2.180267e+02
6.800000e-07	-2.165827e-06	-3.225249e-09	-1.551917e+01	-2.122643e+02
6.900000e-07	-2.018795e-06	-3.132294e-09	-1.446562e+01	-2.063349e+02
7.000000e-07	-1.871091e-06	-3.037186e-09	-1.340725e+01	-2.002189e+02
7.100000e-07	-1.722842e-06	-2.940197e-09	-1.234497e+01	-1.938951e+02
7.200000e-07	-1.574084e-06	-2.839194e-09	-1.127905e+01	-1.873426e+02
7.300000e-07	-1.424867e-06	-2.736695e-09	-1.020984e+01	-1.805423e+02
7.400000e-07	-1.275230e-06	-2.627519e-09	-9.137620e+00	-1.734795e+02
7.500000e-07	-1.125204e-06	-2.516184e-09	-8.062618e+00	-1.661438e+02
7.600000e-07	-9.747631e-07	-2.407848e-09	-6.984636e+00	-1.585298e+02
7.700000e-07	-8.239476e-07	-2.294620e-09	-5.903972e+00	-1.506361e+02
7.800000e-07	-6.728246e-07	-2.168813e-09	-4.821104e+00	-1.424631e+02
7.900000e-07	-5.214276e-07	-2.035126e-09	-3.736274e+00	-1.340110e+02
8.000000e-07	-3.698355e-07	-1.900112e-09	-2.650045e+00	-1.252767e+02
8.100000e-07	-2.181079e-07	-1.758360e-09	-1.562845e+00	-1.162516e+02
8.200000e-07	-6.629147e-08	-1.610505e-09	-4.750095e-01	-1.069189e+02
8.300000e-07	8.558640e-08	-1.459287e-09	6.132668e-01	-9.725366e+01
8.400000e-07	2.374470e-07	-1.306655e-09	1.701419e+00	-8.722259e+01
8.500000e-07	3.892968e-07	-1.149039e-09	2.789495e+00	-7.678648e+01
8.600000e-07	5.410930e-07	-9.841221e-10	3.877186e+00	-6.590368e+01
8.700000e-07	6.927368e-07	-8.130669e-10	4.963785e+00	-5.453484e+01
8.800000e-07	8.441584e-07	-6.316121e-10	6.048792e+00	-4.264850e+01
8.900000e-07	9.952853e-07	-4.410488e-10	7.131687e+00	-3.022680e+01
9.000000e-07	1.146049e-06	-2.463624e-10	8.211982e+00	-1.727063e+01
9.100000e-07	1.296358e-06	-4.634435e-11	9.289012e+00	-3.803674e+00
9.200000e-07	1.446167e-06	1.633143e-10	1.036247e+01	1.012531e+01
9.300000e-07	1.595492e-06	3.827315e-10	1.143245e+01	2.444233e+01
9.400000e-07	1.744265e-06	6.060480e-10	1.249848e+01	3.905023e+01
9.500000e-07	1.892409e-06	8.306932e-10	1.356000e+01	5.383298e+01
9.600000e-07	2.039915e-06	1.057401e-09	1.461695e+01	6.866174e+01
9.700000e-07	2.186693e-06	1.282085e-09	1.566869e+01	8.340217e+01
9.800000e-07	2.332653e-06	1.502395e-09	1.671455e+01	9.792222e+01
9.900000e-07	2.477689e-06	1.718464e-09	1.775381e+01	1.120998e+02
1.000000e-06	2.621791e-06	1.929570e-09	1.878636e+01	1.258293e+02
1.010000e-06	2.764861e-06	2.131457e-09	1.981153e+01	1.390265e+02
1.020000e-06	2.906820e-06	2.320086e-09	2.082873e+01	1.516318e+02
1.030000e-06	3.047698e-06	2.497640e-09	2.183819e+01	1.636105e+02
1.040000e-06	3.187278e-06	2.666879e-09	2.283835e+01	1.749519e+02
1.050000e-06	3.325517e-06	2.827450e-09	2.382890e+01	1.856655e+02
1.060000e-06	3.462495e-06	2.979818e-09	2.481041e+01	1.957769e+02
1.070000e-06	3.598167e-06	3.125144e-09	2.578256e+01	2.053222e+02
1.080000e-06	3.732502e-06	3.266140e-09	2.674513e+01	2.143427e+02
1.090000e-06	3.865527e-06	3.400430e-09	2.769832e+01	2.228803e+02
1.100000e-06	3.997200e-06	3.526983e-09	2.864182e+01	2.309736e+02
1.110000e-06	4.127422e-06	3.645287e-09	2.957492e+01	2.386555e+02
1.120000e-06	4.256197e-06	3.757606e-09	3.049765e+01	2.459525e+02
1.130000e-06	4.383504e-06	3.863721e-09	3.140987e+01	2.528847e+02
1.140000e-06	4.509282e-06	3.960609e-09	3.231113e+01	2.594678e+02
1.150000e-06	4.633513e-06	4.051783e-09	3.320130e+01	2.657147e+02
1.160000e-06	4.756104e-06	4.139158e-09	3.407972e+01	2.716379e+02
1.170000e-06	4.877065e-06	4.223504e-09	3.494647e+01	2.772519e+02
1.180000e-06	4.996295e-06	4.303891e-09	3.580080e+01	2.825741e+02
1.190000e-06	5.113661e-06	4.381961e-09	3.664179e+01	2.876255e+02
1.200000e-06	5.229069e-06	4.457234e-09	3.746874e+01	2.924304e+02
1.210000e-06	5.342391e-06	4.529184e-09	3.828075e+01	2.970150e+02
1.220000e-06	5.453703e-06	4.596423e-09	3.907835e+01	3.014058e+02
1.230000e-06	5.563101e-06	4.660011e-09	3.986223e+01	3.056271e+02
1.240000e-06	5.670584e-06	4.720916e-09	4.063240e+01	3.096994e+02
1.250000e-06	5.775984e-06	4.778418e-09	4.138764e+01	3.136371e+02
1.260000e-06	5.879209e-06	4.833639e-09	4.212729e+01	3.174482e+02
1.270000e-06	5.980329e-06	4.888078e-09	4.285187e+01	3.211340e+02
1.280000e-06	6.079230e-06	4.941292e-09	4.356054e+01	3.246898e+02
1.290000e-06	6.175815e-06	4.992941e-09	4.425262e+01	3.281065e+02
1.300000e-06	6.270138e-06	5.043413e-09	4.492848e+01	3.313726e+02
1.310000e-06	6.362244e-06	5.090114e-09	4.558847e+01	3.344768e+02
1.320000e-06	6.452075e-06	5.132081e-09	4.623215e+01	3.374098e+02
1.330000e-06	6.539548e-06	5.170607e-09	4.685894e+01	3.401664e+02
1.340000e-06	6.624765e-06	5.207429e-09	4.746955e+01	3.427463e+02
1.350000e-06	6.707695e-06	5.243001e-09	4.806379e+01	3.451546e+02
1.360000e-06	6.788177e-06	5.275713e-09	4.864048e+01	3.474014e+02
1.370000e-06	6.866180e-06	5.307489e-09	4.919941e+01	3.495003e+02
1.380000e-06	6.941609e-06	5.339817e-09	4.973989e+01	3.514668e+02
1.390000e-06	7.014413e-06	5.370616e-09	5.026156e+01	3.533168e+02
1.400000e-06	7.084675e-06	5.398383e-09	5.076503e+01	3.550642e+02
1.410000e-06	7.152381e-06	5.423913e-09	5.125017e+01	3.567202e+02
1.420000e-06	7.217506e-06	5.447023e-09	5.171682e+01	3.582918e+02
1.430000e-06	7.280120e-06	5.468751e-09	5.216548e+01	3.597819e+02
1.440000e-06	7.340268e-06	5.489824e-09	5.259647e+01	3.611900e+02
1.450000e-06	7.397862e-06	5.509061e-09	5.300916e+01	3.625127e+02
1.460000e-06	7.452845e-06	5.525715e-09	5.340314e+01	3.637456e+02
1.470000e-06	7.504927e-06	5.540452e-09	5.377633e+01	3.648847e+02
1.480000e-06	7.553857e-06	5.555719e-09	5.412693e+01	3.659274e+02
1.490000e-06	7.599962e-06	5.571646e-09	5.445730e+01	3.668737e+02
1.500000e-06	7.643505e-06	5.587065e-09	5.476931e+01	3.677270e+02
1.510000e-06	7.684280e-06	5.601411e-09	5.506147e+01	3.684933e+02
1.520000e-06	7.722256e-06	5.614162e-09	5.533359e+01	3.691811e+02
1.530000e-06	7.757598e-06	5.624464e-09	5.558684e+01	3.698000e+02
1.540000e-06	7.790202e-06	5.632530e-09	5.582046e+01	3.703594e+02
1.550000e-06	7.820091e-06	5.639360e-09	5.603463e+01	3.708673e+02
1.560000e-06	7.847237e-06	5.646334e-09	5.622914e+01	3.713290e+02
1.570000e-06	7.871413e-06	5.654596e-09	5.640237e+01	3.717465e+02
1.580000e-06	7.892767e-06	5.662290e-09	5.655538e+01	3.721185e+02
1.590000e-06	7.911397e-06	5.667293e-09	5.668888e+01	3.724403e+02
1.600000e-06	7.927101e-06	5.671174e-09	5.680140e+01	3.727054e+02
1.610000e-06	7.939763e-06	5.676219e-09	5.689213e+01	3.729061e+02
1.620000e-06	7.949326e-06	5.680569e-09	5.696066e+01	3.730352e+02
1.630000e-06	7.955901e-06	5.682196e-09	5.700777e+01	3.730874e+02
1.640000e-06	7.959661e-06	5.682918e-09	5.703471e+01	3.730600e+02
1.650000e-06	7.960608e-06	5.684658e-09	5.704150e+01	3.729542e+02
1.660000e-06	7.958843e-06	5.677129e-09	5.702885e+01	3.727742e+02
1.670000e-06	7.954458e-06	5.670271e-09	5.699743e+01	3.725276e+02
1.680000e-06	7.947352e-06	5.666943e-09	5.694651e+01	3.722240e+02
1.690000e-06	7.937617e-06	5.664487e-09	5.687676e+01	3.718738e+02
1.700000e-06	7.925178e-06	5.662838e-09	5.678763e+01	3.714870e+02
1.710000e-06	7.909965e-06	5.662427e-09	5.667862e+01	3.710715e+02
1.720000e-06	7.892259e-06	5.667660e-09	5.655174e+01	3.706325e+02
1.730000e-06	7.872324e-06	5.633887e-09	5.640890e+01	3.701717e+02
1.740000e-06	7.849765e-06	5.547942e-09	5.624726e+01	3.696874e+02
1.750000e-06	7.823817e-06	5.575935e-09	5.606133e+01	3.691745e+02
1.760000e-06	7.794214e-06	5.605232e-09	5.584921e+01	3.686257e+02
1.770000e-06	7.761446e-06	5.577244e-09	5.561441e+01	3.680328e+02
1.780000e-06	7.726324e-06	5.589209e-09	5.536275e+01	3.673871e+02
1.790000e-06	7.688930e-06	5.663617e-09	5.509479e+01	3.666815e+02
1.800000e-06	7.649368e-06	5.566114e-09	5.481132e+01	3.659107e+02
1.810000e-06	7.607695e-06	5.536127e-09	5.451271e+01	3.650718e+02
1.820000e-06	7.563460e-06	5.618449e-09	5.419575e+01	3.641645e+02
1.830000e-06	7.516646e-06	5.494718e-09	5.386030e+01	3.631905e+02
1.840000e-06	7.467044e-06	5.559069e-09	5.350488e+01	3.621529e+02
1.850000e-06	7.414420e-06	5.490241e-09	5.312780e+01	3.610556e+02
1.860000e-06	7.358991e-06	5.464521e-09	5.273063e+01	3.599018e+02
1.870000e-06	7.300848e-06	5.525150e-09	5.231401e+01	3.586938e+02
1.880000e-06	7.240081e-06	5.414566e-09	5.187858e+01	3.574320e+02
1.890000e-06	7.176562e-06	5.487183e-09	5.142344e+01	3.561152e+02
1.900000e-06	7.110277e-06	5.415342e-09	5.094848e+01	3.547403e+02
1.910000e-06	7.041254e-06	5.365330e-09	5.045390e+01	3.533032e+02
1.920000e-06	6.969379e-06	5.375462e-09	4.993888e+01	3.517993e+02
1.930000e-06	6.894814e-06	5.352771e-09	4.940459e+01	3.502241e+02
1.940000e-06	6.817534e-06	5.375988e-09	4.885083e+01	3.485742e+02
1.950000e-06	6.737571e-06	5.264330e-09	4.827787e+01	3.468476e+02
1.960000e-06	6.655158e-06	5.273416e-09	4.768733e+01	3.450440e+02
1.970000e-06	6.570335e-06	5.228028e-09	4.707954e+01	3.431646e+02
1.980000e-06	6.483105e-06	5.176814e-09	4.645450e+01	3.412116e+02
1.990000e-06	6.393507e-06	5.183959e-09	4.581249e+01	3.391879e+02
2.000000e-06	6.301721e-06	5.159637e-09	4.515480e+01	3.370959e+02
2.010000e-06	6.207748e-06	5.134427e-09	4.448143e+01	3.349373e+02
2.020000e-06	6.111490e-06	5.051664e-09	4.379170e+01	3.327120e+02
2.030000e-06	6.012996e-06	5.039580e-09	4.308595e+01	3.304184e+02
2.040000e-06	5.912362e-06	5.009212e-09	4.236485e+01	3.280533e+02
2.050000e-06	5.809670e-06	4.976216e-09	4.162902e+01	3.256119e+02
2.060000e-06	5.704952e-06	4.924453e-09	4.087866e+01	3.230891e+02
2.070000e-06	5.598301e-06	4.894109e-09	4.011446e+01	3.204797e+02
2.080000e-06	5.489704e-06	4.862334e-09	3.933631e+01	3.177796e+02
2.090000e-06	5.379083e-06	4.802817e-09	3.854366e+01	3.149858e+02
2.100000e-06	5.266433e-06	4.766427e-09	3.773647e+01	3.120973e+02
2.110000e-06	5.151836e-06	4.722936e-09	3.691533e+01	3.091147e+02
2.120000e-06	5.035303e-06	4.674830e-09	3.608032e+01	3.060397e+02
2.130000e-06	4.916817e-06	4.613686e-09	3.523131e+01	3.028748e+02
2.140000e-06	4.796431e-06	4.581285e-09	3.436869e+01	2.996219e+02
2.150000e-06	4.674296e-06	4.538160e-09	3.349353e+01	2.962816e+02
2.160000e-06	4.550472e-06	4.482111e-09	3.260627e+01	2.928524e+02
2.170000e-06	4.424940e-06	4.416083e-09	3.170678e+01	2.893301e+02
2.180000e-06	4.297812e-06	4.364144e-09	3.079585e+01	2.857079e+02
2.190000e-06	4.169091e-06	4.314939e-09	2.987350e+01	2.819766e+02
2.200000e-06	4.038861e-06	4.262287e-09	2.894034e+01	2.781256e+02
2.210000e-06	3.907135e-06	4.204955e-09	2.799646e+01	2.741440e+02
2.220000e-06	3.773926e-06	4.136336e-09	2.704196e+01	2.700215e+02
2.230000e-06	3.639333e-06	4.063386e-09	2.607753e+01	2.657503e+02
2.240000e-06	3.503377e-06	3.989241e-09	2.510334e+01	2.613255e+02
2.250000e-06	3.366042e-06	3.928536e-09	2.411927e+01	2.567455e+02
2.260000e-06	3.227408e-06	3.862927e-09	2.312589e+01	2.520123e+02
2.270000e-06	3.087556e-06	3.790614e-09	2.212379e+01	2.471304e+02
2.280000e-06	2.946519e-06	3.708861e-09	2.111320e+01	2.421057e+02
2.290000e-06	2.804338e-06	3.628968e-09	2.009440e+01	2.369439e+02
2.300000e-06	2.661021e-06	3.548349e-09	1.906747e+01	2.316488e+02
2.310000e-06	2.516781e-06	3.466599e-09	1.803392e+01	2.262206e+02
2.320000e-06	2.371710e-06	3.381890e-09	1.699442e+01	2.206550e+02
2.330000e-06	2.225811e-06	3.290516e-09	1.594898e+01	2.149424e+02
2.340000e-06	2.079181e-06	3.198881e-09	1.489831e+01	2.090683e+02
2.350000e-06	1.931866e-06	3.109194e-09	1.384273e+01	2.030143e+02
2.360000e-06	1.783888e-06	3.018057e-09	1.278240e+01	1.967593e+02
2.370000e-06	1.635307e-06	2.917308e-09	1.171775e+01	1.902822e+02
2.380000e-06	1.486215e-06	2.809221e-09	1.064943e+01	1.835631e+02
2.390000e-06	1.336635e-06	2.701120e-09	9.577621e+00	1.765857e+02
2.400000e-06	1.186603e-06	2.592276e-09	8.502567e+00	1.693382e+02
2.410000e-06	1.036203e-06	2.480020e-09	7.424882e+00	1.618137e+02
2.420000e-06	8.854765e-07	2.363167e-09	6.344856e+00	1.540096e+02
2.430000e-06	7.344937e-07	2.238416e-09	5.262992e+00	1.459259e+02
2.440000e-06	5.832750e-07	2.108883e-09	4.179440e+00	1.375634e+02
2.450000e-06	4.318406e-07	1.977693e-09	3.094341e+00	1.289201e+02
2.460000e-06	2.802480e-07	1.846765e-09	2.008109e+00	1.199896e+02
2.470000e-06	1.284894e-07	1.710342e-09	9.206872e-01	1.107577e+02
2.480000e-06	-2.340448e-08	1.563263e-09	-1.677041e-01	1.012024e+02
2.490000e-06	-1.752743e-07	1.410202e-09	-1.255923e+00	9.129260e+01
2.500000e-06	-3.270761e-07	1.251206e-09	-2.343654e+00	8.099089e+01
2.510000e-06	-4.787860e-07	1.085799e-09	-3.430727e+00	7.025586e+01
2.520000e-06	-6.303352e-07	9.142154e-10	-4.516648e+00	5.904686e+01
2.530000e-06	-7.816493e-07	7.372437e-10	-5.600885e+00	4.732926e+01
2.540000e-06	-9.326688e-07	5.531240e-10	-6.683010e+00	3.508023e+01
2.550000e-06	-1.083398e-06	3.583448e-10	-7.763058e+00	2.229412e+01
2.560000e-06	-1.233805e-06	1.555616e-10	-8.840796e+00	8.986943e+00
2.570000e-06	-1.383793e-06	-5.614878e-11	-9.915524e+00	-4.800724e+00
2.580000e-06	-1.533240e-06	-2.756508e-10	-1.098639e+01	-1.900288e+01
2.590000e-06	-1.682148e-06	-4.986751e-10	-1.205338e+01	-3.352944e+01
2.600000e-06	-1.830496e-06	-7.253123e-10	-1.311637e+01	-4.826988e+01
2.610000e-06	-1.978190e-06	-9.532633e-10	-1.417466e+01	-6.309871e+01
2.620000e-06	-2.125074e-06	-1.181208e-09	-1.522716e+01	-7.788251e+01
2.630000e-06	-2.271095e-06	-1.406255e-09	-1.627346e+01	-9.248765e+01
2.640000e-06	-2.416324e-06	-1.626814e-09	-1.731410e+01	-1.067880e+02
2.650000e-06	-2.560633e-06	-1.841365e-09	-1.834814e+01	-1.206722e+02
2.660000e-06	-2.703851e-06	-2.046197e-09	-1.937436e+01	-1.340485e+02
2.670000e-06	-2.845960e-06	-2.240654e-09	-2.039264e+01	-1.468493e+02
2.680000e-06	-2.986950e-06	-2.425738e-09	-2.140290e+01	-1.590320e+02
2.690000e-06	-3.126810e-06	-2.602991e-09	-2.240507e+01	-1.705784e+02
2.700000e-06	-3.265401e-06	-2.769002e-09	-2.339813e+01	-1.814920e+02
2.710000e-06	-3.402760e-06	-2.922861e-09	-2.438238e+01	-1.917938e+02
2.720000e-06	-3.538908e-06	-3.069815e-09	-2.535794e+01	-2.015170e+02
2.730000e-06	-3.673660e-06	-3.211233e-09	-2.632350e+01	-2.107018e+02
2.740000e-06	-3.807046e-06	-3.345111e-09	-2.727927e+01	-2.193905e+02
2.750000e-06	-3.939157e-06	-3.473993e-09	-2.822591e+01	-2.276231e+02
2.760000e-06	-4.069882e-06	-3.597250e-09	-2.916261e+01	-2.354343e+02
2.770000e-06	-4.199231e-06	-3.712129e-09	-3.008946e+01	-2.428528e+02
2.780000e-06	-4.327151e-06	-3.819283e-09	-3.100607e+01	-2.499008e+02
2.790000e-06	-4.453484e-06	-3.920733e-09	-3.191131e+01	-2.565949e+02
2.800000e-06	-4.578371e-06	-4.016356e-09	-3.280618e+01	-2.629488e+02
2.810000e-06	-4.701710e-06	-4.104513e-09	-3.368996e+01	-2.689749e+02
2.820000e-06	-4.823354e-06	-4.187893e-09	-3.456160e+01	-2.746869e+02
2.830000e-06	-4.943227e-06	-4.269436e-09	-3.542055e+01	-2.801011e+02
2.840000e-06	-5.061133e-06	-4.349295e-09	-3.626540e+01	-2.852373e+02
2.850000e-06	-5.176958e-06	-4.426279e-09	-3.709533e+01	-2.901189e+02
2.860000e-06	-5.290620e-06	-4.499265e-09	-3.790978e+01	-2.947718e+02
2.870000e-06	-5.402175e-06	-4.569810e-09	-3.870912e+01	-2.992224e+02
2.880000e-06	-5.511760e-06	-4.637589e-09	-3.949435e+01	-3.034960e+02
2.890000e-06	-5.619465e-06	-4.701209e-09	-4.026611e+01	-3.076146e+02
2.900000e-06	-5.725273e-06	-4.761599e-09	-4.102427e+01	-3.115947e+02
2.910000e-06	-5.828956e-06	-4.820806e-09	-4.176721e+01	-3.154464e+02
2.920000e-06	-5.930379e-06	-4.879207e-09	-4.249395e+01	-3.191730e+02
2.930000e-06	-6.029660e-06	-4.934832e-09	-4.320535e+01	-3.227718e+02
2.940000e-06	-6.126932e-06	-4.988119e-09	-4.390235e+01	-3.262346e+02
