# Temperatura_=_42.64
# Concentracion g/m^3_=_5000.0
# C_Vs_to_Am_M_A/Vsm_=_65563218390.804596
# pendiente_HvsI_1/m_=_3716.3
# ordenada_HvsI_A/m_=_1297.0
# frecuencia_Hz_=_302490.3030876854

Tiempo_(s)	Campo_(V.s)	Magnetizacion_(V.s)	Campo_(kA/m)	Magnetizacion_(A/m)
0.000000e+00	-7.890337e-06	-5.734908e-09	-5.688571e+01	-3.760106e+02
1.000000e-08	-7.888133e-06	-5.737411e-09	-5.686982e+01	-3.758197e+02
2.000000e-08	-7.883233e-06	-5.735732e-09	-5.683449e+01	-3.755577e+02
3.000000e-08	-7.875849e-06	-5.731693e-09	-5.678125e+01	-3.752365e+02
4.000000e-08	-7.865761e-06	-5.728852e-09	-5.670853e+01	-3.748697e+02
5.000000e-08	-7.852741e-06	-5.722829e-09	-5.661466e+01	-3.744704e+02
6.000000e-08	-7.836767e-06	-5.712821e-09	-5.649949e+01	-3.740495e+02
7.000000e-08	-7.818214e-06	-5.700447e-09	-5.636573e+01	-3.736143e+02
8.000000e-08	-7.797468e-06	-5.686090e-09	-5.621616e+01	-3.731670e+02
9.000000e-08	-7.774119e-06	-5.721656e-09	-5.604783e+01	-3.727049e+02
1.000000e-07	-7.747572e-06	-5.749550e-09	-5.585644e+01	-3.722204e+02
1.100000e-07	-7.717875e-06	-5.700722e-09	-5.564234e+01	-3.717022e+02
1.200000e-07	-7.685416e-06	-5.663906e-09	-5.540832e+01	-3.711366e+02
1.300000e-07	-7.650289e-06	-5.654536e-09	-5.515508e+01	-3.705096e+02
1.400000e-07	-7.612732e-06	-5.628457e-09	-5.488431e+01	-3.698083e+02
1.500000e-07	-7.573139e-06	-5.576204e-09	-5.459886e+01	-3.690228e+02
1.600000e-07	-7.531326e-06	-5.607464e-09	-5.429740e+01	-3.681470e+02
1.700000e-07	-7.486812e-06	-5.639499e-09	-5.397648e+01	-3.671795e+02
1.800000e-07	-7.439647e-06	-5.547427e-09	-5.363644e+01	-3.661229e+02
1.900000e-07	-7.389636e-06	-5.589238e-09	-5.327588e+01	-3.649833e+02
2.000000e-07	-7.336532e-06	-5.569392e-09	-5.289303e+01	-3.637693e+02
2.100000e-07	-7.280707e-06	-5.494489e-09	-5.249056e+01	-3.624904e+02
2.200000e-07	-7.222263e-06	-5.497563e-09	-5.206920e+01	-3.611553e+02
2.300000e-07	-7.161171e-06	-5.447603e-09	-5.162876e+01	-3.597710e+02
2.400000e-07	-7.097444e-06	-5.461849e-09	-5.116931e+01	-3.583419e+02
2.500000e-07	-7.030958e-06	-5.430818e-09	-5.068998e+01	-3.568689e+02
2.600000e-07	-6.961844e-06	-5.415421e-09	-5.019170e+01	-3.553500e+02
2.700000e-07	-6.890105e-06	-5.408109e-09	-4.967450e+01	-3.537807e+02
2.800000e-07	-6.815572e-06	-5.370882e-09	-4.913715e+01	-3.521548e+02
2.900000e-07	-6.738283e-06	-5.335787e-09	-4.857993e+01	-3.504656e+02
3.000000e-07	-6.658249e-06	-5.309680e-09	-4.800292e+01	-3.487067e+02
3.100000e-07	-6.575709e-06	-5.320376e-09	-4.740784e+01	-3.468732e+02
3.200000e-07	-6.491004e-06	-5.265380e-09	-4.679716e+01	-3.449619e+02
3.300000e-07	-6.404064e-06	-5.221450e-09	-4.617036e+01	-3.429716e+02
3.400000e-07	-6.314819e-06	-5.206972e-09	-4.552695e+01	-3.409031e+02
3.500000e-07	-6.223295e-06	-5.164353e-09	-4.486710e+01	-3.387580e+02
3.600000e-07	-6.129572e-06	-5.121460e-09	-4.419140e+01	-3.365391e+02
3.700000e-07	-6.033641e-06	-5.088841e-09	-4.349978e+01	-3.342483e+02
3.800000e-07	-5.935436e-06	-5.070804e-09	-4.279177e+01	-3.318871e+02
3.900000e-07	-5.835061e-06	-5.028780e-09	-4.206811e+01	-3.294554e+02
4.000000e-07	-5.732658e-06	-4.983936e-09	-4.132983e+01	-3.269518e+02
4.100000e-07	-5.628210e-06	-4.945726e-09	-4.057681e+01	-3.243733e+02
4.200000e-07	-5.521704e-06	-4.904124e-09	-3.980896e+01	-3.217160e+02
4.300000e-07	-5.413275e-06	-4.853390e-09	-3.902723e+01	-3.189758e+02
4.400000e-07	-5.303042e-06	-4.809022e-09	-3.823250e+01	-3.161484e+02
4.500000e-07	-5.190885e-06	-4.780665e-09	-3.742390e+01	-3.132304e+02
4.600000e-07	-5.076651e-06	-4.739615e-09	-3.660033e+01	-3.102195e+02
4.700000e-07	-4.960416e-06	-4.684066e-09	-3.576232e+01	-3.071142e+02
4.800000e-07	-4.842328e-06	-4.631582e-09	-3.491096e+01	-3.039140e+02
4.900000e-07	-4.722440e-06	-4.579495e-09	-3.404663e+01	-3.006186e+02
5.000000e-07	-4.600841e-06	-4.521005e-09	-3.316995e+01	-2.972274e+02
5.100000e-07	-4.477523e-06	-4.467864e-09	-3.228089e+01	-2.937390e+02
5.200000e-07	-4.352566e-06	-4.417141e-09	-3.138001e+01	-2.901503e+02
5.300000e-07	-4.226135e-06	-4.361708e-09	-3.046850e+01	-2.864567e+02
5.400000e-07	-4.098159e-06	-4.297295e-09	-2.954584e+01	-2.826516e+02
5.500000e-07	-3.968760e-06	-4.234382e-09	-2.861294e+01	-2.787275e+02
5.600000e-07	-3.837822e-06	-4.173701e-09	-2.766894e+01	-2.746759e+02
5.700000e-07	-3.705314e-06	-4.109831e-09	-2.671361e+01	-2.704885e+02
5.800000e-07	-3.571424e-06	-4.042719e-09	-2.574833e+01	-2.661585e+02
5.900000e-07	-3.436135e-06	-3.976912e-09	-2.477296e+01	-2.616805e+02
6.000000e-07	-3.299514e-06	-3.907696e-09	-2.378798e+01	-2.570518e+02
6.100000e-07	-3.161706e-06	-3.832544e-09	-2.279445e+01	-2.522718e+02
6.200000e-07	-3.022562e-06	-3.756667e-09	-2.179129e+01	-2.473421e+02
6.300000e-07	-2.881971e-06	-3.678379e-09	-2.077769e+01	-2.422653e+02
6.400000e-07	-2.740220e-06	-3.597288e-09	-1.975573e+01	-2.370441e+02
6.500000e-07	-2.597505e-06	-3.515410e-09	-1.872682e+01	-2.316796e+02
6.600000e-07	-2.453856e-06	-3.437707e-09	-1.769118e+01	-2.261706e+02
6.700000e-07	-2.309295e-06	-3.353230e-09	-1.664896e+01	-2.205121e+02
6.800000e-07	-2.163807e-06	-3.261697e-09	-1.560006e+01	-2.146951e+02
6.900000e-07	-2.017549e-06	-3.169402e-09	-1.454560e+01	-2.087064e+02
7.000000e-07	-1.870735e-06	-3.074162e-09	-1.348714e+01	-2.025300e+02
7.100000e-07	-1.723381e-06	-2.974215e-09	-1.242479e+01	-1.961474e+02
7.200000e-07	-1.575445e-06	-2.870596e-09	-1.135823e+01	-1.895401e+02
7.300000e-07	-1.426995e-06	-2.767918e-09	-1.028798e+01	-1.826905e+02
7.400000e-07	-1.278195e-06	-2.658987e-09	-9.215198e+00	-1.755843e+02
7.500000e-07	-1.129011e-06	-2.544406e-09	-8.139649e+00	-1.682108e+02
7.600000e-07	-9.794352e-07	-2.430869e-09	-7.061278e+00	-1.605633e+02
7.700000e-07	-8.295786e-07	-2.318010e-09	-5.980881e+00	-1.526390e+02
7.800000e-07	-6.794416e-07	-2.195724e-09	-4.898462e+00	-1.444370e+02
7.900000e-07	-5.290749e-07	-2.064440e-09	-3.814388e+00	-1.359568e+02
8.000000e-07	-3.785607e-07	-1.928839e-09	-2.729249e+00	-1.271953e+02
8.100000e-07	-2.279219e-07	-1.785556e-09	-1.643213e+00	-1.181447e+02
8.200000e-07	-7.712110e-08	-1.635806e-09	-5.560077e-01	-1.087904e+02
8.300000e-07	7.378650e-08	-1.483155e-09	5.319668e-01	-9.910961e+01
8.400000e-07	2.246598e-07	-1.329821e-09	1.619694e+00	-8.907180e+01
8.500000e-07	3.754736e-07	-1.171937e-09	2.706992e+00	-7.864002e+01
8.600000e-07	5.261874e-07	-1.008066e-09	3.793570e+00	-6.777398e+01
8.700000e-07	6.767067e-07	-8.375085e-10	4.878744e+00	-5.643433e+01
8.800000e-07	8.270135e-07	-6.592102e-10	5.962388e+00	-4.458789e+01
8.900000e-07	9.771240e-07	-4.707333e-10	7.044615e+00	-3.221331e+01
9.000000e-07	1.126961e-06	-2.758649e-10	8.124872e+00	-1.930635e+01
9.100000e-07	1.276445e-06	-7.496637e-11	9.202584e+00	-5.884377e+00
9.200000e-07	1.425485e-06	1.353766e-10	1.027710e+01	8.010806e+00
9.300000e-07	1.574025e-06	3.542208e-10	1.134800e+01	2.231201e+01
9.400000e-07	1.722046e-06	5.797680e-10	1.241516e+01	3.692804e+01
9.500000e-07	1.869411e-06	8.067303e-10	1.347759e+01	5.174721e+01
9.600000e-07	2.016089e-06	1.034325e-09	1.453508e+01	6.664300e+01
9.700000e-07	2.162123e-06	1.258808e-09	1.558792e+01	8.148101e+01
9.800000e-07	2.307341e-06	1.478523e-09	1.663487e+01	9.612691e+01
9.900000e-07	2.451591e-06	1.695485e-09	1.767484e+01	1.104543e+02
1.000000e-06	2.594858e-06	1.908673e-09	1.870774e+01	1.243517e+02
1.010000e-06	2.737133e-06	2.113683e-09	1.973348e+01	1.377287e+02
1.020000e-06	2.878334e-06	2.305471e-09	2.075147e+01	1.505191e+02
1.030000e-06	3.018357e-06	2.484634e-09	2.176097e+01	1.626828e+02
1.040000e-06	3.157108e-06	2.655027e-09	2.276130e+01	1.742048e+02
1.050000e-06	3.294549e-06	2.817748e-09	2.375219e+01	1.850923e+02
1.060000e-06	3.430741e-06	2.974181e-09	2.473407e+01	1.953704e+02
1.070000e-06	3.565678e-06	3.123006e-09	2.570690e+01	2.050761e+02
1.080000e-06	3.699363e-06	3.265017e-09	2.667071e+01	2.142532e+02
1.090000e-06	3.831769e-06	3.400975e-09	2.762529e+01	2.229467e+02
1.100000e-06	3.962753e-06	3.530874e-09	2.856963e+01	2.311979e+02
1.110000e-06	4.092259e-06	3.651072e-09	2.950331e+01	2.390421e+02
1.120000e-06	4.220324e-06	3.763560e-09	3.042660e+01	2.465069e+02
1.130000e-06	4.346963e-06	3.871260e-09	3.133961e+01	2.536121e+02
1.140000e-06	4.472169e-06	3.972858e-09	3.224229e+01	2.603714e+02
1.150000e-06	4.595835e-06	4.068466e-09	3.313386e+01	2.667944e+02
1.160000e-06	4.717830e-06	4.158862e-09	3.401339e+01	2.728896e+02
1.170000e-06	4.838149e-06	4.245127e-09	3.488083e+01	2.786668e+02
1.180000e-06	4.956740e-06	4.327209e-09	3.573582e+01	2.841392e+02
1.190000e-06	5.073486e-06	4.406602e-09	3.657751e+01	2.893246e+02
1.200000e-06	5.188251e-06	4.482882e-09	3.740491e+01	2.942452e+02
1.210000e-06	5.301002e-06	4.555808e-09	3.821779e+01	2.989270e+02
1.220000e-06	5.411835e-06	4.623224e-09	3.901684e+01	3.033978e+02
1.230000e-06	5.520810e-06	4.687678e-09	3.980251e+01	3.076847e+02
1.240000e-06	5.627824e-06	4.750765e-09	4.057403e+01	3.118120e+02
1.250000e-06	5.732765e-06	4.811970e-09	4.133061e+01	3.157989e+02
1.260000e-06	5.835563e-06	4.869150e-09	4.207173e+01	3.196575e+02
1.270000e-06	5.936176e-06	4.923191e-09	4.279711e+01	3.233929e+02
1.280000e-06	6.034570e-06	4.975641e-09	4.350648e+01	3.270031e+02
1.290000e-06	6.130672e-06	5.026737e-09	4.419934e+01	3.304802e+02
1.300000e-06	6.224580e-06	5.077635e-09	4.487636e+01	3.338128e+02
1.310000e-06	6.316326e-06	5.126078e-09	4.553781e+01	3.369881e+02
1.320000e-06	6.405848e-06	5.170106e-09	4.618322e+01	3.399947e+02
1.330000e-06	6.493043e-06	5.209972e-09	4.681186e+01	3.428247e+02
1.340000e-06	6.577960e-06	5.247587e-09	4.742408e+01	3.454755e+02
1.350000e-06	6.660588e-06	5.285369e-09	4.801978e+01	3.479502e+02
1.360000e-06	6.740767e-06	5.320973e-09	4.859784e+01	3.502576e+02
1.370000e-06	6.818457e-06	5.353410e-09	4.915795e+01	3.524114e+02
1.380000e-06	6.893548e-06	5.384395e-09	4.969932e+01	3.544282e+02
1.390000e-06	6.965988e-06	5.414330e-09	5.022157e+01	3.563255e+02
1.400000e-06	7.035948e-06	5.442177e-09	5.072596e+01	3.581195e+02
1.410000e-06	7.103469e-06	5.468255e-09	5.121275e+01	3.598234e+02
1.420000e-06	7.168411e-06	5.493399e-09	5.168095e+01	3.614461e+02
1.430000e-06	7.230837e-06	5.517632e-09	5.213102e+01	3.629916e+02
1.440000e-06	7.290847e-06	5.540056e-09	5.256366e+01	3.644591e+02
1.450000e-06	7.348339e-06	5.561054e-09	5.297815e+01	3.658442e+02
1.460000e-06	7.403220e-06	5.579194e-09	5.337382e+01	3.671405e+02
1.470000e-06	7.455234e-06	5.594106e-09	5.374881e+01	3.683412e+02
1.480000e-06	7.504099e-06	5.608723e-09	5.410111e+01	3.694410e+02
1.490000e-06	7.550147e-06	5.623662e-09	5.443310e+01	3.704373e+02
1.500000e-06	7.593668e-06	5.638420e-09	5.474686e+01	3.713317e+02
1.510000e-06	7.634442e-06	5.653010e-09	5.504082e+01	3.721294e+02
1.520000e-06	7.672420e-06	5.667509e-09	5.531463e+01	3.728394e+02
1.530000e-06	7.707771e-06	5.679700e-09	5.556949e+01	3.734728e+02
1.540000e-06	7.740354e-06	5.689467e-09	5.580440e+01	3.740416e+02
1.550000e-06	7.770153e-06	5.698378e-09	5.601924e+01	3.745568e+02
1.560000e-06	7.797264e-06	5.705548e-09	5.621469e+01	3.750269e+02
1.570000e-06	7.821481e-06	5.711547e-09	5.638929e+01	3.754567e+02
1.580000e-06	7.842900e-06	5.717342e-09	5.654371e+01	3.758466e+02
1.590000e-06	7.861649e-06	5.722499e-09	5.667888e+01	3.761927e+02
1.600000e-06	7.877493e-06	5.727582e-09	5.679311e+01	3.764879e+02
1.610000e-06	7.890312e-06	5.732738e-09	5.688553e+01	3.767225e+02
1.620000e-06	7.900006e-06	5.738498e-09	5.695542e+01	3.768869e+02
1.630000e-06	7.906723e-06	5.742530e-09	5.700385e+01	3.769726e+02
1.640000e-06	7.910751e-06	5.744081e-09	5.703288e+01	3.769742e+02
1.650000e-06	7.911946e-06	5.745216e-09	5.704150e+01	3.768902e+02
1.660000e-06	7.910354e-06	5.741006e-09	5.703003e+01	3.767241e+02
1.670000e-06	7.906158e-06	5.730285e-09	5.699977e+01	3.764835e+02
1.680000e-06	7.899289e-06	5.724245e-09	5.695025e+01	3.761796e+02
1.690000e-06	7.889829e-06	5.722889e-09	5.688204e+01	3.758256e+02
1.700000e-06	7.877684e-06	5.723166e-09	5.679449e+01	3.754352e+02
1.710000e-06	7.862744e-06	5.722775e-09	5.668677e+01	3.750200e+02
1.720000e-06	7.845322e-06	5.722610e-09	5.656117e+01	3.745886e+02
1.730000e-06	7.825688e-06	5.715237e-09	5.641962e+01	3.741450e+02
1.740000e-06	7.803476e-06	5.633705e-09	5.625948e+01	3.736880e+02
1.750000e-06	7.777976e-06	5.623786e-09	5.607564e+01	3.732115e+02
1.760000e-06	7.748859e-06	5.665592e-09	5.586572e+01	3.727053e+02
1.770000e-06	7.716560e-06	5.654043e-09	5.563286e+01	3.721562e+02
1.780000e-06	7.681880e-06	5.646704e-09	5.538283e+01	3.715501e+02
1.790000e-06	7.644912e-06	5.704025e-09	5.511631e+01	3.708737e+02
1.800000e-06	7.605734e-06	5.673665e-09	5.483385e+01	3.701158e+02
1.810000e-06	7.564465e-06	5.569280e-09	5.453632e+01	3.692692e+02
1.820000e-06	7.520715e-06	5.650947e-09	5.422091e+01	3.683308e+02
1.830000e-06	7.474424e-06	5.587749e-09	5.388717e+01	3.673020e+02
1.840000e-06	7.425425e-06	5.589516e-09	5.353391e+01	3.661880e+02
1.850000e-06	7.373482e-06	5.605305e-09	5.315942e+01	3.649966e+02
1.860000e-06	7.318676e-06	5.523933e-09	5.276430e+01	3.637373e+02
1.870000e-06	7.261057e-06	5.601248e-09	5.234889e+01	3.624191e+02
1.880000e-06	7.200892e-06	5.492307e-09	5.191513e+01	3.610497e+02
1.890000e-06	7.138071e-06	5.484325e-09	5.146222e+01	3.596345e+02
1.900000e-06	7.072411e-06	5.484345e-09	5.098884e+01	3.581754e+02
1.910000e-06	7.004027e-06	5.396377e-09	5.049582e+01	3.566713e+02
1.920000e-06	6.932855e-06	5.433064e-09	4.998271e+01	3.551186e+02
1.930000e-06	6.859048e-06	5.383569e-09	4.945059e+01	3.535114e+02
1.940000e-06	6.782537e-06	5.402845e-09	4.889898e+01	3.518430e+02
1.950000e-06	6.703261e-06	5.329093e-09	4.832744e+01	3.501068e+02
1.960000e-06	6.621513e-06	5.294391e-09	4.773807e+01	3.482975e+02
1.970000e-06	6.537403e-06	5.302710e-09	4.713167e+01	3.464111e+02
1.980000e-06	6.450859e-06	5.225659e-09	4.650773e+01	3.444460e+02
1.990000e-06	6.361888e-06	5.240251e-09	4.586630e+01	3.424021e+02
2.000000e-06	6.270791e-06	5.192995e-09	4.520953e+01	3.402812e+02
2.010000e-06	6.177529e-06	5.168150e-09	4.453715e+01	3.380854e+02
2.020000e-06	6.081939e-06	5.102704e-09	4.384799e+01	3.358172e+02
2.030000e-06	5.984168e-06	5.071462e-09	4.314311e+01	3.334783e+02
2.040000e-06	5.884346e-06	5.057108e-09	4.242343e+01	3.310692e+02
2.050000e-06	5.782450e-06	5.017945e-09	4.168881e+01	3.285886e+02
2.060000e-06	5.678416e-06	4.986534e-09	4.093877e+01	3.260343e+02
2.070000e-06	5.572456e-06	4.934939e-09	4.017485e+01	3.234026e+02
2.080000e-06	5.464659e-06	4.904615e-09	3.939768e+01	3.206892e+02
2.090000e-06	5.354940e-06	4.837688e-09	3.860666e+01	3.178899e+02
2.100000e-06	5.243273e-06	4.801523e-09	3.780159e+01	3.150011e+02
2.110000e-06	5.129649e-06	4.756336e-09	3.698241e+01	3.120200e+02
2.120000e-06	5.014026e-06	4.713710e-09	3.614883e+01	3.089448e+02
2.130000e-06	4.896424e-06	4.664175e-09	3.530097e+01	3.057749e+02
2.140000e-06	4.776872e-06	4.626203e-09	3.443906e+01	3.025098e+02
2.150000e-06	4.655516e-06	4.584346e-09	3.356413e+01	2.991493e+02
2.160000e-06	4.532516e-06	4.522868e-09	3.267736e+01	2.956921e+02
2.170000e-06	4.407915e-06	4.462020e-09	3.177904e+01	2.921358e+02
2.180000e-06	4.281743e-06	4.402029e-09	3.086940e+01	2.884762e+02
2.190000e-06	4.153862e-06	4.351807e-09	2.994744e+01	2.847075e+02
2.200000e-06	4.024466e-06	4.292079e-09	2.901455e+01	2.808223e+02
2.210000e-06	3.893623e-06	4.237242e-09	2.807123e+01	2.768123e+02
2.220000e-06	3.761280e-06	4.171954e-09	2.711711e+01	2.726692e+02
2.230000e-06	3.627633e-06	4.106548e-09	2.615357e+01	2.683854e+02
2.240000e-06	3.492603e-06	4.037642e-09	2.518006e+01	2.639551e+02
2.250000e-06	3.356141e-06	3.975520e-09	2.419624e+01	2.593747e+02
2.260000e-06	3.218439e-06	3.907499e-09	2.320347e+01	2.546430e+02
2.270000e-06	3.079542e-06	3.830768e-09	2.220209e+01	2.497609e+02
2.280000e-06	2.939418e-06	3.747116e-09	2.119185e+01	2.447308e+02
2.290000e-06	2.798170e-06	3.663362e-09	2.017352e+01	2.395555e+02
2.300000e-06	2.655944e-06	3.582067e-09	1.914814e+01	2.342368e+02
2.310000e-06	2.512648e-06	3.499473e-09	1.811504e+01	2.287744e+02
2.320000e-06	2.368287e-06	3.418155e-09	1.707426e+01	2.231644e+02
2.330000e-06	2.223195e-06	3.330152e-09	1.602821e+01	2.173993e+02
2.340000e-06	2.077474e-06	3.240343e-09	1.497763e+01	2.114672e+02
2.350000e-06	1.931043e-06	3.147714e-09	1.392193e+01	2.053528e+02
2.360000e-06	1.783900e-06	3.053411e-09	1.286110e+01	1.990382e+02
2.370000e-06	1.636233e-06	2.953459e-09	1.179649e+01	1.925048e+02
2.380000e-06	1.488089e-06	2.846752e-09	1.072844e+01	1.857346e+02
2.390000e-06	1.339371e-06	2.738531e-09	9.656250e+00	1.787120e+02
2.400000e-06	1.190206e-06	2.627229e-09	8.580842e+00	1.714250e+02
2.410000e-06	1.040745e-06	2.511280e-09	7.503293e+00	1.638658e+02
2.420000e-06	8.910196e-07	2.392227e-09	6.423842e+00	1.560304e+02
2.430000e-06	7.410663e-07	2.269189e-09	5.342748e+00	1.479174e+02
2.440000e-06	5.908984e-07	2.143511e-09	4.260106e+00	1.395265e+02
2.450000e-06	4.405419e-07	2.014563e-09	3.176105e+00	1.308557e+02
2.460000e-06	2.899782e-07	1.882410e-09	2.090610e+00	1.218990e+02
2.470000e-06	1.392494e-07	1.742721e-09	1.003924e+00	1.126441e+02
2.480000e-06	-1.155324e-08	1.592507e-09	-8.329354e-02	1.030710e+02
2.490000e-06	-1.623832e-07	1.438158e-09	-1.170708e+00	9.315140e+01
2.500000e-06	-3.131675e-07	1.281196e-09	-2.257794e+00	8.285030e+01
2.510000e-06	-4.638304e-07	1.119209e-09	-3.344004e+00	7.212800e+01
2.520000e-06	-6.143361e-07	9.507243e-10	-4.429081e+00	6.094433e+01
2.530000e-06	-7.646663e-07	7.743211e-10	-5.512893e+00	4.926353e+01
2.540000e-06	-9.147515e-07	5.876336e-10	-6.594939e+00	3.705982e+01
2.550000e-06	-1.064551e-06	3.910967e-10	-7.674921e+00	2.432293e+01
2.560000e-06	-1.214060e-06	1.876868e-10	-8.752816e+00	1.106288e+01
2.570000e-06	-1.363176e-06	-2.209328e-11	-9.827877e+00	-2.686589e+00
2.580000e-06	-1.511768e-06	-2.384418e-10	-1.089915e+01	-1.686641e+01
2.590000e-06	-1.659827e-06	-4.603518e-10	-1.196659e+01	-3.139280e+01
2.600000e-06	-1.807326e-06	-6.860424e-10	-1.302999e+01	-4.616017e+01
2.610000e-06	-1.954152e-06	-9.146924e-10	-1.408854e+01	-6.104603e+01
2.620000e-06	-2.100226e-06	-1.144352e-09	-1.514166e+01	-7.591771e+01
2.630000e-06	-2.245526e-06	-1.371899e-09	-1.618921e+01	-9.063995e+01
2.640000e-06	-2.390004e-06	-1.595114e-09	-1.723084e+01	-1.050830e+02
2.650000e-06	-2.533528e-06	-1.812248e-09	-1.826557e+01	-1.191298e+02
2.660000e-06	-2.675952e-06	-2.021003e-09	-1.929239e+01	-1.326828e+02
2.670000e-06	-2.817272e-06	-2.220105e-09	-2.031124e+01	-1.456677e+02
2.680000e-06	-2.957495e-06	-2.409361e-09	-2.132218e+01	-1.580359e+02
2.690000e-06	-3.096576e-06	-2.588919e-09	-2.232490e+01	-1.697646e+02
2.700000e-06	-3.234460e-06	-2.756376e-09	-2.331898e+01	-1.808544e+02
2.710000e-06	-3.371116e-06	-2.912631e-09	-2.430420e+01	-1.913250e+02
2.720000e-06	-3.506472e-06	-3.062934e-09	-2.528005e+01	-2.012104e+02
2.730000e-06	-3.640478e-06	-3.208214e-09	-2.624618e+01	-2.105528e+02
2.740000e-06	-3.773259e-06	-3.346022e-09	-2.720347e+01	-2.193972e+02
2.750000e-06	-3.904744e-06	-3.477362e-09	-2.815141e+01	-2.277866e+02
2.760000e-06	-4.034831e-06	-3.603022e-09	-2.908928e+01	-2.357586e+02
2.770000e-06	-4.163588e-06	-3.719596e-09	-3.001756e+01	-2.433431e+02
2.780000e-06	-4.290879e-06	-3.827929e-09	-3.093527e+01	-2.505624e+02
2.790000e-06	-4.416633e-06	-3.931607e-09	-3.184190e+01	-2.574320e+02
2.800000e-06	-4.540918e-06	-4.030385e-09	-3.273793e+01	-2.639624e+02
2.810000e-06	-4.663620e-06	-4.122209e-09	-3.362256e+01	-2.701623e+02
2.820000e-06	-4.784647e-06	-4.208454e-09	-3.449511e+01	-2.760407e+02
2.830000e-06	-4.903852e-06	-4.291899e-09	-3.535452e+01	-2.816097e+02
2.840000e-06	-5.021133e-06	-4.373788e-09	-3.620006e+01	-2.868854e+02
2.850000e-06	-5.136410e-06	-4.454689e-09	-3.703116e+01	-2.918887e+02
2.860000e-06	-5.249520e-06	-4.531032e-09	-3.784663e+01	-2.966445e+02
2.870000e-06	-5.360532e-06	-4.603442e-09	-3.864698e+01	-3.011803e+02
2.880000e-06	-5.469587e-06	-4.671312e-09	-3.943321e+01	-3.055238e+02
2.890000e-06	-5.576777e-06	-4.733444e-09	-4.020601e+01	-3.097003e+02
2.900000e-06	-5.682092e-06	-4.793043e-09	-4.096527e+01	-3.137309e+02
2.910000e-06	-5.785331e-06	-4.851815e-09	-4.170958e+01	-3.176301e+02
2.920000e-06	-5.886404e-06	-4.911054e-09	-4.243827e+01	-3.214054e+02
2.930000e-06	-5.985357e-06	-4.968654e-09	-4.315168e+01	-3.250567e+02
2.940000e-06	-6.082217e-06	-5.024691e-09	-4.385000e+01	-3.285779e+02
