# Temperatura_=_44.25
# Concentracion g/m^3_=_5000.0
# C_Vs_to_Am_M_A/Vsm_=_65563218390.804596
# pendiente_HvsI_1/m_=_3716.3
# ordenada_HvsI_A/m_=_1297.0
# frecuencia_Hz_=_302501.8802644635

Tiempo_(s)	Campo_(V.s)	Magnetizacion_(V.s)	Campo_(kA/m)	Magnetizacion_(A/m)
0.000000e+00	-7.971955e-06	-5.733334e-09	-5.687649e+01	-3.756718e+02
1.000000e-08	-7.969791e-06	-5.735978e-09	-5.686104e+01	-3.755042e+02
2.000000e-08	-7.964900e-06	-5.734602e-09	-5.682615e+01	-3.752695e+02
3.000000e-08	-7.957485e-06	-5.732665e-09	-5.677325e+01	-3.749740e+02
4.000000e-08	-7.947327e-06	-5.730721e-09	-5.670078e+01	-3.746258e+02
5.000000e-08	-7.934272e-06	-5.723782e-09	-5.660763e+01	-3.742336e+02
6.000000e-08	-7.918203e-06	-5.713054e-09	-5.649299e+01	-3.738058e+02
7.000000e-08	-7.899501e-06	-5.701931e-09	-5.635956e+01	-3.733496e+02
8.000000e-08	-7.878579e-06	-5.701935e-09	-5.621029e+01	-3.728701e+02
9.000000e-08	-7.854953e-06	-5.744207e-09	-5.604173e+01	-3.723698e+02
1.000000e-07	-7.828110e-06	-5.738811e-09	-5.585021e+01	-3.718484e+02
1.100000e-07	-7.798114e-06	-5.686675e-09	-5.563621e+01	-3.713031e+02
1.200000e-07	-7.765325e-06	-5.665697e-09	-5.540227e+01	-3.707287e+02
1.300000e-07	-7.729883e-06	-5.658088e-09	-5.514940e+01	-3.701186e+02
1.400000e-07	-7.692019e-06	-5.634659e-09	-5.487926e+01	-3.694652e+02
1.500000e-07	-7.652015e-06	-5.585305e-09	-5.459385e+01	-3.687607e+02
1.600000e-07	-7.609744e-06	-5.614683e-09	-5.429226e+01	-3.679978e+02
1.700000e-07	-7.564814e-06	-5.610872e-09	-5.397171e+01	-3.671701e+02
1.800000e-07	-7.517102e-06	-5.562476e-09	-5.363130e+01	-3.662722e+02
1.900000e-07	-7.466474e-06	-5.603256e-09	-5.327010e+01	-3.653000e+02
2.000000e-07	-7.412821e-06	-5.560338e-09	-5.288730e+01	-3.642507e+02
2.100000e-07	-7.356396e-06	-5.525840e-09	-5.248473e+01	-3.631222e+02
2.200000e-07	-7.297314e-06	-5.518326e-09	-5.206321e+01	-3.619136e+02
2.300000e-07	-7.235670e-06	-5.466110e-09	-5.162341e+01	-3.606245e+02
2.400000e-07	-7.171370e-06	-5.460021e-09	-5.116466e+01	-3.592551e+02
2.500000e-07	-7.104279e-06	-5.439584e-09	-5.068599e+01	-3.578062e+02
2.600000e-07	-7.034530e-06	-5.428380e-09	-5.018836e+01	-3.562788e+02
2.700000e-07	-6.962026e-06	-5.404689e-09	-4.967107e+01	-3.546746e+02
2.800000e-07	-6.886726e-06	-5.384324e-09	-4.913384e+01	-3.529955e+02
2.900000e-07	-6.808637e-06	-5.344195e-09	-4.857671e+01	-3.512440e+02
3.000000e-07	-6.727814e-06	-5.316036e-09	-4.800007e+01	-3.494226e+02
3.100000e-07	-6.644589e-06	-5.318063e-09	-4.740630e+01	-3.475335e+02
3.200000e-07	-6.559129e-06	-5.266052e-09	-4.679658e+01	-3.455787e+02
3.300000e-07	-6.471348e-06	-5.232131e-09	-4.617030e+01	-3.435593e+02
3.400000e-07	-6.381197e-06	-5.212981e-09	-4.552711e+01	-3.414755e+02
3.500000e-07	-6.288765e-06	-5.176672e-09	-4.486765e+01	-3.393260e+02
3.600000e-07	-6.194126e-06	-5.127823e-09	-4.419244e+01	-3.371081e+02
3.700000e-07	-6.097200e-06	-5.094997e-09	-4.350091e+01	-3.348183e+02
3.800000e-07	-5.998014e-06	-5.073099e-09	-4.279326e+01	-3.324518e+02
3.900000e-07	-5.896660e-06	-5.030795e-09	-4.207014e+01	-3.300036e+02
4.000000e-07	-5.793217e-06	-4.991572e-09	-4.133212e+01	-3.274690e+02
4.100000e-07	-5.687710e-06	-4.954213e-09	-4.057937e+01	-3.248438e+02
4.200000e-07	-5.580184e-06	-4.917100e-09	-3.981222e+01	-3.221253e+02
4.300000e-07	-5.470745e-06	-4.859987e-09	-3.903142e+01	-3.193122e+02
4.400000e-07	-5.359362e-06	-4.808722e-09	-3.823675e+01	-3.164047e+02
4.500000e-07	-5.245934e-06	-4.775849e-09	-3.742749e+01	-3.134047e+02
4.600000e-07	-5.130447e-06	-4.735801e-09	-3.660354e+01	-3.103144e+02
4.700000e-07	-5.013070e-06	-4.681040e-09	-3.576611e+01	-3.071365e+02
4.800000e-07	-4.893817e-06	-4.632837e-09	-3.491529e+01	-3.038727e+02
4.900000e-07	-4.772715e-06	-4.587420e-09	-3.405127e+01	-3.005234e+02
5.000000e-07	-4.649881e-06	-4.526627e-09	-3.317491e+01	-2.970866e+02
5.100000e-07	-4.525384e-06	-4.466682e-09	-3.228668e+01	-2.935581e+02
5.200000e-07	-4.399218e-06	-4.412621e-09	-3.138653e+01	-2.899310e+02
5.300000e-07	-4.271442e-06	-4.358098e-09	-3.047491e+01	-2.861964e+02
5.400000e-07	-4.142199e-06	-4.292328e-09	-2.955281e+01	-2.823443e+02
5.500000e-07	-4.011428e-06	-4.229049e-09	-2.861982e+01	-2.783645e+02
5.600000e-07	-3.879080e-06	-4.169805e-09	-2.767557e+01	-2.742474e+02
5.700000e-07	-3.745218e-06	-4.104821e-09	-2.672053e+01	-2.699859e+02
5.800000e-07	-3.609956e-06	-4.033806e-09	-2.575549e+01	-2.655752e+02
5.900000e-07	-3.473336e-06	-3.966043e-09	-2.478076e+01	-2.610142e+02
6.000000e-07	-3.335298e-06	-3.898717e-09	-2.379592e+01	-2.563045e+02
6.100000e-07	-3.195790e-06	-3.822099e-09	-2.280059e+01	-2.514502e+02
6.200000e-07	-3.054940e-06	-3.744680e-09	-2.179569e+01	-2.464567e+02
6.300000e-07	-2.912915e-06	-3.668568e-09	-2.078240e+01	-2.413293e+02
6.400000e-07	-2.769774e-06	-3.587814e-09	-1.976115e+01	-2.360713e+02
6.500000e-07	-2.625630e-06	-3.502883e-09	-1.873274e+01	-2.306832e+02
6.600000e-07	-2.480541e-06	-3.421731e-09	-1.769760e+01	-2.251610e+02
6.700000e-07	-2.334533e-06	-3.337883e-09	-1.665589e+01	-2.194957e+02
6.800000e-07	-2.187707e-06	-3.246958e-09	-1.560835e+01	-2.136739e+02
6.900000e-07	-2.040116e-06	-3.154294e-09	-1.455535e+01	-2.076781e+02
7.000000e-07	-1.891913e-06	-3.059529e-09	-1.349799e+01	-2.014883e+02
7.100000e-07	-1.743244e-06	-2.959505e-09	-1.243730e+01	-1.950839e+02
7.200000e-07	-1.594051e-06	-2.854255e-09	-1.137287e+01	-1.884454e+02
7.300000e-07	-1.444269e-06	-2.749346e-09	-1.030424e+01	-1.815564e+02
7.400000e-07	-1.293931e-06	-2.639628e-09	-9.231643e+00	-1.744047e+02
7.500000e-07	-1.143095e-06	-2.526041e-09	-8.155490e+00	-1.669831e+02
7.600000e-07	-9.918319e-07	-2.414638e-09	-7.076296e+00	-1.592885e+02
7.700000e-07	-8.403200e-07	-2.302276e-09	-5.995324e+00	-1.513213e+02
7.800000e-07	-6.886089e-07	-2.178134e-09	-4.912930e+00	-1.430826e+02
7.900000e-07	-5.366471e-07	-2.043925e-09	-3.828747e+00	-1.345724e+02
8.000000e-07	-3.845037e-07	-1.905966e-09	-2.743269e+00	-1.257862e+02
8.100000e-07	-2.322206e-07	-1.761521e-09	-1.656794e+00	-1.167130e+02
8.200000e-07	-7.981058e-08	-1.613391e-09	-5.694143e-01	-1.073333e+02
8.300000e-07	7.265454e-08	-1.462122e-09	5.183590e-01	-9.761908e+01
8.400000e-07	2.251509e-07	-1.307810e-09	1.606355e+00	-8.753412e+01
8.500000e-07	3.776245e-07	-1.147956e-09	2.694189e+00	-7.703677e+01
8.600000e-07	5.299694e-07	-9.803883e-10	3.781105e+00	-6.608369e+01
8.700000e-07	6.821675e-07	-8.079722e-10	4.866973e+00	-5.463471e+01
8.800000e-07	8.342036e-07	-6.279794e-10	5.951686e+00	-4.265849e+01
8.900000e-07	9.860054e-07	-4.382509e-10	7.034726e+00	-3.013806e+01
9.000000e-07	1.137516e-06	-2.424232e-10	8.115693e+00	-1.707590e+01
9.100000e-07	1.288622e-06	-4.003274e-11	9.193765e+00	-3.497681e+00
9.200000e-07	1.439194e-06	1.715816e-10	1.026804e+01	1.054567e+01
9.300000e-07	1.589223e-06	3.933874e-10	1.133842e+01	2.497804e+01
9.400000e-07	1.738685e-06	6.215682e-10	1.240478e+01	3.970039e+01
9.500000e-07	1.887509e-06	8.517906e-10	1.346657e+01	5.459517e+01
9.600000e-07	2.035667e-06	1.080734e-09	1.452361e+01	6.953237e+01
9.700000e-07	2.183096e-06	1.303939e-09	1.557546e+01	8.437686e+01
9.800000e-07	2.329697e-06	1.522391e-09	1.662139e+01	9.899611e+01
9.900000e-07	2.475418e-06	1.737567e-09	1.766104e+01	1.132678e+02
1.000000e-06	2.620166e-06	1.949073e-09	1.869377e+01	1.270861e+02
1.010000e-06	2.763946e-06	2.152373e-09	1.971957e+01	1.403669e+02
1.020000e-06	2.906735e-06	2.343545e-09	2.073831e+01	1.530505e+02
1.030000e-06	3.048391e-06	2.523330e-09	2.174897e+01	1.651026e+02
1.040000e-06	3.188757e-06	2.694456e-09	2.275041e+01	1.765126e+02
1.050000e-06	3.327777e-06	2.856784e-09	2.374226e+01	1.872907e+02
1.060000e-06	3.465481e-06	3.010036e-09	2.472473e+01	1.974634e+02
1.070000e-06	3.601886e-06	3.156524e-09	2.569791e+01	2.070678e+02
1.080000e-06	3.736949e-06	3.297569e-09	2.666153e+01	2.161466e+02
1.090000e-06	3.870673e-06	3.431797e-09	2.761559e+01	2.247433e+02
1.100000e-06	4.003041e-06	3.558112e-09	2.855998e+01	2.328979e+02
1.110000e-06	4.133930e-06	3.675636e-09	2.949382e+01	2.406446e+02
1.120000e-06	4.263343e-06	3.787579e-09	3.041712e+01	2.480106e+02
1.130000e-06	4.391280e-06	3.895079e-09	3.132990e+01	2.550165e+02
1.140000e-06	4.517715e-06	3.995594e-09	3.223196e+01	2.616773e+02
1.150000e-06	4.642665e-06	4.089614e-09	3.312343e+01	2.680046e+02
1.160000e-06	4.765996e-06	4.179353e-09	3.400334e+01	2.740093e+02
1.170000e-06	4.887614e-06	4.264468e-09	3.487103e+01	2.797033e+02
1.180000e-06	5.007473e-06	4.344332e-09	3.572618e+01	2.851014e+02
1.190000e-06	5.125480e-06	4.422212e-09	3.656810e+01	2.902221e+02
1.200000e-06	5.241558e-06	4.497776e-09	3.739628e+01	2.950878e+02
1.210000e-06	5.355593e-06	4.570111e-09	3.820986e+01	2.997234e+02
1.220000e-06	5.467574e-06	4.637510e-09	3.900880e+01	3.041550e+02
1.230000e-06	5.577594e-06	4.701571e-09	3.979375e+01	3.084079e+02
1.240000e-06	5.685663e-06	4.763641e-09	4.056477e+01	3.125041e+02
1.250000e-06	5.791644e-06	4.822906e-09	4.132090e+01	3.164610e+02
1.260000e-06	5.895449e-06	4.878550e-09	4.206150e+01	3.202895e+02
1.270000e-06	5.997130e-06	4.932352e-09	4.278696e+01	3.239942e+02
1.280000e-06	6.096602e-06	4.985128e-09	4.349664e+01	3.275734e+02
1.290000e-06	6.193749e-06	5.035861e-09	4.418975e+01	3.310200e+02
1.300000e-06	6.288604e-06	5.085726e-09	4.486650e+01	3.343240e+02
1.310000e-06	6.381250e-06	5.132847e-09	4.552749e+01	3.374740e+02
1.320000e-06	6.471688e-06	5.175729e-09	4.617272e+01	3.404595e+02
1.330000e-06	6.559765e-06	5.215735e-09	4.680111e+01	3.432732e+02
1.340000e-06	6.645533e-06	5.254672e-09	4.741303e+01	3.459119e+02
1.350000e-06	6.729044e-06	5.292624e-09	4.800885e+01	3.483777e+02
1.360000e-06	6.810138e-06	5.327172e-09	4.858742e+01	3.506776e+02
1.370000e-06	6.888717e-06	5.358855e-09	4.914805e+01	3.528231e+02
1.380000e-06	6.964678e-06	5.388957e-09	4.969000e+01	3.548282e+02
1.390000e-06	7.037986e-06	5.418117e-09	5.021301e+01	3.567084e+02
1.400000e-06	7.108756e-06	5.448256e-09	5.071793e+01	3.584789e+02
1.410000e-06	7.177048e-06	5.477735e-09	5.120517e+01	3.601523e+02
1.420000e-06	7.242762e-06	5.503607e-09	5.167400e+01	3.617383e+02
1.430000e-06	7.305856e-06	5.526262e-09	5.212415e+01	3.632425e+02
1.440000e-06	7.366485e-06	5.545934e-09	5.255671e+01	3.646667e+02
1.450000e-06	7.424618e-06	5.563896e-09	5.297147e+01	3.660095e+02
1.460000e-06	7.480095e-06	5.579981e-09	5.336727e+01	3.672672e+02
1.470000e-06	7.532690e-06	5.594913e-09	5.374252e+01	3.684352e+02
1.480000e-06	7.582163e-06	5.610467e-09	5.409549e+01	3.695093e+02
1.490000e-06	7.628726e-06	5.626236e-09	5.442769e+01	3.704873e+02
1.500000e-06	7.672723e-06	5.642904e-09	5.474159e+01	3.713691e+02
1.510000e-06	7.713984e-06	5.658823e-09	5.503597e+01	3.721578e+02
1.520000e-06	7.752408e-06	5.672226e-09	5.531011e+01	3.728591e+02
1.530000e-06	7.788128e-06	5.682046e-09	5.556496e+01	3.734807e+02
1.540000e-06	7.821066e-06	5.688829e-09	5.579996e+01	3.740317e+02
1.550000e-06	7.851271e-06	5.695128e-09	5.601546e+01	3.745209e+02
1.560000e-06	7.878733e-06	5.701980e-09	5.621139e+01	3.749560e+02
1.570000e-06	7.903235e-06	5.709546e-09	5.638620e+01	3.753425e+02
1.580000e-06	7.924931e-06	5.716148e-09	5.654099e+01	3.756832e+02
1.590000e-06	7.943992e-06	5.720681e-09	5.667698e+01	3.759780e+02
1.600000e-06	7.960116e-06	5.724268e-09	5.679202e+01	3.762240e+02
1.610000e-06	7.973116e-06	5.728639e-09	5.688477e+01	3.764164e+02
1.620000e-06	7.982946e-06	5.733335e-09	5.695490e+01	3.765494e+02
1.630000e-06	7.989746e-06	5.736050e-09	5.700341e+01	3.766173e+02
1.640000e-06	7.993822e-06	5.735683e-09	5.703250e+01	3.766157e+02
1.650000e-06	7.995084e-06	5.734471e-09	5.704150e+01	3.765420e+02
1.660000e-06	7.993549e-06	5.728436e-09	5.703055e+01	3.763967e+02
1.670000e-06	7.989375e-06	5.722757e-09	5.700077e+01	3.761827e+02
1.680000e-06	7.982498e-06	5.720130e-09	5.695170e+01	3.759057e+02
1.690000e-06	7.972976e-06	5.717179e-09	5.688377e+01	3.755733e+02
1.700000e-06	7.960689e-06	5.714468e-09	5.679611e+01	3.751940e+02
1.710000e-06	7.945553e-06	5.713043e-09	5.668811e+01	3.747766e+02
1.720000e-06	7.927947e-06	5.711908e-09	5.656250e+01	3.743286e+02
1.730000e-06	7.908089e-06	5.680178e-09	5.642083e+01	3.738560e+02
1.740000e-06	7.885601e-06	5.614503e-09	5.626039e+01	3.733620e+02
1.750000e-06	7.859817e-06	5.634052e-09	5.607643e+01	3.728473e+02
1.760000e-06	7.830416e-06	5.659027e-09	5.586666e+01	3.723099e+02
1.770000e-06	7.797827e-06	5.637514e-09	5.563416e+01	3.717453e+02
1.780000e-06	7.762798e-06	5.638182e-09	5.538424e+01	3.711472e+02
1.790000e-06	7.725428e-06	5.691939e-09	5.511762e+01	3.705084e+02
1.800000e-06	7.685816e-06	5.639000e-09	5.483500e+01	3.698209e+02
1.810000e-06	7.644136e-06	5.595228e-09	5.453764e+01	3.690773e+02
1.820000e-06	7.599982e-06	5.648088e-09	5.422262e+01	3.682708e+02
1.830000e-06	7.553240e-06	5.572935e-09	5.388914e+01	3.673958e+02
1.840000e-06	7.503688e-06	5.607460e-09	5.353560e+01	3.664476e+02
1.850000e-06	7.451012e-06	5.572026e-09	5.315978e+01	3.654231e+02
1.860000e-06	7.395490e-06	5.544790e-09	5.276365e+01	3.643199e+02
1.870000e-06	7.337305e-06	5.600038e-09	5.234853e+01	3.631369e+02
1.880000e-06	7.276529e-06	5.518128e-09	5.191492e+01	3.618735e+02
1.890000e-06	7.213049e-06	5.528964e-09	5.146201e+01	3.605296e+02
1.900000e-06	7.146736e-06	5.478230e-09	5.098890e+01	3.591059e+02
1.910000e-06	7.077626e-06	5.433803e-09	5.049583e+01	3.576033e+02
1.920000e-06	7.005684e-06	5.427315e-09	4.998256e+01	3.560233e+02
1.930000e-06	6.931061e-06	5.404928e-09	4.945015e+01	3.543679e+02
1.940000e-06	6.853729e-06	5.422726e-09	4.889842e+01	3.526392e+02
1.950000e-06	6.773721e-06	5.339885e-09	4.832760e+01	3.508397e+02
1.960000e-06	6.691214e-06	5.328429e-09	4.773895e+01	3.489719e+02
1.970000e-06	6.606190e-06	5.298213e-09	4.713234e+01	3.470378e+02
1.980000e-06	6.518710e-06	5.247478e-09	4.650821e+01	3.450389e+02
1.990000e-06	6.428887e-06	5.236113e-09	4.586736e+01	3.429756e+02
2.000000e-06	6.336898e-06	5.210056e-09	4.521105e+01	3.408472e+02
2.010000e-06	6.242668e-06	5.182688e-09	4.453876e+01	3.386514e+02
2.020000e-06	6.146121e-06	5.117254e-09	4.384994e+01	3.363850e+02
2.030000e-06	6.047394e-06	5.093027e-09	4.314557e+01	3.340434e+02
2.040000e-06	5.946563e-06	5.061632e-09	4.242618e+01	3.316218e+02
2.050000e-06	5.843614e-06	5.028687e-09	4.169168e+01	3.291152e+02
2.060000e-06	5.738561e-06	4.976233e-09	4.094217e+01	3.265193e+02
2.070000e-06	5.631589e-06	4.940249e-09	4.017897e+01	3.238307e+02
2.080000e-06	5.522698e-06	4.908974e-09	3.940209e+01	3.210478e+02
2.090000e-06	5.411822e-06	4.853225e-09	3.861103e+01	3.181703e+02
2.100000e-06	5.298888e-06	4.808264e-09	3.780530e+01	3.151996e+02
2.110000e-06	5.183928e-06	4.763860e-09	3.698511e+01	3.121377e+02
2.120000e-06	5.066993e-06	4.717509e-09	3.615083e+01	3.089875e+02
2.130000e-06	4.948089e-06	4.657257e-09	3.530249e+01	3.057510e+02
2.140000e-06	4.827309e-06	4.617367e-09	3.444078e+01	3.024290e+02
2.150000e-06	4.704757e-06	4.575986e-09	3.356643e+01	2.990205e+02
2.160000e-06	4.580539e-06	4.523695e-09	3.268019e+01	2.955219e+02
2.170000e-06	4.454629e-06	4.458763e-09	3.178187e+01	2.919271e+02
2.180000e-06	4.327082e-06	4.401231e-09	3.087188e+01	2.882279e+02
2.190000e-06	4.197975e-06	4.345775e-09	2.995075e+01	2.844145e+02
2.200000e-06	4.067306e-06	4.285995e-09	2.901849e+01	2.804765e+02
2.210000e-06	3.935177e-06	4.226834e-09	2.807580e+01	2.764042e+02
2.220000e-06	3.801623e-06	4.165343e-09	2.712295e+01	2.721895e+02
2.230000e-06	3.666539e-06	4.098961e-09	2.615919e+01	2.678269e+02
2.240000e-06	3.530054e-06	4.026490e-09	2.518542e+01	2.633139e+02
2.250000e-06	3.392199e-06	3.960847e-09	2.420189e+01	2.586514e+02
2.260000e-06	3.253045e-06	3.892171e-09	2.320908e+01	2.538428e+02
2.270000e-06	3.112725e-06	3.814474e-09	2.220796e+01	2.488932e+02
2.280000e-06	2.971144e-06	3.731452e-09	2.119784e+01	2.438081e+02
2.290000e-06	2.828330e-06	3.652070e-09	2.017893e+01	2.385916e+02
2.300000e-06	2.684464e-06	3.570003e-09	1.915250e+01	2.332453e+02
2.310000e-06	2.539731e-06	3.485757e-09	1.811989e+01	2.277667e+02
2.320000e-06	2.394119e-06	3.401851e-09	1.708102e+01	2.221484e+02
2.330000e-06	2.247643e-06	3.313508e-09	1.603597e+01	2.163784e+02
2.340000e-06	2.100373e-06	3.221206e-09	1.498527e+01	2.104404e+02
2.350000e-06	1.952386e-06	3.128583e-09	1.392944e+01	2.043150e+02
2.360000e-06	1.803811e-06	3.036920e-09	1.286942e+01	1.979815e+02
2.370000e-06	1.654746e-06	2.938722e-09	1.180591e+01	1.914200e+02
2.380000e-06	1.505208e-06	2.831203e-09	1.073901e+01	1.846128e+02
2.390000e-06	1.355166e-06	2.721023e-09	9.668529e+00	1.775464e+02
2.400000e-06	1.204598e-06	2.608984e-09	8.594293e+00	1.702118e+02
2.410000e-06	1.053555e-06	2.492468e-09	7.516662e+00	1.626048e+02
2.420000e-06	9.021628e-07	2.373383e-09	6.436545e+00	1.547248e+02
2.430000e-06	7.505050e-07	2.250148e-09	5.354532e+00	1.465731e+02
2.440000e-06	5.986403e-07	2.122654e-09	4.271042e+00	1.381502e+02
2.450000e-06	4.465748e-07	1.991530e-09	3.186120e+00	1.294533e+02
2.460000e-06	2.942786e-07	1.856940e-09	2.099552e+00	1.204738e+02
2.470000e-06	1.418655e-07	1.717825e-09	1.012150e+00	1.111950e+02
2.480000e-06	-1.057492e-08	1.570631e-09	-7.544751e-02	1.015917e+02
2.490000e-06	-1.630571e-07	1.418694e-09	-1.163343e+00	9.162998e+01
2.500000e-06	-3.155365e-07	1.261221e-09	-2.251218e+00	8.126969e+01
2.510000e-06	-4.678866e-07	1.095856e-09	-3.338170e+00	7.046750e+01
2.520000e-06	-6.200799e-07	9.234866e-10	-4.424005e+00	5.918164e+01
2.530000e-06	-7.721376e-07	7.436330e-10	-5.508871e+00	4.737730e+01
2.540000e-06	-9.239668e-07	5.566073e-10	-6.592108e+00	3.503231e+01
2.550000e-06	-1.075488e-06	3.588204e-10	-7.673144e+00	2.214242e+01
2.560000e-06	-1.226592e-06	1.520224e-10	-8.751211e+00	8.725515e+00
2.570000e-06	-1.377153e-06	-6.106677e-11	-9.825396e+00	-5.175682e+00
2.580000e-06	-1.527185e-06	-2.789764e-10	-1.089581e+01	-1.949301e+01
2.590000e-06	-1.676666e-06	-5.011638e-10	-1.196230e+01	-3.413444e+01
2.600000e-06	-1.825520e-06	-7.294056e-10	-1.302430e+01	-4.898775e+01
2.610000e-06	-1.973838e-06	-9.599292e-10	-1.408249e+01	-6.392619e+01
2.620000e-06	-2.121516e-06	-1.189835e-09	-1.513611e+01	-7.881545e+01
2.630000e-06	-2.268311e-06	-1.416872e-09	-1.618343e+01	-9.352132e+01
2.640000e-06	-2.414198e-06	-1.639448e-09	-1.722427e+01	-1.079174e+02
2.650000e-06	-2.559182e-06	-1.856099e-09	-1.825867e+01	-1.218919e+02
2.660000e-06	-2.703170e-06	-2.063597e-09	-1.928596e+01	-1.353535e+02
2.670000e-06	-2.846003e-06	-2.259610e-09	-2.030501e+01	-1.482342e+02
2.680000e-06	-2.987630e-06	-2.444467e-09	-2.131546e+01	-1.604918e+02
2.690000e-06	-3.128114e-06	-2.620310e-09	-2.231775e+01	-1.721082e+02
2.700000e-06	-3.267460e-06	-2.786683e-09	-2.331193e+01	-1.830875e+02
2.710000e-06	-3.405614e-06	-2.943844e-09	-2.429760e+01	-1.934514e+02
2.720000e-06	-3.542497e-06	-3.094882e-09	-2.527420e+01	-2.032342e+02
2.730000e-06	-3.677997e-06	-3.238167e-09	-2.624093e+01	-2.124774e+02
2.740000e-06	-3.812085e-06	-3.371696e-09	-2.719759e+01	-2.212247e+02
2.750000e-06	-3.944878e-06	-3.499868e-09	-2.814501e+01	-2.295176e+02
2.760000e-06	-4.076317e-06	-3.623262e-09	-2.908277e+01	-2.373923e+02
2.770000e-06	-4.206302e-06	-3.739302e-09	-3.001016e+01	-2.448784e+02
2.780000e-06	-4.334884e-06	-3.848184e-09	-3.092754e+01	-2.519984e+02
2.790000e-06	-4.461942e-06	-3.950909e-09	-3.183404e+01	-2.587689e+02
2.800000e-06	-4.587418e-06	-4.047655e-09	-3.272926e+01	-2.652025e+02
2.810000e-06	-4.711361e-06	-4.137127e-09	-3.361354e+01	-2.713099e+02
2.820000e-06	-4.833651e-06	-4.221408e-09	-3.448603e+01	-2.771026e+02
2.830000e-06	-4.954116e-06	-4.304288e-09	-3.534550e+01	-2.825942e+02
2.840000e-06	-5.072670e-06	-4.387404e-09	-3.619133e+01	-2.878020e+02
2.850000e-06	-5.189296e-06	-4.467271e-09	-3.702340e+01	-2.927473e+02
2.860000e-06	-5.303807e-06	-4.540479e-09	-3.784039e+01	-2.974543e+02
2.870000e-06	-5.416131e-06	-4.610096e-09	-3.864178e+01	-3.019489e+02
2.880000e-06	-5.526406e-06	-4.677246e-09	-3.942854e+01	-3.062568e+02
2.890000e-06	-5.634711e-06	-4.740956e-09	-4.020125e+01	-3.104015e+02
2.900000e-06	-5.741094e-06	-4.801671e-09	-4.096025e+01	-3.144019e+02
2.910000e-06	-5.845452e-06	-4.860140e-09	-4.170480e+01	-3.182711e+02
2.920000e-06	-5.947608e-06	-4.919262e-09	-4.243364e+01	-3.220157e+02
2.930000e-06	-6.047496e-06	-4.977195e-09	-4.314630e+01	-3.256360e+02
2.940000e-06	-6.145242e-06	-5.032784e-09	-4.384367e+01	-3.291265e+02
