# Temperatura_=_45.61
# Concentracion g/m^3_=_5000.0
# C_Vs_to_Am_M_A/Vsm_=_65563218390.804596
# pendiente_HvsI_1/m_=_3716.3
# ordenada_HvsI_A/m_=_1297.0
# frecuencia_Hz_=_302502.6033800069

Tiempo_(s)	Campo_(V.s)	Magnetizacion_(V.s)	Campo_(kA/m)	Magnetizacion_(A/m)
0.000000e+00	-7.914305e-06	-5.811133e-09	-5.686033e+01	-3.801976e+02
1.000000e-08	-7.909771e-06	-5.807049e-09	-5.682776e+01	-3.799528e+02
2.000000e-08	-7.902701e-06	-5.799736e-09	-5.677696e+01	-3.796408e+02
3.000000e-08	-7.892897e-06	-5.795672e-09	-5.670653e+01	-3.792728e+02
4.000000e-08	-7.880241e-06	-5.791440e-09	-5.661560e+01	-3.788606e+02
5.000000e-08	-7.864719e-06	-5.784345e-09	-5.650408e+01	-3.784149e+02
6.000000e-08	-7.846529e-06	-5.776526e-09	-5.637340e+01	-3.779443e+02
7.000000e-08	-7.826020e-06	-5.771485e-09	-5.622605e+01	-3.774541e+02
8.000000e-08	-7.802937e-06	-5.776411e-09	-5.606021e+01	-3.769460e+02
9.000000e-08	-7.776742e-06	-5.797879e-09	-5.587201e+01	-3.764178e+02
1.000000e-07	-7.747410e-06	-5.781479e-09	-5.566127e+01	-3.758641e+02
1.100000e-07	-7.715267e-06	-5.744352e-09	-5.543034e+01	-3.752768e+02
1.200000e-07	-7.680446e-06	-5.723159e-09	-5.518017e+01	-3.746462e+02
1.300000e-07	-7.643147e-06	-5.699320e-09	-5.491219e+01	-3.739624e+02
1.400000e-07	-7.603721e-06	-5.667637e-09	-5.462894e+01	-3.732158e+02
1.500000e-07	-7.562134e-06	-5.653791e-09	-5.433016e+01	-3.723982e+02
1.600000e-07	-7.517925e-06	-5.686449e-09	-5.401254e+01	-3.715035e+02
1.700000e-07	-7.470979e-06	-5.655548e-09	-5.367525e+01	-3.705275e+02
1.800000e-07	-7.421228e-06	-5.623327e-09	-5.331782e+01	-3.694683e+02
1.900000e-07	-7.368455e-06	-5.634333e-09	-5.293867e+01	-3.683256e+02
2.000000e-07	-7.312901e-06	-5.581688e-09	-5.253954e+01	-3.671005e+02
2.100000e-07	-7.254659e-06	-5.567565e-09	-5.212110e+01	-3.657949e+02
2.200000e-07	-7.193787e-06	-5.552881e-09	-5.168377e+01	-3.644108e+02
2.300000e-07	-7.130330e-06	-5.505467e-09	-5.122786e+01	-3.629503e+02
2.400000e-07	-7.064088e-06	-5.492724e-09	-5.075195e+01	-3.614154e+02
2.500000e-07	-6.995138e-06	-5.478214e-09	-5.025658e+01	-3.598075e+02
2.600000e-07	-6.923515e-06	-5.459280e-09	-4.974200e+01	-3.581279e+02
2.700000e-07	-6.849127e-06	-5.425047e-09	-4.920756e+01	-3.563778e+02
2.800000e-07	-6.771961e-06	-5.405060e-09	-4.865316e+01	-3.545585e+02
2.900000e-07	-6.692076e-06	-5.371502e-09	-4.807923e+01	-3.526710e+02
3.000000e-07	-6.609701e-06	-5.341286e-09	-4.748740e+01	-3.507165e+02
3.100000e-07	-6.525093e-06	-5.328011e-09	-4.687954e+01	-3.486959e+02
3.200000e-07	-6.438220e-06	-5.282495e-09	-4.625540e+01	-3.466095e+02
3.300000e-07	-6.349021e-06	-5.242147e-09	-4.561454e+01	-3.444572e+02
3.400000e-07	-6.257526e-06	-5.204446e-09	-4.495720e+01	-3.422375e+02
3.500000e-07	-6.163745e-06	-5.173926e-09	-4.428343e+01	-3.399479e+02
3.600000e-07	-6.067718e-06	-5.142990e-09	-4.359353e+01	-3.375850e+02
3.700000e-07	-5.969425e-06	-5.109343e-09	-4.288734e+01	-3.351444e+02
3.800000e-07	-5.868967e-06	-5.076271e-09	-4.216560e+01	-3.326212e+02
3.900000e-07	-5.766493e-06	-5.032929e-09	-4.142938e+01	-3.300108e+02
4.000000e-07	-5.662018e-06	-4.984553e-09	-4.067878e+01	-3.273092e+02
4.100000e-07	-5.555532e-06	-4.935834e-09	-3.991372e+01	-3.245138e+02
4.200000e-07	-5.447055e-06	-4.902707e-09	-3.913437e+01	-3.216235e+02
4.300000e-07	-5.336670e-06	-4.855978e-09	-3.834131e+01	-3.186392e+02
4.400000e-07	-5.224257e-06	-4.799993e-09	-3.753368e+01	-3.155631e+02
4.500000e-07	-5.109727e-06	-4.751506e-09	-3.671084e+01	-3.123986e+02
4.600000e-07	-4.993242e-06	-4.705952e-09	-3.587395e+01	-3.091493e+02
4.700000e-07	-4.874986e-06	-4.652395e-09	-3.502434e+01	-3.058182e+02
4.800000e-07	-4.754990e-06	-4.600720e-09	-3.416223e+01	-3.024067e+02
4.900000e-07	-4.633260e-06	-4.554295e-09	-3.328766e+01	-2.989138e+02
5.000000e-07	-4.509775e-06	-4.497594e-09	-3.240048e+01	-2.953353e+02
5.100000e-07	-4.384619e-06	-4.437056e-09	-3.150130e+01	-2.916643e+02
5.200000e-07	-4.257942e-06	-4.378318e-09	-3.059119e+01	-2.878911e+02
5.300000e-07	-4.129724e-06	-4.316685e-09	-2.967000e+01	-2.840040e+02
5.400000e-07	-4.000099e-06	-4.246010e-09	-2.873872e+01	-2.799906e+02
5.500000e-07	-3.868917e-06	-4.181697e-09	-2.779624e+01	-2.758390e+02
5.600000e-07	-3.736112e-06	-4.123518e-09	-2.684210e+01	-2.715396e+02
5.700000e-07	-3.602023e-06	-4.057406e-09	-2.587874e+01	-2.670854e+02
5.800000e-07	-3.466581e-06	-3.983148e-09	-2.490565e+01	-2.624734e+02
5.900000e-07	-3.329766e-06	-3.910163e-09	-2.392271e+01	-2.577045e+02
6.000000e-07	-3.191677e-06	-3.835167e-09	-2.293061e+01	-2.527831e+02
6.100000e-07	-3.052175e-06	-3.752227e-09	-2.192835e+01	-2.477156e+02
6.200000e-07	-2.911320e-06	-3.672859e-09	-2.091638e+01	-2.425095e+02
6.300000e-07	-2.769289e-06	-3.597945e-09	-1.989596e+01	-2.371712e+02
6.400000e-07	-2.626263e-06	-3.517101e-09	-1.886839e+01	-2.317043e+02
6.500000e-07	-2.482230e-06	-3.429319e-09	-1.783358e+01	-2.261082e+02
6.600000e-07	-2.337206e-06	-3.342362e-09	-1.679166e+01	-2.203768e+02
6.700000e-07	-2.191423e-06	-3.253153e-09	-1.574428e+01	-2.144988e+02
6.800000e-07	-2.044930e-06	-3.158789e-09	-1.469180e+01	-2.084577e+02
6.900000e-07	-1.897792e-06	-3.063027e-09	-1.363469e+01	-2.022334e+02
7.000000e-07	-1.750061e-06	-2.965457e-09	-1.257332e+01	-1.958040e+02
7.100000e-07	-1.601755e-06	-2.863293e-09	-1.150781e+01	-1.891479e+02
7.200000e-07	-1.452957e-06	-2.756205e-09	-1.043877e+01	-1.822456e+02
7.300000e-07	-1.303721e-06	-2.645655e-09	-9.366586e+00	-1.750822e+02
7.400000e-07	-1.154116e-06	-2.532240e-09	-8.291750e+00	-1.676475e+02
7.500000e-07	-1.004182e-06	-2.418774e-09	-7.214544e+00	-1.599365e+02
7.600000e-07	-8.539480e-07	-2.304379e-09	-6.135190e+00	-1.519486e+02
7.700000e-07	-7.034313e-07	-2.183194e-09	-5.053803e+00	-1.436853e+02
7.800000e-07	-5.526784e-07	-2.051476e-09	-3.970718e+00	-1.351482e+02
7.900000e-07	-4.017003e-07	-1.912430e-09	-2.886016e+00	-1.263354e+02
8.000000e-07	-2.504892e-07	-1.768437e-09	-1.799640e+00	-1.172394e+02
8.100000e-07	-9.919479e-08	-1.619415e-09	-7.126651e-01	-1.078446e+02
8.200000e-07	5.212877e-08	-1.465375e-09	3.745192e-01	-9.812623e+01
8.300000e-07	2.034926e-07	-1.309540e-09	1.461992e+00	-8.805088e+01
8.400000e-07	3.548097e-07	-1.152545e-09	2.549131e+00	-7.757832e+01
8.500000e-07	5.060614e-07	-9.886106e-10	3.635798e+00	-6.666502e+01
8.600000e-07	6.572082e-07	-8.175985e-10	4.721713e+00	-5.526897e+01
8.700000e-07	8.081335e-07	-6.379518e-10	5.806036e+00	-4.335528e+01
8.800000e-07	9.587756e-07	-4.479955e-10	6.888324e+00	-3.090212e+01
8.900000e-07	1.109093e-06	-2.523649e-10	7.968281e+00	-1.790617e+01
9.000000e-07	1.259039e-06	-4.953741e-11	9.045565e+00	-4.386944e+00
9.100000e-07	1.408592e-06	1.612003e-10	1.012003e+01	9.610530e+00
9.200000e-07	1.557691e-06	3.816521e-10	1.119123e+01	2.401520e+01
9.300000e-07	1.706258e-06	6.090749e-10	1.225861e+01	3.873178e+01
9.400000e-07	1.854180e-06	8.372240e-10	1.332136e+01	5.364478e+01
9.500000e-07	2.001395e-06	1.064712e-09	1.437903e+01	6.862450e+01
9.600000e-07	2.147935e-06	1.288984e-09	1.543184e+01	8.353434e+01
9.700000e-07	2.293692e-06	1.509795e-09	1.647903e+01	9.823884e+01
9.800000e-07	2.438467e-06	1.727240e-09	1.751917e+01	1.126116e+02
9.900000e-07	2.582286e-06	1.939695e-09	1.855243e+01	1.265421e+02
1.000000e-06	2.725181e-06	2.143384e-09	1.957906e+01	1.399414e+02
1.010000e-06	2.867053e-06	2.335503e-09	2.059835e+01	1.527455e+02
1.020000e-06	3.007805e-06	2.515982e-09	2.160957e+01	1.649163e+02
1.030000e-06	3.147252e-06	2.686916e-09	2.261143e+01	1.764406e+02
1.040000e-06	3.285372e-06	2.850478e-09	2.360376e+01	1.873270e+02
1.050000e-06	3.422248e-06	3.007246e-09	2.458714e+01	1.976015e+02
1.060000e-06	3.557849e-06	3.155793e-09	2.556137e+01	2.073017e+02
1.070000e-06	3.692170e-06	3.297347e-09	2.652640e+01	2.164715e+02
1.080000e-06	3.825223e-06	3.433047e-09	2.748232e+01	2.251558e+02
1.090000e-06	3.956884e-06	3.560821e-09	2.842824e+01	2.333962e+02
1.100000e-06	4.087093e-06	3.679172e-09	2.936372e+01	2.412283e+02
1.110000e-06	4.215810e-06	3.790857e-09	3.028849e+01	2.486804e+02
1.120000e-06	4.343081e-06	3.898391e-09	3.120287e+01	2.557736e+02
1.130000e-06	4.468918e-06	4.001252e-09	3.210694e+01	2.625232e+02
1.140000e-06	4.593203e-06	4.098995e-09	3.299987e+01	2.689406e+02
1.150000e-06	4.715891e-06	4.191857e-09	3.388132e+01	2.750363e+02
1.160000e-06	4.836867e-06	4.278395e-09	3.475047e+01	2.808216e+02
1.170000e-06	4.956117e-06	4.360104e-09	3.560723e+01	2.863110e+02
1.180000e-06	5.073588e-06	4.437960e-09	3.645120e+01	2.915229e+02
1.190000e-06	5.189046e-06	4.512935e-09	3.728070e+01	2.964796e+02
1.200000e-06	5.302465e-06	4.585380e-09	3.809556e+01	3.012063e+02
1.210000e-06	5.413931e-06	4.653680e-09	3.889639e+01	3.057298e+02
1.220000e-06	5.523481e-06	4.719195e-09	3.968346e+01	3.100757e+02
1.230000e-06	5.631134e-06	4.782336e-09	4.045689e+01	3.142667e+02
1.240000e-06	5.736748e-06	4.844526e-09	4.121567e+01	3.183204e+02
1.250000e-06	5.840198e-06	4.904856e-09	4.195891e+01	3.222482e+02
1.260000e-06	5.941539e-06	4.962312e-09	4.268699e+01	3.260544e+02
1.270000e-06	6.040704e-06	5.016086e-09	4.339944e+01	3.297369e+02
1.280000e-06	6.137514e-06	5.066663e-09	4.409497e+01	3.332883e+02
1.290000e-06	6.232055e-06	5.115980e-09	4.477420e+01	3.366975e+02
1.300000e-06	6.324403e-06	5.163246e-09	4.543768e+01	3.399526e+02
1.310000e-06	6.414479e-06	5.208929e-09	4.608483e+01	3.430424e+02
1.320000e-06	6.502242e-06	5.252395e-09	4.671536e+01	3.459590e+02
1.330000e-06	6.587738e-06	5.292919e-09	4.732961e+01	3.486990e+02
1.340000e-06	6.670988e-06	5.331772e-09	4.792772e+01	3.512642e+02
1.350000e-06	6.751846e-06	5.368109e-09	4.850864e+01	3.536614e+02
1.360000e-06	6.830221e-06	5.401451e-09	4.907173e+01	3.559021e+02
1.370000e-06	6.906045e-06	5.432465e-09	4.961649e+01	3.580002e+02
1.380000e-06	6.979252e-06	5.461385e-09	5.014244e+01	3.599711e+02
1.390000e-06	7.049929e-06	5.489940e-09	5.065022e+01	3.618293e+02
1.400000e-06	7.118123e-06	5.518160e-09	5.114016e+01	3.635869e+02
1.410000e-06	7.183751e-06	5.545540e-09	5.161167e+01	3.652528e+02
1.420000e-06	7.246771e-06	5.570168e-09	5.206443e+01	3.668320e+02
1.430000e-06	7.307312e-06	5.592729e-09	5.249939e+01	3.683257e+02
1.440000e-06	7.365353e-06	5.614981e-09	5.291639e+01	3.697320e+02
1.450000e-06	7.420783e-06	5.633947e-09	5.331462e+01	3.710474e+02
1.460000e-06	7.473441e-06	5.648646e-09	5.369294e+01	3.722680e+02
1.470000e-06	7.523062e-06	5.661775e-09	5.404944e+01	3.733909e+02
1.480000e-06	7.569776e-06	5.676735e-09	5.438506e+01	3.744154e+02
1.490000e-06	7.613853e-06	5.692549e-09	5.470173e+01	3.753437e+02
1.500000e-06	7.655144e-06	5.707750e-09	5.499839e+01	3.761810e+02
1.510000e-06	7.693640e-06	5.722554e-09	5.527496e+01	3.769352e+02
1.520000e-06	7.729548e-06	5.735682e-09	5.553295e+01	3.776156e+02
1.530000e-06	7.762728e-06	5.746530e-09	5.577133e+01	3.782323e+02
1.540000e-06	7.793113e-06	5.754757e-09	5.598962e+01	3.787942e+02
1.550000e-06	7.820758e-06	5.761843e-09	5.618824e+01	3.793079e+02
1.560000e-06	7.845482e-06	5.769067e-09	5.636587e+01	3.797773e+02
1.570000e-06	7.867375e-06	5.775448e-09	5.652316e+01	3.802022e+02
1.580000e-06	7.886592e-06	5.780627e-09	5.666123e+01	3.805791e+02
1.590000e-06	7.902893e-06	5.785044e-09	5.677834e+01	3.809017e+02
1.600000e-06	7.916191e-06	5.789842e-09	5.687388e+01	3.811617e+02
1.610000e-06	7.926362e-06	5.795353e-09	5.694696e+01	3.813504e+02
1.620000e-06	7.933491e-06	5.798727e-09	5.699817e+01	3.814602e+02
1.630000e-06	7.937913e-06	5.799164e-09	5.702994e+01	3.814857e+02
1.640000e-06	7.939522e-06	5.799000e-09	5.704150e+01	3.814250e+02
1.650000e-06	7.938351e-06	5.797453e-09	5.703309e+01	3.812798e+02
1.660000e-06	7.934617e-06	5.790323e-09	5.700627e+01	3.810556e+02
1.670000e-06	7.928199e-06	5.783817e-09	5.696015e+01	3.807612e+02
1.680000e-06	7.919058e-06	5.780671e-09	5.689448e+01	3.804075e+02
1.690000e-06	7.907248e-06	5.778059e-09	5.680963e+01	3.800063e+02
1.700000e-06	7.892702e-06	5.774175e-09	5.670513e+01	3.795687e+02
1.710000e-06	7.875610e-06	5.767902e-09	5.658232e+01	3.791040e+02
1.720000e-06	7.856193e-06	5.754407e-09	5.644283e+01	3.786186e+02
1.730000e-06	7.834191e-06	5.723054e-09	5.628475e+01	3.781152e+02
1.740000e-06	7.809049e-06	5.693323e-09	5.610412e+01	3.775927e+02
1.750000e-06	7.780382e-06	5.704859e-09	5.589816e+01	3.770465e+02
1.760000e-06	7.748381e-06	5.708644e-09	5.566825e+01	3.764692e+02
1.770000e-06	7.713801e-06	5.702532e-09	5.541981e+01	3.758516e+02
1.780000e-06	7.677002e-06	5.719805e-09	5.515543e+01	3.751835e+02
1.790000e-06	7.638024e-06	5.729828e-09	5.487539e+01	3.744553e+02
1.800000e-06	7.596893e-06	5.682045e-09	5.457989e+01	3.736582e+02
1.810000e-06	7.553269e-06	5.672712e-09	5.426647e+01	3.727855e+02
1.820000e-06	7.507100e-06	5.690985e-09	5.393477e+01	3.718326e+02
1.830000e-06	7.458283e-06	5.658835e-09	5.358404e+01	3.707968e+02
1.840000e-06	7.406522e-06	5.669147e-09	5.321216e+01	3.696774e+02
1.850000e-06	7.351882e-06	5.629099e-09	5.281960e+01	3.684752e+02
1.860000e-06	7.294450e-06	5.607040e-09	5.240698e+01	3.671919e+02
1.870000e-06	7.234385e-06	5.594284e-09	5.197544e+01	3.658295e+02
1.880000e-06	7.171687e-06	5.549982e-09	5.152499e+01	3.643902e+02
1.890000e-06	7.106224e-06	5.548113e-09	5.105467e+01	3.628758e+02
1.900000e-06	7.037989e-06	5.510087e-09	5.056444e+01	3.612881e+02
1.910000e-06	6.966958e-06	5.494094e-09	5.005411e+01	3.596284e+02
1.920000e-06	6.893229e-06	5.454608e-09	4.952441e+01	3.578979e+02
1.930000e-06	6.816794e-06	5.432048e-09	4.897527e+01	3.560978e+02
1.940000e-06	6.737614e-06	5.426494e-09	4.840639e+01	3.542291e+02
1.950000e-06	6.655879e-06	5.373158e-09	4.781917e+01	3.522932e+02
1.960000e-06	6.571755e-06	5.353800e-09	4.721478e+01	3.502909e+02
1.970000e-06	6.485233e-06	5.306706e-09	4.659316e+01	3.482229e+02
1.980000e-06	6.396316e-06	5.279215e-09	4.595434e+01	3.460890e+02
1.990000e-06	6.305180e-06	5.252325e-09	4.529957e+01	3.438883e+02
2.000000e-06	6.211858e-06	5.213800e-09	4.462910e+01	3.416185e+02
2.010000e-06	6.116217e-06	5.180111e-09	4.394196e+01	3.392765e+02
2.020000e-06	6.018354e-06	5.129162e-09	4.323887e+01	3.368581e+02
2.030000e-06	5.918400e-06	5.097055e-09	4.252075e+01	3.343585e+02
2.040000e-06	5.816359e-06	5.066546e-09	4.178764e+01	3.317729e+02
2.050000e-06	5.712242e-06	5.040723e-09	4.103961e+01	3.290972e+02
2.060000e-06	5.606196e-06	4.985060e-09	4.027772e+01	3.263283e+02
2.070000e-06	5.498282e-06	4.931072e-09	3.950241e+01	3.234647e+02
2.080000e-06	5.388409e-06	4.883754e-09	3.871303e+01	3.205066e+02
2.090000e-06	5.276514e-06	4.839823e-09	3.790912e+01	3.174559e+02
2.100000e-06	5.162645e-06	4.800902e-09	3.709103e+01	3.143158e+02
2.110000e-06	5.046809e-06	4.760441e-09	3.625881e+01	3.110899e+02
2.120000e-06	4.929006e-06	4.708717e-09	3.541245e+01	3.077815e+02
2.130000e-06	4.809330e-06	4.642905e-09	3.455263e+01	3.043925e+02
2.140000e-06	4.687845e-06	4.591868e-09	3.367983e+01	3.009226e+02
2.150000e-06	4.564606e-06	4.546564e-09	3.279442e+01	2.973687e+02
2.160000e-06	4.439747e-06	4.497381e-09	3.189737e+01	2.937245e+02
2.170000e-06	4.313385e-06	4.433836e-09	3.098951e+01	2.899812e+02
2.180000e-06	4.185335e-06	4.374194e-09	3.006954e+01	2.861273e+02
2.190000e-06	4.055708e-06	4.314035e-09	2.913824e+01	2.821508e+02
2.200000e-06	3.924664e-06	4.251248e-09	2.819675e+01	2.780393e+02
2.210000e-06	3.792155e-06	4.189528e-09	2.724474e+01	2.737825e+02
2.220000e-06	3.658287e-06	4.126852e-09	2.628297e+01	2.693725e+02
2.230000e-06	3.522991e-06	4.055172e-09	2.531093e+01	2.648052e+02
2.240000e-06	3.386206e-06	3.982118e-09	2.432820e+01	2.600804e+02
2.250000e-06	3.248223e-06	3.915273e-09	2.333686e+01	2.552014e+02
2.260000e-06	3.109058e-06	3.842803e-09	2.233703e+01	2.501744e+02
2.270000e-06	2.968580e-06	3.758399e-09	2.132777e+01	2.450067e+02
2.280000e-06	2.827002e-06	3.669239e-09	2.031060e+01	2.397052e+02
2.290000e-06	2.684385e-06	3.584528e-09	1.928597e+01	2.342744e+02
2.300000e-06	2.540783e-06	3.499593e-09	1.825426e+01	2.287151e+02
2.310000e-06	2.396244e-06	3.419095e-09	1.721582e+01	2.230228e+02
2.320000e-06	2.250855e-06	3.337350e-09	1.617127e+01	2.171877e+02
2.330000e-06	2.104780e-06	3.246077e-09	1.512179e+01	2.111946e+02
2.340000e-06	1.958032e-06	3.143872e-09	1.406748e+01	2.050244e+02
2.350000e-06	1.810653e-06	3.042171e-09	1.300863e+01	1.986554e+02
2.360000e-06	1.662696e-06	2.944303e-09	1.194564e+01	1.920656e+02
2.370000e-06	1.514155e-06	2.841415e-09	1.087844e+01	1.852350e+02
2.380000e-06	1.365054e-06	2.730920e-09	9.807234e+00	1.781470e+02
2.390000e-06	1.215536e-06	2.614935e-09	8.733020e+00	1.707900e+02
2.400000e-06	1.065697e-06	2.496960e-09	7.656501e+00	1.631577e+02
2.410000e-06	9.155578e-07	2.377189e-09	6.577825e+00	1.552483e+02
2.420000e-06	7.651726e-07	2.256225e-09	5.497383e+00	1.470630e+02
2.430000e-06	6.145495e-07	2.132503e-09	4.415232e+00	1.386036e+02
2.440000e-06	4.636582e-07	2.001687e-09	3.331153e+00	1.298696e+02
2.450000e-06	3.125391e-07	1.864714e-09	2.245437e+00	1.208553e+02
2.460000e-06	1.612839e-07	1.725348e-09	1.158744e+00	1.115475e+02
2.470000e-06	9.933234e-09	1.579176e-09	7.136533e-02	1.019241e+02
2.480000e-06	-1.414864e-07	1.423866e-09	-1.016509e+00	9.195413e+01
2.490000e-06	-2.928571e-07	1.263034e-09	-2.104032e+00	8.159895e+01
2.500000e-06	-4.441245e-07	1.096602e-09	-3.190813e+00	7.081555e+01
2.510000e-06	-5.952172e-07	9.249754e-10	-4.276338e+00	5.956092e+01
2.520000e-06	-7.460266e-07	7.486688e-10	-5.359828e+00	4.779755e+01
2.530000e-06	-8.966202e-07	5.666995e-10	-6.441769e+00	3.549929e+01
2.540000e-06	-1.047026e-06	3.738078e-10	-7.522362e+00	2.265702e+01
2.550000e-06	-1.197114e-06	1.672558e-10	-8.600670e+00	9.283363e+00
2.560000e-06	-1.346796e-06	-4.845530e-11	-9.676059e+00	-4.584077e+00
2.570000e-06	-1.496030e-06	-2.685664e-10	-1.074823e+01	-1.888161e+01
2.580000e-06	-1.644638e-06	-4.912901e-10	-1.181590e+01	-3.352055e+01
2.590000e-06	-1.792557e-06	-7.192001e-10	-1.287862e+01	-4.839066e+01
2.600000e-06	-1.939897e-06	-9.504033e-10	-1.393719e+01	-6.336558e+01
2.610000e-06	-2.086621e-06	-1.181222e-09	-1.499133e+01	-7.830989e+01
2.620000e-06	-2.232591e-06	-1.408598e-09	-1.604005e+01	-9.308698e+01
2.630000e-06	-2.377737e-06	-1.629730e-09	-1.708286e+01	-1.075671e+02
2.640000e-06	-2.521907e-06	-1.844419e-09	-1.811864e+01	-1.216345e+02
2.650000e-06	-2.665013e-06	-2.053619e-09	-1.914679e+01	-1.351938e+02
2.660000e-06	-2.807062e-06	-2.254868e-09	-2.016734e+01	-1.481735e+02
2.670000e-06	-2.947922e-06	-2.444240e-09	-2.117935e+01	-1.605281e+02
2.680000e-06	-3.087564e-06	-2.621582e-09	-2.218261e+01	-1.722376e+02
2.690000e-06	-3.226042e-06	-2.788440e-09	-2.317750e+01	-1.833047e+02
2.700000e-06	-3.363365e-06	-2.946189e-09	-2.416410e+01	-1.937511e+02
2.710000e-06	-3.499429e-06	-3.096597e-09	-2.514165e+01	-2.036115e+02
2.720000e-06	-3.634137e-06	-3.240846e-09	-2.610946e+01	-2.129288e+02
2.730000e-06	-3.767498e-06	-3.375206e-09	-2.706759e+01	-2.217478e+02
2.740000e-06	-3.899502e-06	-3.502757e-09	-2.801597e+01	-2.301115e+02
2.750000e-06	-4.030159e-06	-3.627527e-09	-2.895468e+01	-2.380575e+02
2.760000e-06	-4.159524e-06	-3.747256e-09	-2.988410e+01	-2.456163e+02
2.770000e-06	-4.287488e-06	-3.859761e-09	-3.080346e+01	-2.528107e+02
2.780000e-06	-4.413918e-06	-3.963884e-09	-3.171180e+01	-2.596577e+02
2.790000e-06	-4.538803e-06	-4.060959e-09	-3.260903e+01	-2.661694e+02
2.800000e-06	-4.662133e-06	-4.151796e-09	-3.349509e+01	-2.723564e+02
2.810000e-06	-4.783851e-06	-4.237783e-09	-3.436958e+01	-2.782296e+02
2.820000e-06	-4.903810e-06	-4.321336e-09	-3.523142e+01	-2.838023e+02
2.830000e-06	-5.021815e-06	-4.404299e-09	-3.607923e+01	-2.890919e+02
2.840000e-06	-5.137797e-06	-4.483528e-09	-3.691251e+01	-2.941195e+02
2.850000e-06	-5.251707e-06	-4.556800e-09	-3.773090e+01	-2.989097e+02
2.860000e-06	-5.363489e-06	-4.629639e-09	-3.853399e+01	-3.034890e+02
2.870000e-06	-5.473266e-06	-4.702447e-09	-3.932269e+01	-3.078837e+02
2.880000e-06	-5.581137e-06	-4.769730e-09	-4.009768e+01	-3.121173e+02
2.890000e-06	-5.687112e-06	-4.831055e-09	-4.085906e+01	-3.162093e+02
2.900000e-06	-5.791024e-06	-4.890226e-09	-4.160562e+01	-3.201728e+02
2.910000e-06	-5.892688e-06	-4.949573e-09	-4.233602e+01	-3.240142e+02
2.920000e-06	-5.992177e-06	-5.007049e-09	-4.305080e+01	-3.277331e+02
2.930000e-06	-6.089611e-06	-5.063425e-09	-4.375082e+01	-3.313234e+02
2.940000e-06	-6.184869e-06	-5.120070e-09	-4.443520e+01	-3.347750e+02
