# Temperatura_=_39.71
# Concentracion g/m^3_=_5000.0
# C_Vs_to_Am_M_A/Vsm_=_65563218390.804596
# pendiente_HvsI_1/m_=_3716.3
# ordenada_HvsI_A/m_=_1297.0
# frecuencia_Hz_=_302505.42820757657

Tiempo_(s)	Campo_(V.s)	Magnetizacion_(V.s)	Campo_(kA/m)	Magnetizacion_(A/m)
0.000000e+00	-7.959626e-06	-5.911127e-09	-5.687580e+01	-3.871601e+02
1.000000e-08	-7.957540e-06	-5.910850e-09	-5.686089e+01	-3.869831e+02
2.000000e-08	-7.952735e-06	-5.906199e-09	-5.682656e+01	-3.867391e+02
3.000000e-08	-7.945348e-06	-5.901392e-09	-5.677378e+01	-3.864367e+02
4.000000e-08	-7.935245e-06	-5.902009e-09	-5.670158e+01	-3.860858e+02
5.000000e-08	-7.922274e-06	-5.902274e-09	-5.660890e+01	-3.856963e+02
6.000000e-08	-7.906296e-06	-5.895370e-09	-5.649473e+01	-3.852768e+02
7.000000e-08	-7.887695e-06	-5.884925e-09	-5.636181e+01	-3.848341e+02
8.000000e-08	-7.866885e-06	-5.880098e-09	-5.621311e+01	-3.843716e+02
9.000000e-08	-7.843452e-06	-5.912776e-09	-5.604567e+01	-3.838899e+02
1.000000e-07	-7.816816e-06	-5.915274e-09	-5.585535e+01	-3.833862e+02
1.100000e-07	-7.787050e-06	-5.863444e-09	-5.564265e+01	-3.828553e+02
1.200000e-07	-7.754489e-06	-5.838943e-09	-5.540999e+01	-3.822900e+02
1.300000e-07	-7.719207e-06	-5.834208e-09	-5.515788e+01	-3.816820e+02
1.400000e-07	-7.681458e-06	-5.805930e-09	-5.488814e+01	-3.810233e+02
1.500000e-07	-7.641598e-06	-5.763115e-09	-5.460332e+01	-3.803063e+02
1.600000e-07	-7.599492e-06	-5.798746e-09	-5.430245e+01	-3.795252e+02
1.700000e-07	-7.554704e-06	-5.807487e-09	-5.398242e+01	-3.786756e+02
1.800000e-07	-7.507241e-06	-5.731467e-09	-5.364326e+01	-3.777548e+02
1.900000e-07	-7.456895e-06	-5.747816e-09	-5.328351e+01	-3.767618e+02
2.000000e-07	-7.403439e-06	-5.729569e-09	-5.290155e+01	-3.756964e+02
2.100000e-07	-7.347249e-06	-5.698810e-09	-5.250004e+01	-3.745592e+02
2.200000e-07	-7.288404e-06	-5.716662e-09	-5.207956e+01	-3.733509e+02
2.300000e-07	-7.226926e-06	-5.694425e-09	-5.164026e+01	-3.720719e+02
2.400000e-07	-7.162795e-06	-5.659845e-09	-5.118202e+01	-3.707223e+02
2.500000e-07	-7.095847e-06	-5.598196e-09	-5.070364e+01	-3.693019e+02
2.600000e-07	-7.026268e-06	-5.599700e-09	-5.020645e+01	-3.678101e+02
2.700000e-07	-6.953974e-06	-5.593996e-09	-4.968987e+01	-3.662466e+02
2.800000e-07	-6.878884e-06	-5.551892e-09	-4.915332e+01	-3.646113e+02
2.900000e-07	-6.801047e-06	-5.512352e-09	-4.859713e+01	-3.629044e+02
3.000000e-07	-6.720420e-06	-5.482912e-09	-4.802101e+01	-3.611268e+02
3.100000e-07	-6.637371e-06	-5.473763e-09	-4.742758e+01	-3.592801e+02
3.200000e-07	-6.552169e-06	-5.441000e-09	-4.681876e+01	-3.573657e+02
3.300000e-07	-6.464657e-06	-5.427682e-09	-4.619344e+01	-3.553848e+02
3.400000e-07	-6.374761e-06	-5.401116e-09	-4.555109e+01	-3.533382e+02
3.500000e-07	-6.282546e-06	-5.353801e-09	-4.489216e+01	-3.512254e+02
3.600000e-07	-6.188058e-06	-5.316930e-09	-4.421699e+01	-3.490442e+02
3.700000e-07	-6.091296e-06	-5.287441e-09	-4.352558e+01	-3.467914e+02
3.800000e-07	-5.992290e-06	-5.260076e-09	-4.281813e+01	-3.444621e+02
3.900000e-07	-5.891156e-06	-5.218334e-09	-4.209547e+01	-3.420504e+02
4.000000e-07	-5.787948e-06	-5.175127e-09	-4.135800e+01	-3.395501e+02
4.100000e-07	-5.682674e-06	-5.127256e-09	-4.060576e+01	-3.369555e+02
4.200000e-07	-5.575409e-06	-5.088267e-09	-3.983929e+01	-3.342616e+02
4.300000e-07	-5.466263e-06	-5.055523e-09	-3.905938e+01	-3.314652e+02
4.400000e-07	-5.355193e-06	-5.011193e-09	-3.826573e+01	-3.285650e+02
4.500000e-07	-5.242065e-06	-4.954350e-09	-3.745737e+01	-3.255616e+02
4.600000e-07	-5.126836e-06	-4.906856e-09	-3.663400e+01	-3.224571e+02
4.700000e-07	-5.009644e-06	-4.866249e-09	-3.579660e+01	-3.192545e+02
4.800000e-07	-4.890633e-06	-4.818367e-09	-3.494620e+01	-3.159569e+02
4.900000e-07	-4.769782e-06	-4.771983e-09	-3.408266e+01	-3.125663e+02
5.000000e-07	-4.647160e-06	-4.719517e-09	-3.320645e+01	-3.090830e+02
5.100000e-07	-4.522864e-06	-4.651618e-09	-3.231829e+01	-3.055046e+02
5.200000e-07	-4.396991e-06	-4.582878e-09	-3.141886e+01	-3.018261e+02
5.300000e-07	-4.269553e-06	-4.533002e-09	-3.050824e+01	-2.980396e+02
5.400000e-07	-4.140540e-06	-4.479949e-09	-2.958638e+01	-2.941355e+02
5.500000e-07	-4.009964e-06	-4.408065e-09	-2.865335e+01	-2.901027e+02
5.600000e-07	-3.877813e-06	-4.336799e-09	-2.770906e+01	-2.859306e+02
5.700000e-07	-3.744213e-06	-4.280361e-09	-2.675441e+01	-2.816098e+02
5.800000e-07	-3.609223e-06	-4.216835e-09	-2.578983e+01	-2.771336e+02
5.900000e-07	-3.472847e-06	-4.143359e-09	-2.481535e+01	-2.724983e+02
6.000000e-07	-3.335115e-06	-4.075106e-09	-2.383119e+01	-2.677039e+02
6.100000e-07	-3.196016e-06	-4.002429e-09	-2.283725e+01	-2.627534e+02
6.200000e-07	-3.055518e-06	-3.916702e-09	-2.183331e+01	-2.576522e+02
6.300000e-07	-2.913694e-06	-3.831131e-09	-2.081991e+01	-2.524063e+02
6.400000e-07	-2.770713e-06	-3.754133e-09	-1.979823e+01	-2.470208e+02
6.500000e-07	-2.626643e-06	-3.671108e-09	-1.876877e+01	-2.414985e+02
6.600000e-07	-2.481659e-06	-3.578311e-09	-1.773278e+01	-2.358379e+02
6.700000e-07	-2.335886e-06	-3.486693e-09	-1.669116e+01	-2.300326e+02
6.800000e-07	-2.189275e-06	-3.401062e-09	-1.564354e+01	-2.240709e+02
6.900000e-07	-2.041955e-06	-3.310758e-09	-1.459087e+01	-2.179362e+02
7.000000e-07	-1.894052e-06	-3.214061e-09	-1.353402e+01	-2.116083e+02
7.100000e-07	-1.745567e-06	-3.114491e-09	-1.247301e+01	-2.050650e+02
7.200000e-07	-1.596533e-06	-3.009863e-09	-1.140808e+01	-1.982844e+02
7.300000e-07	-1.447007e-06	-2.901923e-09	-1.033964e+01	-1.912467e+02
7.400000e-07	-1.297037e-06	-2.788958e-09	-9.268027e+00	-1.839363e+02
7.500000e-07	-1.146685e-06	-2.672077e-09	-8.193683e+00	-1.763424e+02
7.600000e-07	-9.959412e-07	-2.553205e-09	-7.116534e+00	-1.684595e+02
7.700000e-07	-8.448223e-07	-2.431553e-09	-6.036709e+00	-1.602867e+02
7.800000e-07	-6.933752e-07	-2.304739e-09	-4.954538e+00	-1.518257e+02
7.900000e-07	-5.416293e-07	-2.171166e-09	-3.870232e+00	-1.430783e+02
8.000000e-07	-3.896484e-07	-2.032517e-09	-2.784247e+00	-1.340439e+02
8.100000e-07	-2.374960e-07	-1.888540e-09	-1.697036e+00	-1.247167e+02
8.200000e-07	-8.520000e-08	-1.737572e-09	-6.087998e-01	-1.150831e+02
8.300000e-07	6.716437e-08	-1.581929e-09	4.799255e-01	-1.051209e+02
8.400000e-07	2.195409e-07	-1.424088e-09	1.568738e+00	-9.479909e+01
8.500000e-07	3.718556e-07	-1.262270e-09	2.657108e+00	-8.407990e+01
8.600000e-07	5.240186e-07	-1.091713e-09	3.744394e+00	-7.292163e+01
8.700000e-07	6.759867e-07	-9.140343e-10	4.830288e+00	-6.128335e+01
8.800000e-07	8.276991e-07	-7.309222e-10	5.914354e+00	-4.913023e+01
8.900000e-07	9.791126e-07	-5.384588e-10	6.996285e+00	-3.643932e+01
9.000000e-07	1.130149e-06	-3.395986e-10	8.075518e+00	-2.320494e+01
9.100000e-07	1.280780e-06	-1.334551e-10	9.151861e+00	-9.443138e+00
9.200000e-07	1.431047e-06	8.131099e-11	1.022560e+01	4.805444e+00
9.300000e-07	1.580870e-06	3.048232e-10	1.129617e+01	1.947472e+01
9.400000e-07	1.730105e-06	5.356274e-10	1.236253e+01	3.447451e+01
9.500000e-07	1.878688e-06	7.688061e-10	1.342423e+01	4.969413e+01
9.600000e-07	2.026610e-06	1.002863e-09	1.448122e+01	6.500789e+01
9.700000e-07	2.173843e-06	1.234603e-09	1.553327e+01	8.028198e+01
9.800000e-07	2.320315e-06	1.463256e-09	1.657990e+01	9.538219e+01
9.900000e-07	2.465934e-06	1.688075e-09	1.762042e+01	1.101816e+02
1.000000e-06	2.610544e-06	1.908898e-09	1.865374e+01	1.245674e+02
1.010000e-06	2.754141e-06	2.121793e-09	1.967982e+01	1.384467e+02
1.020000e-06	2.896747e-06	2.323463e-09	2.069881e+01	1.517499e+02
1.030000e-06	3.038171e-06	2.513317e-09	2.170936e+01	1.644325e+02
1.040000e-06	3.178277e-06	2.692718e-09	2.271049e+01	1.764742e+02
1.050000e-06	3.317097e-06	2.864182e-09	2.370244e+01	1.878764e+02
1.060000e-06	3.454628e-06	3.027043e-09	2.468517e+01	1.986583e+02
1.070000e-06	3.590813e-06	3.181644e-09	2.565829e+01	2.088514e+02
1.080000e-06	3.725699e-06	3.329593e-09	2.662212e+01	2.184946e+02
1.090000e-06	3.859285e-06	3.470769e-09	2.757667e+01	2.276292e+02
1.100000e-06	3.991447e-06	3.606616e-09	2.852103e+01	2.362945e+02
1.110000e-06	4.122195e-06	3.734533e-09	2.945529e+01	2.445252e+02
1.120000e-06	4.251469e-06	3.854622e-09	3.037903e+01	2.523495e+02
1.130000e-06	4.379178e-06	3.968494e-09	3.129158e+01	2.597893e+02
1.140000e-06	4.505415e-06	4.075889e-09	3.219361e+01	2.668614e+02
1.150000e-06	4.630212e-06	4.177878e-09	3.308535e+01	2.735787e+02
1.160000e-06	4.753418e-06	4.274271e-09	3.396572e+01	2.799531e+02
1.170000e-06	4.874913e-06	4.365134e-09	3.483387e+01	2.859974e+02
1.180000e-06	4.994657e-06	4.450086e-09	3.568951e+01	2.917269e+02
1.190000e-06	5.112563e-06	4.531537e-09	3.653200e+01	2.971603e+02
1.200000e-06	5.228516e-06	4.610266e-09	3.736055e+01	3.023203e+02
1.210000e-06	5.342410e-06	4.686370e-09	3.817438e+01	3.072320e+02
1.220000e-06	5.454277e-06	4.758349e-09	3.897373e+01	3.119220e+02
1.230000e-06	5.564224e-06	4.825816e-09	3.975937e+01	3.164159e+02
1.240000e-06	5.672240e-06	4.889501e-09	4.053120e+01	3.207369e+02
1.250000e-06	5.778210e-06	4.951580e-09	4.128841e+01	3.249031e+02
1.260000e-06	5.882035e-06	5.012285e-09	4.203030e+01	3.289269e+02
1.270000e-06	5.983682e-06	5.070866e-09	4.275662e+01	3.328143e+02
1.280000e-06	6.083152e-06	5.126405e-09	4.346738e+01	3.365649e+02
1.290000e-06	6.180295e-06	5.178818e-09	4.416152e+01	3.401732e+02
1.300000e-06	6.275128e-06	5.230176e-09	4.483916e+01	3.436302e+02
1.310000e-06	6.367774e-06	5.280282e-09	4.550116e+01	3.469256e+02
1.320000e-06	6.458148e-06	5.326396e-09	4.614694e+01	3.500501e+02
1.330000e-06	6.546170e-06	5.368109e-09	4.677589e+01	3.529968e+02
1.340000e-06	6.631895e-06	5.407748e-09	4.738845e+01	3.557630e+02
1.350000e-06	6.715365e-06	5.446495e-09	4.798489e+01	3.583511e+02
1.360000e-06	6.796438e-06	5.483890e-09	4.856420e+01	3.607678e+02
1.370000e-06	6.875022e-06	5.519329e-09	4.912572e+01	3.630245e+02
1.380000e-06	6.951013e-06	5.551592e-09	4.966872e+01	3.651348e+02
1.390000e-06	7.024301e-06	5.580592e-09	5.019240e+01	3.671139e+02
1.400000e-06	7.095023e-06	5.608059e-09	5.069774e+01	3.689763e+02
1.410000e-06	7.163264e-06	5.636382e-09	5.118537e+01	3.707343e+02
1.420000e-06	7.228942e-06	5.664239e-09	5.165467e+01	3.723973e+02
1.430000e-06	7.292059e-06	5.689193e-09	5.210568e+01	3.739708e+02
1.440000e-06	7.352729e-06	5.711424e-09	5.253920e+01	3.754570e+02
1.450000e-06	7.410888e-06	5.731673e-09	5.295477e+01	3.768548e+02
1.460000e-06	7.466378e-06	5.750267e-09	5.335128e+01	3.781615e+02
1.470000e-06	7.519005e-06	5.766662e-09	5.372733e+01	3.793737e+02
1.480000e-06	7.568531e-06	5.781330e-09	5.408122e+01	3.804886e+02
1.490000e-06	7.615168e-06	5.795810e-09	5.441447e+01	3.815053e+02
1.500000e-06	7.659178e-06	5.810055e-09	5.472893e+01	3.824255e+02
1.510000e-06	7.700460e-06	5.823998e-09	5.502392e+01	3.832535e+02
1.520000e-06	7.738954e-06	5.838019e-09	5.529898e+01	3.839958e+02
1.530000e-06	7.774763e-06	5.850877e-09	5.555486e+01	3.846608e+02
1.540000e-06	7.807793e-06	5.861629e-09	5.579087e+01	3.852574e+02
1.550000e-06	7.838004e-06	5.870347e-09	5.600675e+01	3.857937e+02
1.560000e-06	7.865584e-06	5.877545e-09	5.620382e+01	3.862762e+02
1.570000e-06	7.890288e-06	5.884928e-09	5.638034e+01	3.867089e+02
1.580000e-06	7.912049e-06	5.891883e-09	5.653584e+01	3.870926e+02
1.590000e-06	7.931099e-06	5.896584e-09	5.667196e+01	3.874252e+02
1.600000e-06	7.947286e-06	5.899518e-09	5.678762e+01	3.877023e+02
1.610000e-06	7.960431e-06	5.902314e-09	5.688155e+01	3.879180e+02
1.620000e-06	7.970399e-06	5.905948e-09	5.695278e+01	3.880659e+02
1.630000e-06	7.977320e-06	5.908966e-09	5.700223e+01	3.881405e+02
1.640000e-06	7.981481e-06	5.911207e-09	5.703197e+01	3.881385e+02
1.650000e-06	7.982815e-06	5.912801e-09	5.704150e+01	3.880592e+02
1.660000e-06	7.981364e-06	5.908963e-09	5.703113e+01	3.879050e+02
1.670000e-06	7.977309e-06	5.900725e-09	5.700215e+01	3.876814e+02
1.680000e-06	7.970542e-06	5.894763e-09	5.695380e+01	3.873965e+02
1.690000e-06	7.961147e-06	5.890280e-09	5.688667e+01	3.870598e+02
1.700000e-06	7.949056e-06	5.886117e-09	5.680027e+01	3.866814e+02
1.710000e-06	7.934082e-06	5.884020e-09	5.669327e+01	3.862705e+02
1.720000e-06	7.916576e-06	5.884295e-09	5.656818e+01	3.858344e+02
1.730000e-06	7.896821e-06	5.863381e-09	5.642702e+01	3.853778e+02
1.740000e-06	7.874469e-06	5.798689e-09	5.626731e+01	3.849022e+02
1.750000e-06	7.848866e-06	5.805142e-09	5.608436e+01	3.844058e+02
1.760000e-06	7.819626e-06	5.836922e-09	5.587542e+01	3.838841e+02
1.770000e-06	7.787154e-06	5.817456e-09	5.564339e+01	3.833304e+02
1.780000e-06	7.752261e-06	5.808531e-09	5.539407e+01	3.827368e+02
1.790000e-06	7.715071e-06	5.857228e-09	5.512832e+01	3.820950e+02
1.800000e-06	7.675632e-06	5.832448e-09	5.484651e+01	3.813973e+02
1.810000e-06	7.634049e-06	5.768692e-09	5.454938e+01	3.806371e+02
1.820000e-06	7.589994e-06	5.817138e-09	5.423458e+01	3.798096e+02
1.830000e-06	7.543374e-06	5.774576e-09	5.390146e+01	3.789116e+02
1.840000e-06	7.494004e-06	5.780377e-09	5.354868e+01	3.779416e+02
1.850000e-06	7.441648e-06	5.769034e-09	5.317457e+01	3.768991e+02
1.860000e-06	7.386432e-06	5.709101e-09	5.278002e+01	3.757847e+02
1.870000e-06	7.328465e-06	5.716737e-09	5.236582e+01	3.745989e+02
1.880000e-06	7.267901e-06	5.647499e-09	5.193305e+01	3.733423e+02
1.890000e-06	7.204602e-06	5.689128e-09	5.148075e+01	3.720152e+02
1.900000e-06	7.138475e-06	5.686311e-09	5.100824e+01	3.706174e+02
1.910000e-06	7.069550e-06	5.630478e-09	5.051573e+01	3.691483e+02
1.920000e-06	6.997793e-06	5.624697e-09	5.000298e+01	3.676077e+02
1.930000e-06	6.923398e-06	5.565484e-09	4.947140e+01	3.659952e+02
1.940000e-06	6.846281e-06	5.572509e-09	4.892035e+01	3.643109e+02
1.950000e-06	6.766415e-06	5.542385e-09	4.834967e+01	3.625557e+02
1.960000e-06	6.684057e-06	5.528727e-09	4.776118e+01	3.607308e+02
1.970000e-06	6.599297e-06	5.486863e-09	4.715552e+01	3.588377e+02
1.980000e-06	6.512101e-06	5.421177e-09	4.653246e+01	3.568779e+02
1.990000e-06	6.422539e-06	5.407513e-09	4.589249e+01	3.548521e+02
2.000000e-06	6.330796e-06	5.378134e-09	4.523693e+01	3.527605e+02
2.010000e-06	6.236796e-06	5.373010e-09	4.456525e+01	3.506013e+02
2.020000e-06	6.140517e-06	5.317239e-09	4.387729e+01	3.483718e+02
2.030000e-06	6.042090e-06	5.274595e-09	4.317398e+01	3.460674e+02
2.040000e-06	5.941484e-06	5.230020e-09	4.245509e+01	3.436826e+02
2.050000e-06	5.838687e-06	5.202691e-09	4.172055e+01	3.412112e+02
2.060000e-06	5.733846e-06	5.181665e-09	4.097141e+01	3.386472e+02
2.070000e-06	5.627126e-06	5.131198e-09	4.020883e+01	3.359854e+02
2.080000e-06	5.518495e-06	5.084349e-09	3.943261e+01	3.332219e+02
2.090000e-06	5.407862e-06	5.035306e-09	3.864208e+01	3.303549e+02
2.100000e-06	5.295194e-06	4.995424e-09	3.783700e+01	3.273842e+02
2.110000e-06	5.180534e-06	4.951925e-09	3.701769e+01	3.243117e+02
2.120000e-06	5.063859e-06	4.919414e-09	3.618399e+01	3.211400e+02
2.130000e-06	4.945211e-06	4.855321e-09	3.533618e+01	3.178724e+02
2.140000e-06	4.824698e-06	4.787102e-09	3.447506e+01	3.145113e+02
2.150000e-06	4.702420e-06	4.735747e-09	3.360131e+01	3.110577e+02
2.160000e-06	4.578418e-06	4.704964e-09	3.271525e+01	3.075100e+02
2.170000e-06	4.452735e-06	4.660023e-09	3.181718e+01	3.038642e+02
2.180000e-06	4.325410e-06	4.592946e-09	3.090737e+01	3.001131e+02
2.190000e-06	4.196492e-06	4.530653e-09	2.998619e+01	2.962477e+02
2.200000e-06	4.066095e-06	4.468332e-09	2.905443e+01	2.922572e+02
2.210000e-06	3.934203e-06	4.404713e-09	2.811199e+01	2.881307e+02
2.220000e-06	3.800850e-06	4.343679e-09	2.715911e+01	2.838584e+02
2.230000e-06	3.666000e-06	4.283278e-09	2.619554e+01	2.794324e+02
2.240000e-06	3.529724e-06	4.202400e-09	2.522177e+01	2.748482e+02
2.250000e-06	3.392187e-06	4.119587e-09	2.423900e+01	2.701044e+02
2.260000e-06	3.253386e-06	4.050618e-09	2.324719e+01	2.652034e+02
2.270000e-06	3.113271e-06	3.990555e-09	2.224599e+01	2.601497e+02
2.280000e-06	2.971917e-06	3.913954e-09	2.123594e+01	2.549494e+02
2.290000e-06	2.829411e-06	3.825811e-09	2.021766e+01	2.496081e+02
2.300000e-06	2.685805e-06	3.739116e-09	1.919152e+01	2.441295e+02
2.310000e-06	2.541251e-06	3.651548e-09	1.815860e+01	2.385135e+02
2.320000e-06	2.395853e-06	3.566504e-09	1.711965e+01	2.327555e+02
2.330000e-06	2.249726e-06	3.481392e-09	1.607550e+01	2.268454e+02
2.340000e-06	2.102884e-06	3.387161e-09	1.502623e+01	2.207681e+02
2.350000e-06	1.955258e-06	3.282321e-09	1.397137e+01	2.145044e+02
2.360000e-06	1.806942e-06	3.180500e-09	1.291157e+01	2.080325e+02
2.370000e-06	1.658079e-06	3.086369e-09	1.184787e+01	2.013303e+02
2.380000e-06	1.508683e-06	2.986485e-09	1.078035e+01	1.943769e+02
2.390000e-06	1.358774e-06	2.873616e-09	9.709170e+00	1.871553e+02
2.400000e-06	1.208428e-06	2.751464e-09	8.634863e+00	1.796531e+02
2.410000e-06	1.057661e-06	2.627870e-09	7.557553e+00	1.718632e+02
2.420000e-06	9.065238e-07	2.507824e-09	6.477599e+00	1.637832e+02
2.430000e-06	7.551065e-07	2.388461e-09	5.395641e+00	1.554143e+02
2.440000e-06	6.034427e-07	2.262646e-09	4.311922e+00	1.467586e+02
2.450000e-06	4.515606e-07	2.123156e-09	3.226643e+00	1.378166e+02
2.460000e-06	2.995236e-07	1.976870e-09	2.140257e+00	1.285843e+02
2.470000e-06	1.473756e-07	1.832155e-09	1.053078e+00	1.190509e+02
2.480000e-06	-4.925576e-09	1.685380e-09	-3.519588e-02	1.091970e+02
2.490000e-06	-1.572792e-07	1.532166e-09	-1.123844e+00	9.899440e+01
2.500000e-06	-3.094868e-07	1.368046e-09	-2.211449e+00	8.840713e+01
2.510000e-06	-4.615442e-07	1.194342e-09	-3.297981e+00	7.739434e+01
2.520000e-06	-6.135078e-07	1.015787e-09	-4.383842e+00	6.591430e+01
2.530000e-06	-7.653794e-07	8.359687e-10	-5.469047e+00	5.392960e+01
2.540000e-06	-9.170240e-07	6.518747e-10	-6.552628e+00	4.141285e+01
2.550000e-06	-1.068322e-06	4.542165e-10	-7.633735e+00	2.835227e+01
2.560000e-06	-1.219220e-06	2.415993e-10	-8.711979e+00	1.475653e+01
2.570000e-06	-1.369698e-06	2.069776e-11	-9.787229e+00	6.581647e-01
2.580000e-06	-1.519671e-06	-2.006395e-10	-1.085887e+01	-1.388487e+01
2.590000e-06	-1.669056e-06	-4.239127e-10	-1.192630e+01	-2.878986e+01
2.600000e-06	-1.817809e-06	-6.544675e-10	-1.298922e+01	-4.395219e+01
2.610000e-06	-1.965797e-06	-8.913539e-10	-1.404667e+01	-5.925030e+01
2.620000e-06	-2.113043e-06	-1.130129e-09	-1.509883e+01	-7.455217e+01
2.630000e-06	-2.259563e-06	-1.364983e-09	-1.614579e+01	-8.972286e+01
2.640000e-06	-2.405261e-06	-1.591928e-09	-1.718688e+01	-1.046323e+02
2.650000e-06	-2.550091e-06	-1.811414e-09	-1.822177e+01	-1.191625e+02
2.660000e-06	-2.693952e-06	-2.027253e-09	-1.924973e+01	-1.332136e+02
2.670000e-06	-2.836696e-06	-2.238660e-09	-2.026971e+01	-1.467083e+02
2.680000e-06	-2.978269e-06	-2.436600e-09	-2.128133e+01	-1.595940e+02
2.690000e-06	-3.118616e-06	-2.620036e-09	-2.228419e+01	-1.718428e+02
2.700000e-06	-3.257731e-06	-2.793398e-09	-2.327823e+01	-1.834495e+02
2.710000e-06	-3.395609e-06	-2.959465e-09	-2.426345e+01	-1.944280e+02
2.720000e-06	-3.532201e-06	-3.120903e-09	-2.523947e+01	-2.048066e+02
2.730000e-06	-3.667482e-06	-3.274591e-09	-2.620612e+01	-2.146224e+02
2.740000e-06	-3.801433e-06	-3.416476e-09	-2.716328e+01	-2.239163e+02
2.750000e-06	-3.934040e-06	-3.549177e-09	-2.811082e+01	-2.327286e+02
2.760000e-06	-4.065307e-06	-3.676986e-09	-2.904880e+01	-2.410958e+02
2.770000e-06	-4.195228e-06	-3.800264e-09	-2.997715e+01	-2.490483e+02
2.780000e-06	-4.323673e-06	-3.915411e-09	-3.089497e+01	-2.566099e+02
2.790000e-06	-4.450570e-06	-4.023644e-09	-3.180171e+01	-2.637989e+02
2.800000e-06	-4.575946e-06	-4.125622e-09	-3.269759e+01	-2.706292e+02
2.810000e-06	-4.699718e-06	-4.221416e-09	-3.358201e+01	-2.771128e+02
2.820000e-06	-4.821820e-06	-4.314652e-09	-3.445449e+01	-2.832619e+02
2.830000e-06	-4.942240e-06	-4.405161e-09	-3.531495e+01	-2.890910e+02
2.840000e-06	-5.060764e-06	-4.492136e-09	-3.616187e+01	-2.946176e+02
2.850000e-06	-5.177217e-06	-4.572225e-09	-3.699399e+01	-2.998630e+02
2.860000e-06	-5.291563e-06	-4.646876e-09	-3.781106e+01	-3.048519e+02
2.870000e-06	-5.403745e-06	-4.720767e-09	-3.861266e+01	-3.096105e+02
2.880000e-06	-5.513822e-06	-4.793527e-09	-3.939922e+01	-3.141651e+02
2.890000e-06	-5.621989e-06	-4.861869e-09	-4.017213e+01	-3.185396e+02
2.900000e-06	-5.728253e-06	-4.925337e-09	-4.093144e+01	-3.227542e+02
2.910000e-06	-5.832524e-06	-4.986498e-09	-4.167652e+01	-3.268231e+02
2.920000e-06	-5.934614e-06	-5.048752e-09	-4.240600e+01	-3.307544e+02
2.930000e-06	-6.034462e-06	-5.111382e-09	-4.311947e+01	-3.345496e+02
2.940000e-06	-6.132227e-06	-5.171356e-09	-4.381805e+01	-3.382046e+02
