# Temperatura_=_31.77
# Concentracion g/m^3_=_5000.0
# C_Vs_to_Am_M_A/Vsm_=_65563218390.804596
# pendiente_HvsI_1/m_=_3716.3
# ordenada_HvsI_A/m_=_1297.0
# frecuencia_Hz_=_302500.30124804156

Tiempo_(s)	Campo_(V.s)	Magnetizacion_(V.s)	Campo_(kA/m)	Magnetizacion_(A/m)
0.000000e+00	-7.921689e-06	-5.581246e-09	-5.686246e+01	-3.653841e+02
1.000000e-08	-7.917056e-06	-5.579175e-09	-5.682920e+01	-3.651604e+02
2.000000e-08	-7.909928e-06	-5.575148e-09	-5.677804e+01	-3.648787e+02
3.000000e-08	-7.900070e-06	-5.575254e-09	-5.670728e+01	-3.645476e+02
4.000000e-08	-7.887286e-06	-5.571139e-09	-5.661551e+01	-3.641768e+02
5.000000e-08	-7.871515e-06	-5.561890e-09	-5.650231e+01	-3.637756e+02
6.000000e-08	-7.853143e-06	-5.550293e-09	-5.637043e+01	-3.633517e+02
7.000000e-08	-7.832613e-06	-5.536281e-09	-5.622307e+01	-3.629109e+02
8.000000e-08	-7.809465e-06	-5.575834e-09	-5.605690e+01	-3.624556e+02
9.000000e-08	-7.783056e-06	-5.606359e-09	-5.586734e+01	-3.619855e+02
1.000000e-07	-7.753439e-06	-5.551722e-09	-5.565475e+01	-3.614971e+02
1.100000e-07	-7.721036e-06	-5.515263e-09	-5.542215e+01	-3.609845e+02
1.200000e-07	-7.685990e-06	-5.509158e-09	-5.517060e+01	-3.604399e+02
1.300000e-07	-7.648499e-06	-5.479325e-09	-5.490148e+01	-3.598548e+02
1.400000e-07	-7.608928e-06	-5.417384e-09	-5.461744e+01	-3.592207e+02
1.500000e-07	-7.567190e-06	-5.460365e-09	-5.431784e+01	-3.585296e+02
1.600000e-07	-7.522768e-06	-5.518750e-09	-5.399897e+01	-3.577751e+02
1.700000e-07	-7.475674e-06	-5.394407e-09	-5.366093e+01	-3.569526e+02
1.800000e-07	-7.425759e-06	-5.434685e-09	-5.330263e+01	-3.560590e+02
1.900000e-07	-7.372737e-06	-5.434413e-09	-5.292204e+01	-3.550930e+02
2.000000e-07	-7.316938e-06	-5.367858e-09	-5.252151e+01	-3.540545e+02
2.100000e-07	-7.258470e-06	-5.404368e-09	-5.210182e+01	-3.529443e+02
2.200000e-07	-7.197365e-06	-5.359293e-09	-5.166321e+01	-3.517634e+02
2.300000e-07	-7.133670e-06	-5.351272e-09	-5.120600e+01	-3.505133e+02
2.400000e-07	-7.067225e-06	-5.291541e-09	-5.072905e+01	-3.491950e+02
2.500000e-07	-6.998115e-06	-5.291867e-09	-5.023298e+01	-3.478092e+02
2.600000e-07	-6.926352e-06	-5.298251e-09	-4.971785e+01	-3.463565e+02
2.700000e-07	-6.851775e-06	-5.254118e-09	-4.918254e+01	-3.448372e+02
2.800000e-07	-6.774379e-06	-5.213010e-09	-4.862698e+01	-3.432514e+02
2.900000e-07	-6.694218e-06	-5.180994e-09	-4.805158e+01	-3.415994e+02
3.000000e-07	-6.611611e-06	-5.196272e-09	-4.745862e+01	-3.398815e+02
3.100000e-07	-6.526749e-06	-5.154842e-09	-4.684948e+01	-3.380981e+02
3.200000e-07	-6.439659e-06	-5.129173e-09	-4.622434e+01	-3.362494e+02
3.300000e-07	-6.350272e-06	-5.112702e-09	-4.558271e+01	-3.343354e+02
3.400000e-07	-6.258570e-06	-5.063434e-09	-4.492447e+01	-3.323554e+02
3.500000e-07	-6.164657e-06	-5.028675e-09	-4.425035e+01	-3.303083e+02
3.600000e-07	-6.068463e-06	-5.002665e-09	-4.355987e+01	-3.281921e+02
3.700000e-07	-5.970009e-06	-4.985809e-09	-4.285316e+01	-3.260042e+02
3.800000e-07	-5.869414e-06	-4.946387e-09	-4.213108e+01	-3.237412e+02
3.900000e-07	-5.766810e-06	-4.900525e-09	-4.139458e+01	-3.213998e+02
4.000000e-07	-5.662135e-06	-4.856317e-09	-4.064322e+01	-3.189765e+02
4.100000e-07	-5.555410e-06	-4.820259e-09	-3.987714e+01	-3.164686e+02
4.200000e-07	-5.446775e-06	-4.788416e-09	-3.909734e+01	-3.138740e+02
4.300000e-07	-5.336274e-06	-4.744203e-09	-3.830416e+01	-3.111916e+02
4.400000e-07	-5.223742e-06	-4.693428e-09	-3.749640e+01	-3.084215e+02
4.500000e-07	-5.109085e-06	-4.651236e-09	-3.667338e+01	-3.055642e+02
4.600000e-07	-4.992460e-06	-4.611365e-09	-3.583624e+01	-3.026206e+02
4.700000e-07	-4.874034e-06	-4.565045e-09	-3.498617e+01	-2.995913e+02
4.800000e-07	-4.753832e-06	-4.522879e-09	-3.412335e+01	-2.964759e+02
4.900000e-07	-4.631858e-06	-4.476209e-09	-3.324781e+01	-2.932725e+02
5.000000e-07	-4.508186e-06	-4.415805e-09	-3.236008e+01	-2.899773e+02
5.100000e-07	-4.382954e-06	-4.354811e-09	-3.146116e+01	-2.865842e+02
5.200000e-07	-4.256216e-06	-4.310236e-09	-3.055143e+01	-2.830854e+02
5.300000e-07	-4.127889e-06	-4.258924e-09	-2.963029e+01	-2.794717e+02
5.400000e-07	-3.997974e-06	-4.188886e-09	-2.869775e+01	-2.757330e+02
5.500000e-07	-3.866477e-06	-4.119505e-09	-2.775385e+01	-2.718598e+02
5.600000e-07	-3.733500e-06	-4.067613e-09	-2.679933e+01	-2.678440e+02
5.700000e-07	-3.599215e-06	-4.009121e-09	-2.583543e+01	-2.636797e+02
5.800000e-07	-3.463602e-06	-3.941582e-09	-2.486199e+01	-2.593638e+02
5.900000e-07	-3.326637e-06	-3.879926e-09	-2.387884e+01	-2.548962e+02
6.000000e-07	-3.188354e-06	-3.813191e-09	-2.288624e+01	-2.502796e+02
6.100000e-07	-3.048696e-06	-3.732509e-09	-2.188376e+01	-2.455188e+02
6.200000e-07	-2.907683e-06	-3.650789e-09	-2.087156e+01	-2.406192e+02
6.300000e-07	-2.765430e-06	-3.578601e-09	-1.985046e+01	-2.355857e+02
6.400000e-07	-2.622115e-06	-3.500527e-09	-1.882173e+01	-2.304210e+02
6.500000e-07	-2.477829e-06	-3.415729e-09	-1.778604e+01	-2.251244e+02
6.600000e-07	-2.332602e-06	-3.330327e-09	-1.674359e+01	-2.196908e+02
6.700000e-07	-2.186593e-06	-3.249580e-09	-1.569552e+01	-2.141106e+02
6.800000e-07	-2.039890e-06	-3.166158e-09	-1.464248e+01	-2.083694e+02
6.900000e-07	-1.892561e-06	-3.077556e-09	-1.358494e+01	-2.024495e+02
7.000000e-07	-1.744713e-06	-2.986634e-09	-1.252368e+01	-1.963311e+02
7.100000e-07	-1.596371e-06	-2.886998e-09	-1.145887e+01	-1.899939e+02
7.200000e-07	-1.447531e-06	-2.782970e-09	-1.039048e+01	-1.834193e+02
7.300000e-07	-1.298210e-06	-2.675736e-09	-9.318648e+00	-1.765918e+02
7.400000e-07	-1.148489e-06	-2.566573e-09	-8.243937e+00	-1.695001e+02
7.500000e-07	-9.984394e-07	-2.455434e-09	-7.166870e+00	-1.621377e+02
7.600000e-07	-8.481111e-07	-2.344135e-09	-6.087803e+00	-1.545025e+02
7.700000e-07	-6.975216e-07	-2.226298e-09	-5.006860e+00	-1.465952e+02
7.800000e-07	-5.466014e-07	-2.101391e-09	-3.923545e+00	-1.384174e+02
7.900000e-07	-3.953976e-07	-1.973298e-09	-2.838193e+00	-1.299696e+02
8.000000e-07	-2.440394e-07	-1.838489e-09	-1.751732e+00	-1.212483e+02
8.100000e-07	-9.253909e-08	-1.695745e-09	-6.642523e-01	-1.122439e+02
8.200000e-07	5.901414e-08	-1.546253e-09	4.236078e-01	-1.029394e+02
8.300000e-07	2.105123e-07	-1.396996e-09	1.511073e+00	-9.330999e+01
8.400000e-07	3.619717e-07	-1.245457e-09	2.598259e+00	-8.332428e+01
8.500000e-07	5.133155e-07	-1.087083e-09	3.684616e+00	-7.294630e+01
8.600000e-07	6.644545e-07	-9.221378e-10	4.769502e+00	-6.213927e+01
8.700000e-07	8.153911e-07	-7.531690e-10	5.852936e+00	-5.087014e+01
8.800000e-07	9.660529e-07	-5.756329e-10	6.934398e+00	-3.911452e+01
8.900000e-07	1.116413e-06	-3.898585e-10	8.013695e+00	-2.686172e+01
9.000000e-07	1.266410e-06	-1.985785e-10	9.090383e+00	-1.411900e+01
9.100000e-07	1.415991e-06	-5.347812e-13	1.016408e+01	-9.146856e-01
9.200000e-07	1.565096e-06	2.058172e-10	1.123437e+01	1.270031e+01
9.300000e-07	1.713694e-06	4.203282e-10	1.230102e+01	2.665294e+01
9.400000e-07	1.861802e-06	6.369480e-10	1.336415e+01	4.085046e+01
9.500000e-07	2.009261e-06	8.556946e-10	1.442262e+01	5.518456e+01
9.600000e-07	2.155901e-06	1.073281e-09	1.547521e+01	6.953710e+01
9.700000e-07	2.301775e-06	1.288065e-09	1.652231e+01	8.378663e+01
9.800000e-07	2.446878e-06	1.499610e-09	1.756387e+01	9.781529e+01
9.900000e-07	2.590970e-06	1.709142e-09	1.859817e+01	1.115153e+02
1.000000e-06	2.733978e-06	1.913251e-09	1.962469e+01	1.247943e+02
1.010000e-06	2.875935e-06	2.106406e-09	2.064367e+01	1.375795e+02
1.020000e-06	3.016769e-06	2.289476e-09	2.165459e+01	1.498198e+02
1.030000e-06	3.156333e-06	2.462177e-09	2.265639e+01	1.614859e+02
1.040000e-06	3.294525e-06	2.628858e-09	2.364834e+01	1.725686e+02
1.050000e-06	3.431436e-06	2.787518e-09	2.463110e+01	1.830764e+02
1.060000e-06	3.567067e-06	2.937293e-09	2.560467e+01	1.930304e+02
1.070000e-06	3.701358e-06	3.081091e-09	2.656862e+01	2.024604e+02
1.080000e-06	3.834399e-06	3.217804e-09	2.752359e+01	2.114003e+02
1.090000e-06	3.966133e-06	3.351423e-09	2.846919e+01	2.198837e+02
1.100000e-06	4.096414e-06	3.477135e-09	2.940436e+01	2.279415e+02
1.110000e-06	4.225203e-06	3.596007e-09	3.032881e+01	2.355996e+02
1.120000e-06	4.352505e-06	3.708126e-09	3.124260e+01	2.428786e+02
1.130000e-06	4.478351e-06	3.812223e-09	3.214593e+01	2.497945e+02
1.140000e-06	4.602723e-06	3.909997e-09	3.303868e+01	2.563599e+02
1.150000e-06	4.725444e-06	4.002332e-09	3.391958e+01	2.625857e+02
1.160000e-06	4.846428e-06	4.090803e-09	3.478801e+01	2.684836e+02
1.170000e-06	4.965683e-06	4.172441e-09	3.564404e+01	2.740675e+02
1.180000e-06	5.083191e-06	4.250566e-09	3.648751e+01	2.793546e+02
1.190000e-06	5.198812e-06	4.327036e-09	3.731745e+01	2.843657e+02
1.200000e-06	5.312324e-06	4.402105e-09	3.813224e+01	2.891247e+02
1.210000e-06	5.423785e-06	4.472180e-09	3.893232e+01	2.936574e+02
1.220000e-06	5.533368e-06	4.537552e-09	3.971892e+01	2.979897e+02
1.230000e-06	5.641023e-06	4.600804e-09	4.049167e+01	3.021455e+02
1.240000e-06	5.746552e-06	4.662826e-09	4.124917e+01	3.061451e+02
1.250000e-06	5.849939e-06	4.721507e-09	4.199129e+01	3.100032e+02
1.260000e-06	5.951286e-06	4.775096e-09	4.271876e+01	3.137287e+02
1.270000e-06	6.050470e-06	4.825765e-09	4.343071e+01	3.173238e+02
1.280000e-06	6.147258e-06	4.875474e-09	4.412546e+01	3.207854e+02
1.290000e-06	6.241709e-06	4.925191e-09	4.480344e+01	3.241060e+02
1.300000e-06	6.334032e-06	4.973361e-09	4.546614e+01	3.272758e+02
1.310000e-06	6.424151e-06	5.018706e-09	4.611302e+01	3.302847e+02
1.320000e-06	6.511917e-06	5.059718e-09	4.674301e+01	3.331243e+02
1.330000e-06	6.597389e-06	5.096780e-09	4.735654e+01	3.357896e+02
1.340000e-06	6.680592e-06	5.132590e-09	4.795377e+01	3.382801e+02
1.350000e-06	6.761406e-06	5.166899e-09	4.853386e+01	3.406001e+02
1.360000e-06	6.839707e-06	5.199296e-09	4.909591e+01	3.427585e+02
1.370000e-06	6.915394e-06	5.229374e-09	4.963920e+01	3.447678e+02
1.380000e-06	6.988486e-06	5.258488e-09	5.016386e+01	3.466429e+02
1.390000e-06	7.059082e-06	5.286086e-09	5.067060e+01	3.483989e+02
1.400000e-06	7.127260e-06	5.312126e-09	5.115999e+01	3.500503e+02
1.410000e-06	7.192843e-06	5.337349e-09	5.163075e+01	3.516090e+02
1.420000e-06	7.255774e-06	5.360997e-09	5.208247e+01	3.530836e+02
1.430000e-06	7.316336e-06	5.381963e-09	5.251719e+01	3.544791e+02
1.440000e-06	7.374375e-06	5.400986e-09	5.293380e+01	3.557971e+02
1.450000e-06	7.429733e-06	5.417501e-09	5.333116e+01	3.570365e+02
1.460000e-06	7.482303e-06	5.431812e-09	5.370851e+01	3.581944e+02
1.470000e-06	7.531801e-06	5.446034e-09	5.406382e+01	3.592675e+02
1.480000e-06	7.578387e-06	5.460271e-09	5.439821e+01	3.602533e+02
1.490000e-06	7.622370e-06	5.475346e-09	5.471392e+01	3.611509e+02
1.500000e-06	7.663582e-06	5.489620e-09	5.500975e+01	3.619616e+02
1.510000e-06	7.701993e-06	5.503086e-09	5.528546e+01	3.626891e+02
1.520000e-06	7.737862e-06	5.514456e-09	5.554294e+01	3.633390e+02
1.530000e-06	7.771004e-06	5.523741e-09	5.578083e+01	3.639181e+02
1.540000e-06	7.801293e-06	5.532336e-09	5.599825e+01	3.644337e+02
1.550000e-06	7.828885e-06	5.540432e-09	5.619630e+01	3.648923e+02
1.560000e-06	7.853586e-06	5.548057e-09	5.637361e+01	3.652986e+02
1.570000e-06	7.875390e-06	5.552490e-09	5.653012e+01	3.656554e+02
1.580000e-06	7.894491e-06	5.554920e-09	5.666723e+01	3.659625e+02
1.590000e-06	7.910678e-06	5.557703e-09	5.678342e+01	3.662177e+02
1.600000e-06	7.923829e-06	5.562084e-09	5.687782e+01	3.664169e+02
1.610000e-06	7.933849e-06	5.567172e-09	5.694974e+01	3.665550e+02
1.620000e-06	7.940835e-06	5.570007e-09	5.699989e+01	3.666272e+02
1.630000e-06	7.945128e-06	5.571582e-09	5.703070e+01	3.666297e+02
1.640000e-06	7.946632e-06	5.573410e-09	5.704150e+01	3.665607e+02
1.650000e-06	7.945315e-06	5.571866e-09	5.703204e+01	3.664212e+02
1.660000e-06	7.941458e-06	5.563280e-09	5.700436e+01	3.662151e+02
1.670000e-06	7.934946e-06	5.558360e-09	5.695762e+01	3.659486e+02
1.680000e-06	7.925746e-06	5.555033e-09	5.689158e+01	3.656302e+02
1.690000e-06	7.913851e-06	5.550219e-09	5.680620e+01	3.652693e+02
1.700000e-06	7.899128e-06	5.549127e-09	5.670051e+01	3.648755e+02
1.710000e-06	7.881878e-06	5.551041e-09	5.657669e+01	3.644570e+02
1.720000e-06	7.862437e-06	5.550861e-09	5.643714e+01	3.640201e+02
1.730000e-06	7.840474e-06	5.462673e-09	5.627949e+01	3.635684e+02
1.740000e-06	7.815259e-06	5.449488e-09	5.609850e+01	3.631023e+02
1.750000e-06	7.786345e-06	5.500449e-09	5.589095e+01	3.626192e+02
1.760000e-06	7.754102e-06	5.485994e-09	5.565950e+01	3.621138e+02
1.770000e-06	7.719415e-06	5.466566e-09	5.541052e+01	3.615787e+02
1.780000e-06	7.682481e-06	5.543121e-09	5.514541e+01	3.610057e+02
1.790000e-06	7.643376e-06	5.541131e-09	5.486471e+01	3.603859e+02
1.800000e-06	7.602193e-06	5.409599e-09	5.456909e+01	3.597114e+02
1.810000e-06	7.558488e-06	5.515203e-09	5.425538e+01	3.589752e+02
1.820000e-06	7.512235e-06	5.460356e-09	5.392336e+01	3.581720e+02
1.830000e-06	7.463321e-06	5.452632e-09	5.357226e+01	3.572985e+02
1.840000e-06	7.411361e-06	5.493886e-09	5.319929e+01	3.563528e+02
1.850000e-06	7.356457e-06	5.381544e-09	5.280518e+01	3.553345e+02
1.860000e-06	7.298787e-06	5.445088e-09	5.239122e+01	3.542442e+02
1.870000e-06	7.238607e-06	5.344039e-09	5.195925e+01	3.530829e+02
1.880000e-06	7.175752e-06	5.367364e-09	5.150807e+01	3.518520e+02
1.890000e-06	7.110015e-06	5.400392e-09	5.103621e+01	3.505526e+02
1.900000e-06	7.041537e-06	5.303721e-09	5.054466e+01	3.491856e+02
1.910000e-06	6.970277e-06	5.331267e-09	5.003315e+01	3.477516e+02
1.920000e-06	6.896440e-06	5.257826e-09	4.950315e+01	3.462508e+02
1.930000e-06	6.819898e-06	5.285459e-09	4.895372e+01	3.446835e+02
1.940000e-06	6.740511e-06	5.246383e-09	4.838388e+01	3.430500e+02
1.950000e-06	6.658683e-06	5.210636e-09	4.779651e+01	3.413504e+02
1.960000e-06	6.574537e-06	5.202908e-09	4.719250e+01	3.395853e+02
1.970000e-06	6.487893e-06	5.116621e-09	4.657056e+01	3.377548e+02
1.980000e-06	6.398779e-06	5.128667e-09	4.593090e+01	3.358590e+02
1.990000e-06	6.307529e-06	5.089746e-09	4.527590e+01	3.338975e+02
2.000000e-06	6.214077e-06	5.095199e-09	4.460509e+01	3.318693e+02
2.010000e-06	6.118284e-06	5.033286e-09	4.391748e+01	3.297726e+02
2.020000e-06	6.020309e-06	4.986080e-09	4.321421e+01	3.276050e+02
2.030000e-06	5.920271e-06	4.957866e-09	4.249613e+01	3.253634e+02
2.040000e-06	5.818158e-06	4.926191e-09	4.176316e+01	3.230443e+02
2.050000e-06	5.713904e-06	4.915112e-09	4.101482e+01	3.206443e+02
2.060000e-06	5.607711e-06	4.853062e-09	4.025256e+01	3.181603e+02
2.070000e-06	5.499676e-06	4.815901e-09	3.947707e+01	3.155902e+02
2.080000e-06	5.389688e-06	4.764756e-09	3.868757e+01	3.129325e+02
2.090000e-06	5.277652e-06	4.734553e-09	3.788337e+01	3.101869e+02
2.100000e-06	5.163670e-06	4.697084e-09	3.706520e+01	3.073540e+02
2.110000e-06	5.047712e-06	4.671203e-09	3.623284e+01	3.044345e+02
2.120000e-06	4.929692e-06	4.608872e-09	3.538569e+01	3.014292e+02
2.130000e-06	4.809745e-06	4.542533e-09	3.452470e+01	2.983381e+02
2.140000e-06	4.688045e-06	4.497708e-09	3.365113e+01	2.951598e+02
2.150000e-06	4.564753e-06	4.466481e-09	3.276612e+01	2.918908e+02
2.160000e-06	4.439814e-06	4.425260e-09	3.186931e+01	2.885260e+02
2.170000e-06	4.313216e-06	4.357561e-09	3.096058e+01	2.850579e+02
2.180000e-06	4.184951e-06	4.303134e-09	3.003988e+01	2.814775e+02
2.190000e-06	4.055174e-06	4.245727e-09	2.910833e+01	2.777750e+02
2.200000e-06	3.923984e-06	4.190614e-09	2.816664e+01	2.739408e+02
2.210000e-06	3.791294e-06	4.133870e-09	2.721419e+01	2.699660e+02
2.220000e-06	3.657090e-06	4.079512e-09	2.625086e+01	2.658441e+02
2.230000e-06	3.521527e-06	4.001159e-09	2.527778e+01	2.615712e+02
2.240000e-06	3.384678e-06	3.924078e-09	2.429546e+01	2.571463e+02
2.250000e-06	3.246623e-06	3.861317e-09	2.330449e+01	2.525714e+02
2.260000e-06	3.107341e-06	3.805108e-09	2.230472e+01	2.478509e+02
2.270000e-06	2.966690e-06	3.731964e-09	2.129512e+01	2.429899e+02
2.280000e-06	2.824818e-06	3.646492e-09	2.027674e+01	2.379938e+02
2.290000e-06	2.681823e-06	3.566452e-09	1.925032e+01	2.328660e+02
2.300000e-06	2.537868e-06	3.486375e-09	1.821700e+01	2.276070e+02
2.310000e-06	2.393091e-06	3.409728e-09	1.717778e+01	2.222129e+02
2.320000e-06	2.247554e-06	3.329596e-09	1.613310e+01	2.166754e+02
2.330000e-06	2.101316e-06	3.238671e-09	1.508339e+01	2.109814e+02
2.340000e-06	1.954383e-06	3.138513e-09	1.402870e+01	2.051141e+02
2.350000e-06	1.806816e-06	3.043563e-09	1.296946e+01	1.990540e+02
2.360000e-06	1.658656e-06	2.956852e-09	1.190595e+01	1.927809e+02
2.370000e-06	1.509920e-06	2.864582e-09	1.083832e+01	1.862754e+02
2.380000e-06	1.360677e-06	2.758252e-09	9.767035e+00	1.795210e+02
2.390000e-06	1.211054e-06	2.643246e-09	8.693033e+00	1.725052e+02
2.400000e-06	1.061086e-06	2.526455e-09	7.616552e+00	1.652202e+02
2.410000e-06	9.107749e-07	2.414317e-09	6.537608e+00	1.576625e+02
2.420000e-06	7.601191e-07	2.303911e-09	5.456190e+00	1.498323e+02
2.430000e-06	6.091321e-07	2.187284e-09	4.372394e+00	1.417312e+02
2.440000e-06	4.578649e-07	2.058026e-09	3.286588e+00	1.333602e+02
2.450000e-06	3.063755e-07	1.922013e-09	2.199186e+00	1.247173e+02
2.460000e-06	1.547116e-07	1.786998e-09	1.110531e+00	1.157947e+02
2.470000e-06	2.966301e-09	1.650435e-09	2.129232e-02	1.065777e+02
2.480000e-06	-1.487404e-07	1.507793e-09	-1.067669e+00	9.704360e+01
2.490000e-06	-3.003826e-07	1.355643e-09	-2.156168e+00	8.716278e+01
2.500000e-06	-4.519269e-07	1.195526e-09	-3.243964e+00	7.690022e+01
2.510000e-06	-6.033353e-07	1.030881e-09	-4.330785e+00	6.621895e+01
2.520000e-06	-7.545214e-07	8.642147e-10	-5.416009e+00	5.508436e+01
2.530000e-06	-9.054687e-07	6.919224e-10	-6.499520e+00	4.346907e+01
2.540000e-06	-1.056087e-06	5.066278e-10	-7.580669e+00	3.135799e+01
2.550000e-06	-1.206249e-06	3.093968e-10	-8.658546e+00	1.875286e+01
2.560000e-06	-1.355965e-06	1.079566e-10	-9.733218e+00	5.675784e+00
2.570000e-06	-1.505282e-06	-9.576602e-11	-1.080502e+01	-7.828834e+00
2.580000e-06	-1.654078e-06	-3.051773e-10	-1.187309e+01	-2.169412e+01
2.590000e-06	-1.802223e-06	-5.208739e-10	-1.293649e+01	-3.583259e+01
2.600000e-06	-1.949675e-06	-7.418428e-10	-1.399491e+01	-5.013986e+01
2.610000e-06	-2.096371e-06	-9.651107e-10	-1.504790e+01	-6.449995e+01
2.620000e-06	-2.242296e-06	-1.186974e-09	-1.609536e+01	-7.879167e+01
2.630000e-06	-2.387434e-06	-1.403148e-09	-1.713718e+01	-9.289545e+01
2.640000e-06	-2.531698e-06	-1.614312e-09	-1.817271e+01	-1.067000e+02
2.650000e-06	-2.674909e-06	-1.822911e-09	-1.920069e+01	-1.201081e+02
2.660000e-06	-2.816997e-06	-2.025517e-09	-2.022061e+01	-1.330410e+02
2.670000e-06	-2.957921e-06	-2.214750e-09	-2.123217e+01	-1.454414e+02
2.680000e-06	-3.097603e-06	-2.390848e-09	-2.223482e+01	-1.572737e+02
2.690000e-06	-3.236094e-06	-2.558896e-09	-2.322892e+01	-1.685234e+02
2.700000e-06	-3.373471e-06	-2.719922e-09	-2.421502e+01	-1.791942e+02
2.710000e-06	-3.509659e-06	-2.875358e-09	-2.519259e+01	-1.893041e+02
2.720000e-06	-3.644458e-06	-3.024828e-09	-2.616018e+01	-1.988810e+02
2.730000e-06	-3.777908e-06	-3.165058e-09	-2.711810e+01	-2.079578e+02
2.740000e-06	-3.910042e-06	-3.297251e-09	-2.806657e+01	-2.165688e+02
2.750000e-06	-4.040749e-06	-3.423867e-09	-2.900479e+01	-2.247458e+02
2.760000e-06	-4.170127e-06	-3.543413e-09	-2.993347e+01	-2.325162e+02
2.770000e-06	-4.298122e-06	-3.656673e-09	-3.085223e+01	-2.399021e+02
2.780000e-06	-4.424517e-06	-3.763217e-09	-3.175950e+01	-2.469209e+02
2.790000e-06	-4.549389e-06	-3.862609e-09	-3.265584e+01	-2.535857e+02
2.800000e-06	-4.672785e-06	-3.955323e-09	-3.354159e+01	-2.599078e+02
2.810000e-06	-4.794467e-06	-4.043725e-09	-3.441503e+01	-2.658986e+02
2.820000e-06	-4.914297e-06	-4.130819e-09	-3.527518e+01	-2.715711e+02
2.830000e-06	-5.032212e-06	-4.215299e-09	-3.612158e+01	-2.769415e+02
2.840000e-06	-5.148171e-06	-4.295110e-09	-3.695394e+01	-2.820295e+02
2.850000e-06	-5.262003e-06	-4.369449e-09	-3.777104e+01	-2.868584e+02
2.860000e-06	-5.373676e-06	-4.441923e-09	-3.857263e+01	-2.914536e+02
2.870000e-06	-5.483362e-06	-4.511939e-09	-3.935997e+01	-2.958410e+02
2.880000e-06	-5.591210e-06	-4.575396e-09	-4.013411e+01	-3.000454e+02
2.890000e-06	-5.697237e-06	-4.635109e-09	-4.089518e+01	-3.040883e+02
2.900000e-06	-5.801185e-06	-4.694731e-09	-4.164133e+01	-3.079861e+02
2.910000e-06	-5.902867e-06	-4.754608e-09	-4.237121e+01	-3.117495e+02
2.920000e-06	-6.002328e-06	-4.813302e-09	-4.308515e+01	-3.153824e+02
2.930000e-06	-6.099751e-06	-4.870881e-09	-4.378445e+01	-3.188832e+02
2.940000e-06	-6.195101e-06	-4.925744e-09	-4.446888e+01	-3.222455e+02
