# Temperatura_=_41.85
# Concentracion g/m^3_=_5000.0
# C_Vs_to_Am_M_A/Vsm_=_65563218390.804596
# pendiente_HvsI_1/m_=_3716.3
# ordenada_HvsI_A/m_=_1297.0
# frecuencia_Hz_=_302500.0746312907

Tiempo_(s)	Campo_(V.s)	Magnetizacion_(V.s)	Campo_(kA/m)	Magnetizacion_(A/m)
0.000000e+00	-7.945245e-06	-5.818030e-09	-5.686330e+01	-3.810999e+02
1.000000e-08	-7.940653e-06	-5.816676e-09	-5.683044e+01	-3.808711e+02
2.000000e-08	-7.933580e-06	-5.812277e-09	-5.677982e+01	-3.805858e+02
3.000000e-08	-7.923819e-06	-5.811894e-09	-5.670996e+01	-3.802514e+02
4.000000e-08	-7.911150e-06	-5.808896e-09	-5.661929e+01	-3.798751e+02
5.000000e-08	-7.895508e-06	-5.800352e-09	-5.650734e+01	-3.794626e+02
6.000000e-08	-7.877194e-06	-5.789391e-09	-5.637627e+01	-3.790182e+02
7.000000e-08	-7.856648e-06	-5.774997e-09	-5.622922e+01	-3.785436e+02
8.000000e-08	-7.833493e-06	-5.806609e-09	-5.606350e+01	-3.780386e+02
9.000000e-08	-7.807157e-06	-5.846444e-09	-5.587502e+01	-3.775008e+02
1.000000e-07	-7.777686e-06	-5.788572e-09	-5.566410e+01	-3.769264e+02
1.100000e-07	-7.745400e-06	-5.740024e-09	-5.543303e+01	-3.763109e+02
1.200000e-07	-7.710400e-06	-5.739977e-09	-5.518254e+01	-3.756498e+02
1.300000e-07	-7.672918e-06	-5.727820e-09	-5.491428e+01	-3.749390e+02
1.400000e-07	-7.633409e-06	-5.674738e-09	-5.463153e+01	-3.741755e+02
1.500000e-07	-7.591669e-06	-5.679072e-09	-5.433280e+01	-3.733573e+02
1.600000e-07	-7.547156e-06	-5.738109e-09	-5.401422e+01	-3.724831e+02
1.700000e-07	-7.499961e-06	-5.610828e-09	-5.367645e+01	-3.715526e+02
1.800000e-07	-7.449979e-06	-5.631050e-09	-5.331874e+01	-3.705651e+02
1.900000e-07	-7.396947e-06	-5.667046e-09	-5.293919e+01	-3.695198e+02
2.000000e-07	-7.341098e-06	-5.585721e-09	-5.253949e+01	-3.684149e+02
2.100000e-07	-7.282511e-06	-5.617460e-09	-5.212018e+01	-3.672473e+02
2.200000e-07	-7.221300e-06	-5.579351e-09	-5.168210e+01	-3.660132e+02
2.300000e-07	-7.157509e-06	-5.563599e-09	-5.122556e+01	-3.647080e+02
2.400000e-07	-7.090938e-06	-5.520936e-09	-5.074911e+01	-3.633265e+02
2.500000e-07	-7.021700e-06	-5.496485e-09	-5.025358e+01	-3.618645e+02
2.600000e-07	-6.949818e-06	-5.486261e-09	-4.973913e+01	-3.603185e+02
2.700000e-07	-6.875150e-06	-5.442635e-09	-4.920475e+01	-3.586869e+02
2.800000e-07	-6.797710e-06	-5.417223e-09	-4.865051e+01	-3.569701e+02
2.900000e-07	-6.717441e-06	-5.379275e-09	-4.807604e+01	-3.551704e+02
3.000000e-07	-6.634681e-06	-5.390970e-09	-4.748373e+01	-3.532922e+02
3.100000e-07	-6.549742e-06	-5.361996e-09	-4.687583e+01	-3.513406e+02
3.200000e-07	-6.462532e-06	-5.308637e-09	-4.625168e+01	-3.493211e+02
3.300000e-07	-6.372971e-06	-5.295063e-09	-4.561070e+01	-3.472386e+02
3.400000e-07	-6.281124e-06	-5.261972e-09	-4.495336e+01	-3.450961e+02
3.500000e-07	-6.187060e-06	-5.222303e-09	-4.428016e+01	-3.428946e+02
3.600000e-07	-6.090705e-06	-5.182848e-09	-4.359055e+01	-3.406321e+02
3.700000e-07	-5.992048e-06	-5.162256e-09	-4.288447e+01	-3.383042e+02
3.800000e-07	-5.891245e-06	-5.123307e-09	-4.216303e+01	-3.359042e+02
3.900000e-07	-5.788425e-06	-5.072603e-09	-4.142716e+01	-3.334239e+02
4.000000e-07	-5.683552e-06	-5.036600e-09	-4.067660e+01	-3.308551e+02
4.100000e-07	-5.576655e-06	-5.002835e-09	-3.991155e+01	-3.281900e+02
4.200000e-07	-5.467767e-06	-4.963041e-09	-3.913225e+01	-3.254229e+02
4.300000e-07	-5.356993e-06	-4.905420e-09	-3.833945e+01	-3.225503e+02
4.400000e-07	-5.244200e-06	-4.860244e-09	-3.753220e+01	-3.195716e+02
4.500000e-07	-5.129242e-06	-4.819498e-09	-3.670946e+01	-3.164888e+02
4.600000e-07	-5.012336e-06	-4.770101e-09	-3.587278e+01	-3.133058e+02
4.700000e-07	-4.893662e-06	-4.718949e-09	-3.502344e+01	-3.100273e+02
4.800000e-07	-4.773233e-06	-4.673194e-09	-3.416154e+01	-3.066578e+02
4.900000e-07	-4.650983e-06	-4.623120e-09	-3.328661e+01	-3.032003e+02
5.000000e-07	-4.527007e-06	-4.562738e-09	-3.239933e+01	-2.996552e+02
5.100000e-07	-4.401512e-06	-4.505589e-09	-3.150117e+01	-2.960197e+02
5.200000e-07	-4.274418e-06	-4.450975e-09	-3.059157e+01	-2.922875e+02
5.300000e-07	-4.145724e-06	-4.388640e-09	-2.967052e+01	-2.884496e+02
5.400000e-07	-4.015499e-06	-4.319958e-09	-2.873852e+01	-2.844947e+02
5.500000e-07	-3.883657e-06	-4.256059e-09	-2.779493e+01	-2.804110e+02
5.600000e-07	-3.750382e-06	-4.197223e-09	-2.684110e+01	-2.761870e+02
5.700000e-07	-3.615745e-06	-4.131394e-09	-2.587752e+01	-2.718136e+02
5.800000e-07	-3.479717e-06	-4.063197e-09	-2.490398e+01	-2.672846e+02
5.900000e-07	-3.342337e-06	-3.995285e-09	-2.392076e+01	-2.625973e+02
6.000000e-07	-3.203632e-06	-3.921481e-09	-2.292807e+01	-2.577528e+02
6.100000e-07	-3.063513e-06	-3.841719e-09	-2.192524e+01	-2.527549e+02
6.200000e-07	-2.922021e-06	-3.761366e-09	-2.091260e+01	-2.476089e+02
6.300000e-07	-2.779469e-06	-3.681126e-09	-1.989238e+01	-2.423199e+02
6.400000e-07	-2.635847e-06	-3.594917e-09	-1.886449e+01	-2.368913e+02
6.500000e-07	-2.491170e-06	-3.508040e-09	-1.782905e+01	-2.313225e+02
6.600000e-07	-2.345636e-06	-3.421888e-09	-1.678748e+01	-2.256086e+02
6.700000e-07	-2.199360e-06	-3.334760e-09	-1.574059e+01	-2.197392e+02
6.800000e-07	-2.052365e-06	-3.245559e-09	-1.468857e+01	-2.136987e+02
6.900000e-07	-1.904653e-06	-3.154051e-09	-1.363140e+01	-2.074680e+02
7.000000e-07	-1.756351e-06	-3.056921e-09	-1.257002e+01	-2.010254e+02
7.100000e-07	-1.607600e-06	-2.951285e-09	-1.150543e+01	-1.943492e+02
7.200000e-07	-1.458463e-06	-2.842660e-09	-1.043807e+01	-1.874197e+02
7.300000e-07	-1.308885e-06	-2.730611e-09	-9.367557e+00	-1.802210e+02
7.400000e-07	-1.158835e-06	-2.613791e-09	-8.293664e+00	-1.727425e+02
7.500000e-07	-1.008366e-06	-2.496130e-09	-7.216772e+00	-1.649790e+02
7.600000e-07	-8.575042e-07	-2.379868e-09	-6.137070e+00	-1.569298e+02
7.700000e-07	-7.063453e-07	-2.257490e-09	-5.055241e+00	-1.485976e+02
7.800000e-07	-5.548768e-07	-2.127974e-09	-3.971197e+00	-1.399854e+02
7.900000e-07	-4.031239e-07	-1.992484e-09	-2.885116e+00	-1.310939e+02
8.000000e-07	-2.512314e-07	-1.848907e-09	-1.798038e+00	-1.219185e+02
8.100000e-07	-9.925871e-08	-1.698387e-09	-7.103844e-01	-1.124466e+02
8.200000e-07	5.279300e-08	-1.543995e-09	3.778341e-01	-1.026567e+02
8.300000e-07	2.048851e-07	-1.387927e-09	1.466341e+00	-9.251763e+01
8.400000e-07	3.569219e-07	-1.227476e-09	2.554454e+00	-8.199078e+01
8.500000e-07	5.088751e-07	-1.060928e-09	3.641967e+00	-7.103285e+01
8.600000e-07	6.606904e-07	-8.881404e-10	4.728493e+00	-5.960061e+01
8.700000e-07	8.122729e-07	-7.087250e-10	5.813353e+00	-4.765641e+01
8.800000e-07	9.635635e-07	-5.196103e-10	6.896125e+00	-3.517427e+01
8.900000e-07	1.114518e-06	-3.245770e-10	7.976493e+00	-2.214556e+01
9.000000e-07	1.265053e-06	-1.230241e-10	9.053855e+00	-8.583800e+00
9.100000e-07	1.415134e-06	8.842907e-11	1.012797e+01	5.472166e+00
9.200000e-07	1.564744e-06	3.103755e-10	1.119871e+01	1.995710e+01
9.300000e-07	1.713799e-06	5.387249e-10	1.226549e+01	3.478059e+01
9.400000e-07	1.862243e-06	7.686817e-10	1.332789e+01	4.983067e+01
9.500000e-07	2.010068e-06	1.001604e-09	1.438585e+01	6.497940e+01
9.600000e-07	2.157177e-06	1.232181e-09	1.543869e+01	8.009005e+01
9.700000e-07	2.303472e-06	1.457485e-09	1.648571e+01	9.502513e+01
9.800000e-07	2.448873e-06	1.677889e-09	1.752633e+01	1.096544e+02
9.900000e-07	2.593324e-06	1.893363e-09	1.856015e+01	1.238624e+02
1.000000e-06	2.736837e-06	2.101399e-09	1.958726e+01	1.375540e+02
1.010000e-06	2.879246e-06	2.299381e-09	2.060647e+01	1.506588e+02
1.020000e-06	3.020517e-06	2.487043e-09	2.161753e+01	1.631321e+02
1.030000e-06	3.160625e-06	2.664234e-09	2.262027e+01	1.749551e+02
1.040000e-06	3.299373e-06	2.832027e-09	2.361327e+01	1.861316e+02
1.050000e-06	3.436809e-06	2.992215e-09	2.459689e+01	1.966837e+02
1.060000e-06	3.572936e-06	3.144792e-09	2.557113e+01	2.066469e+02
1.070000e-06	3.707660e-06	3.288996e-09	2.653534e+01	2.160640e+02
1.080000e-06	3.841088e-06	3.424126e-09	2.749027e+01	2.249796e+02
1.090000e-06	3.973178e-06	3.553644e-09	2.843563e+01	2.334362e+02
1.100000e-06	4.103805e-06	3.677093e-09	2.937051e+01	2.414705e+02
1.110000e-06	4.232990e-06	3.795356e-09	3.029508e+01	2.491123e+02
1.120000e-06	4.360712e-06	3.908862e-09	3.120917e+01	2.563835e+02
1.130000e-06	4.486921e-06	4.014956e-09	3.211243e+01	2.633002e+02
1.140000e-06	4.611666e-06	4.112809e-09	3.300522e+01	2.698740e+02
1.150000e-06	4.734846e-06	4.206081e-09	3.388681e+01	2.761148e+02
1.160000e-06	4.856306e-06	4.294917e-09	3.475608e+01	2.820330e+02
1.170000e-06	4.976035e-06	4.378266e-09	3.561297e+01	2.876419e+02
1.180000e-06	5.094002e-06	4.457118e-09	3.645725e+01	2.929584e+02
1.190000e-06	5.210074e-06	4.532764e-09	3.728797e+01	2.980038e+02
1.200000e-06	5.324088e-06	4.606644e-09	3.810395e+01	3.028025e+02
1.210000e-06	5.436005e-06	4.675071e-09	3.890493e+01	3.073809e+02
1.220000e-06	5.545997e-06	4.741781e-09	3.969213e+01	3.117654e+02
1.230000e-06	5.654072e-06	4.807603e-09	4.046561e+01	3.159799e+02
1.240000e-06	5.760040e-06	4.871562e-09	4.122401e+01	3.200442e+02
1.250000e-06	5.863867e-06	4.931187e-09	4.196709e+01	3.239719e+02
1.260000e-06	5.965571e-06	4.986219e-09	4.269498e+01	3.277703e+02
1.270000e-06	6.065066e-06	5.038946e-09	4.340706e+01	3.314401e+02
1.280000e-06	6.162226e-06	5.090389e-09	4.410242e+01	3.349763e+02
1.290000e-06	6.257083e-06	5.141397e-09	4.478130e+01	3.383701e+02
1.300000e-06	6.349790e-06	5.190060e-09	4.544480e+01	3.416109e+02
1.310000e-06	6.440292e-06	5.234971e-09	4.609251e+01	3.446882e+02
1.320000e-06	6.528391e-06	5.275819e-09	4.672302e+01	3.475940e+02
1.330000e-06	6.614187e-06	5.315293e-09	4.733706e+01	3.503242e+02
1.340000e-06	6.697696e-06	5.355808e-09	4.793473e+01	3.528794e+02
1.350000e-06	6.778791e-06	5.393474e-09	4.851511e+01	3.552651e+02
1.360000e-06	6.857445e-06	5.426824e-09	4.907803e+01	3.574912e+02
1.370000e-06	6.933502e-06	5.458277e-09	4.962236e+01	3.595708e+02
1.380000e-06	7.006863e-06	5.488346e-09	5.014740e+01	3.615186e+02
1.390000e-06	7.077701e-06	5.516582e-09	5.065438e+01	3.633492e+02
1.400000e-06	7.146114e-06	5.543353e-09	5.114400e+01	3.650756e+02
1.410000e-06	7.211961e-06	5.569274e-09	5.161527e+01	3.667081e+02
1.420000e-06	7.275191e-06	5.593281e-09	5.206779e+01	3.682535e+02
1.430000e-06	7.335969e-06	5.615121e-09	5.250278e+01	3.697151e+02
1.440000e-06	7.394260e-06	5.634520e-09	5.291996e+01	3.710932e+02
1.450000e-06	7.449901e-06	5.651113e-09	5.331818e+01	3.723859e+02
1.460000e-06	7.502689e-06	5.667486e-09	5.369597e+01	3.735905e+02
1.470000e-06	7.552404e-06	5.683478e-09	5.405178e+01	3.747044e+02
1.480000e-06	7.599192e-06	5.698719e-09	5.438664e+01	3.757262e+02
1.490000e-06	7.643349e-06	5.714313e-09	5.470266e+01	3.766566e+02
1.500000e-06	7.684800e-06	5.729301e-09	5.499932e+01	3.774986e+02
1.510000e-06	7.723415e-06	5.743321e-09	5.527569e+01	3.782569e+02
1.520000e-06	7.759353e-06	5.754634e-09	5.553289e+01	3.789382e+02
1.530000e-06	7.792564e-06	5.764082e-09	5.577058e+01	3.795494e+02
1.540000e-06	7.823000e-06	5.773110e-09	5.598841e+01	3.800972e+02
1.550000e-06	7.850779e-06	5.780886e-09	5.618722e+01	3.805869e+02
1.560000e-06	7.875664e-06	5.787764e-09	5.636532e+01	3.810219e+02
1.570000e-06	7.897657e-06	5.793915e-09	5.652272e+01	3.814031e+02
1.580000e-06	7.916939e-06	5.798660e-09	5.666072e+01	3.817293e+02
1.590000e-06	7.933328e-06	5.801870e-09	5.677802e+01	3.819973e+02
1.600000e-06	7.946700e-06	5.805847e-09	5.687372e+01	3.822028e+02
1.610000e-06	7.956935e-06	5.811197e-09	5.694696e+01	3.823413e+02
1.620000e-06	7.964128e-06	5.814185e-09	5.699845e+01	3.824093e+02
1.630000e-06	7.968555e-06	5.814062e-09	5.703013e+01	3.824047e+02
1.640000e-06	7.970144e-06	5.814296e-09	5.704150e+01	3.823277e+02
1.650000e-06	7.968928e-06	5.813953e-09	5.703280e+01	3.821809e+02
1.660000e-06	7.965132e-06	5.805074e-09	5.700564e+01	3.819692e+02
1.670000e-06	7.958654e-06	5.800240e-09	5.695927e+01	3.816988e+02
1.680000e-06	7.949516e-06	5.797606e-09	5.689387e+01	3.813772e+02
1.690000e-06	7.937704e-06	5.794666e-09	5.680933e+01	3.810117e+02
1.700000e-06	7.923078e-06	5.793801e-09	5.670466e+01	3.806086e+02
1.710000e-06	7.905881e-06	5.792393e-09	5.658158e+01	3.801725e+02
1.720000e-06	7.886444e-06	5.788005e-09	5.644247e+01	3.797061e+02
1.730000e-06	7.864445e-06	5.701292e-09	5.628503e+01	3.792095e+02
1.740000e-06	7.839171e-06	5.674760e-09	5.610414e+01	3.786809e+02
1.750000e-06	7.810290e-06	5.733367e-09	5.589744e+01	3.781169e+02
1.760000e-06	7.778124e-06	5.728849e-09	5.566724e+01	3.775132e+02
1.770000e-06	7.743451e-06	5.703531e-09	5.541908e+01	3.768651e+02
1.780000e-06	7.706425e-06	5.758302e-09	5.515409e+01	3.761684e+02
1.790000e-06	7.667173e-06	5.769364e-09	5.487317e+01	3.754197e+02
1.800000e-06	7.625942e-06	5.635371e-09	5.457809e+01	3.746168e+02
1.810000e-06	7.582250e-06	5.728443e-09	5.426539e+01	3.737582e+02
1.820000e-06	7.535906e-06	5.707576e-09	5.393370e+01	3.728434e+02
1.830000e-06	7.486911e-06	5.659848e-09	5.358305e+01	3.718718e+02
1.840000e-06	7.434888e-06	5.711676e-09	5.321073e+01	3.708427e+02
1.850000e-06	7.379894e-06	5.584682e-09	5.281714e+01	3.697545e+02
1.860000e-06	7.322190e-06	5.646293e-09	5.240416e+01	3.686047e+02
1.870000e-06	7.261933e-06	5.585297e-09	5.197291e+01	3.673897e+02
1.880000e-06	7.198991e-06	5.583180e-09	5.152244e+01	3.661048e+02
1.890000e-06	7.133200e-06	5.633167e-09	5.105158e+01	3.647451e+02
1.900000e-06	7.064606e-06	5.522518e-09	5.056066e+01	3.633061e+02
1.910000e-06	6.993185e-06	5.554402e-09	5.004950e+01	3.617838e+02
1.920000e-06	6.919214e-06	5.491504e-09	4.952010e+01	3.601763e+02
1.930000e-06	6.842595e-06	5.508934e-09	4.897175e+01	3.584832e+02
1.940000e-06	6.763156e-06	5.465330e-09	4.840321e+01	3.567063e+02
1.950000e-06	6.681193e-06	5.400154e-09	4.781661e+01	3.548496e+02
1.960000e-06	6.596797e-06	5.421073e-09	4.721260e+01	3.529179e+02
1.970000e-06	6.509891e-06	5.331497e-09	4.659062e+01	3.509168e+02
1.980000e-06	6.420596e-06	5.337371e-09	4.595155e+01	3.488514e+02
1.990000e-06	6.329243e-06	5.300886e-09	4.529774e+01	3.467254e+02
2.000000e-06	6.235647e-06	5.286422e-09	4.462789e+01	3.445404e+02
2.010000e-06	6.139675e-06	5.227747e-09	4.394102e+01	3.422952e+02
2.020000e-06	6.041555e-06	5.179815e-09	4.323879e+01	3.399861e+02
2.030000e-06	5.941319e-06	5.167224e-09	4.252141e+01	3.376070e+02
2.040000e-06	5.838896e-06	5.124203e-09	4.178838e+01	3.351501e+02
2.050000e-06	5.734324e-06	5.093066e-09	4.103997e+01	3.326069e+02
2.060000e-06	5.627892e-06	5.029709e-09	4.027825e+01	3.299695e+02
2.070000e-06	5.519682e-06	5.003872e-09	3.950380e+01	3.272316e+02
2.080000e-06	5.409504e-06	4.950133e-09	3.871526e+01	3.243888e+02
2.090000e-06	5.297216e-06	4.917868e-09	3.791163e+01	3.214399e+02
2.100000e-06	5.182931e-06	4.876159e-09	3.709370e+01	3.183861e+02
2.110000e-06	5.066662e-06	4.833543e-09	3.626158e+01	3.152307e+02
2.120000e-06	4.948378e-06	4.770017e-09	3.541503e+01	3.119786e+02
2.130000e-06	4.828209e-06	4.709285e-09	3.455500e+01	3.086342e+02
2.140000e-06	4.706332e-06	4.666646e-09	3.368274e+01	3.052012e+02
2.150000e-06	4.582796e-06	4.617580e-09	3.279860e+01	3.016808e+02
2.160000e-06	4.457544e-06	4.566572e-09	3.190219e+01	2.980711e+02
2.170000e-06	4.330633e-06	4.503736e-09	3.099389e+01	2.943669e+02
2.180000e-06	4.202067e-06	4.453139e-09	3.007376e+01	2.905598e+02
2.190000e-06	4.071986e-06	4.391973e-09	2.914278e+01	2.866391e+02
2.200000e-06	3.940406e-06	4.333010e-09	2.820108e+01	2.825929e+02
2.210000e-06	3.807370e-06	4.264735e-09	2.724896e+01	2.784097e+02
2.220000e-06	3.672903e-06	4.198419e-09	2.628659e+01	2.740793e+02
2.230000e-06	3.537014e-06	4.122854e-09	2.531405e+01	2.695946e+02
2.240000e-06	3.399852e-06	4.051722e-09	2.433239e+01	2.649522e+02
2.250000e-06	3.261478e-06	3.984757e-09	2.334206e+01	2.601518e+02
2.260000e-06	3.121821e-06	3.913296e-09	2.234255e+01	2.551968e+02
2.270000e-06	2.980850e-06	3.833788e-09	2.133363e+01	2.500920e+02
2.280000e-06	2.838667e-06	3.751751e-09	2.031605e+01	2.448430e+02
2.290000e-06	2.695355e-06	3.674104e-09	1.929038e+01	2.394536e+02
2.300000e-06	2.551095e-06	3.592139e-09	1.825792e+01	2.339248e+02
2.310000e-06	2.406011e-06	3.508844e-09	1.721958e+01	2.282527e+02
2.320000e-06	2.260217e-06	3.417233e-09	1.617614e+01	2.224286e+02
2.330000e-06	2.113712e-06	3.319623e-09	1.512762e+01	2.164383e+02
2.340000e-06	1.966353e-06	3.220704e-09	1.407299e+01	2.102637e+02
2.350000e-06	1.818263e-06	3.123755e-09	1.301312e+01	2.038834e+02
2.360000e-06	1.669663e-06	3.024716e-09	1.194961e+01	1.972756e+02
2.370000e-06	1.520656e-06	2.918514e-09	1.088318e+01	1.904198e+02
2.380000e-06	1.371257e-06	2.808929e-09	9.813944e+00	1.832989e+02
2.390000e-06	1.221359e-06	2.696692e-09	8.741140e+00	1.759007e+02
2.400000e-06	1.070900e-06	2.579746e-09	7.664324e+00	1.682183e+02
2.410000e-06	9.199937e-07	2.460794e-09	6.584300e+00	1.602501e+02
2.420000e-06	7.687768e-07	2.337404e-09	5.502057e+00	1.519979e+02
2.430000e-06	6.172945e-07	2.208158e-09	4.417913e+00	1.434650e+02
2.440000e-06	4.656076e-07	2.072424e-09	3.332306e+00	1.346531e+02
2.450000e-06	3.137520e-07	1.933983e-09	2.245491e+00	1.255592e+02
2.460000e-06	1.617201e-07	1.793316e-09	1.157414e+00	1.161734e+02
2.470000e-06	9.570758e-09	1.645623e-09	6.849693e-02	1.064766e+02
2.480000e-06	-1.426312e-07	1.491046e-09	-1.020797e+00	9.644050e+01
2.490000e-06	-2.947942e-07	1.331375e-09	-2.109812e+00	8.602827e+01
2.500000e-06	-4.468173e-07	1.165166e-09	-3.197826e+00	7.519755e+01
2.510000e-06	-5.986753e-07	9.917177e-10	-4.284658e+00	6.390456e+01
2.520000e-06	-7.503746e-07	8.122185e-10	-5.370354e+00	5.210944e+01
2.530000e-06	-9.018655e-07	6.254836e-10	-6.454559e+00	3.978227e+01
2.540000e-06	-1.052932e-06	4.293318e-10	-7.535725e+00	2.690892e+01
2.550000e-06	-1.203556e-06	2.233350e-10	-8.613729e+00	1.349617e+01
2.560000e-06	-1.353755e-06	9.793836e-12	-9.688685e+00	-4.245653e-01
2.570000e-06	-1.503455e-06	-2.089292e-10	-1.076008e+01	-1.479557e+01
2.580000e-06	-1.652644e-06	-4.327015e-10	-1.182780e+01	-2.953338e+01
2.590000e-06	-1.801240e-06	-6.620629e-10	-1.289129e+01	-4.453167e+01
2.600000e-06	-1.949164e-06	-8.946548e-10	-1.394997e+01	-5.966639e+01
2.610000e-06	-2.096311e-06	-1.127627e-09	-1.500308e+01	-7.480254e+01
2.620000e-06	-2.242692e-06	-1.358904e-09	-1.605072e+01	-8.980200e+01
2.630000e-06	-2.388292e-06	-1.585421e-09	-1.709276e+01	-1.045317e+02
2.640000e-06	-2.533037e-06	-1.805517e-09	-1.812869e+01	-1.188712e+02
2.650000e-06	-2.676775e-06	-2.019029e-09	-1.915741e+01	-1.327192e+02
2.660000e-06	-2.819357e-06	-2.224463e-09	-2.017785e+01	-1.459977e+02
2.670000e-06	-2.960789e-06	-2.417887e-09	-2.119006e+01	-1.586549e+02
2.680000e-06	-3.101114e-06	-2.598169e-09	-2.219435e+01	-1.706647e+02
2.690000e-06	-3.240238e-06	-2.767406e-09	-2.319005e+01	-1.820248e+02
2.700000e-06	-3.378006e-06	-2.928447e-09	-2.417604e+01	-1.927527e+02
2.710000e-06	-3.514467e-06	-3.083293e-09	-2.515268e+01	-2.028805e+02
2.720000e-06	-3.649648e-06	-3.232092e-09	-2.612015e+01	-2.124495e+02
2.730000e-06	-3.783526e-06	-3.372363e-09	-2.707830e+01	-2.215043e+02
2.740000e-06	-3.916093e-06	-3.506230e-09	-2.802707e+01	-2.300885e+02
2.750000e-06	-4.047249e-06	-3.635039e-09	-2.896574e+01	-2.382406e+02
2.760000e-06	-4.177044e-06	-3.754382e-09	-2.989467e+01	-2.459924e+02
2.770000e-06	-4.305492e-06	-3.865460e-09	-3.081396e+01	-2.533681e+02
2.780000e-06	-4.432373e-06	-3.969501e-09	-3.172204e+01	-2.603853e+02
2.790000e-06	-4.557681e-06	-4.068744e-09	-3.261885e+01	-2.670565e+02
2.800000e-06	-4.681478e-06	-4.164215e-09	-3.350486e+01	-2.733919e+02
2.810000e-06	-4.803581e-06	-4.253853e-09	-3.437874e+01	-2.794015e+02
2.820000e-06	-4.923878e-06	-4.339740e-09	-3.523969e+01	-2.850977e+02
2.830000e-06	-5.042328e-06	-4.423007e-09	-3.608742e+01	-2.904962e+02
2.840000e-06	-5.158795e-06	-4.503232e-09	-3.692097e+01	-2.956172e+02
2.850000e-06	-5.273098e-06	-4.579425e-09	-3.773902e+01	-3.004841e+02
2.860000e-06	-5.385237e-06	-4.653069e-09	-3.854159e+01	-3.051232e+02
2.870000e-06	-5.495389e-06	-4.724981e-09	-3.932993e+01	-3.095610e+02
2.880000e-06	-5.603618e-06	-4.791051e-09	-4.010452e+01	-3.138224e+02
2.890000e-06	-5.709965e-06	-4.852034e-09	-4.086564e+01	-3.179283e+02
2.900000e-06	-5.814266e-06	-4.910823e-09	-4.161210e+01	-3.218945e+02
2.910000e-06	-5.916301e-06	-4.970206e-09	-4.234236e+01	-3.257300e+02
2.920000e-06	-6.016120e-06	-5.029615e-09	-4.305675e+01	-3.294373e+02
2.930000e-06	-6.113892e-06	-5.087067e-09	-4.375649e+01	-3.330129e+02
2.940000e-06	-6.209533e-06	-5.142455e-09	-4.444099e+01	-3.364489e+02
