# Temperatura_=_28.78
# Concentracion g/m^3_=_5000.0
# C_Vs_to_Am_M_A/Vsm_=_65563218390.804596
# pendiente_HvsI_1/m_=_3716.3
# ordenada_HvsI_A/m_=_1297.0
# frecuencia_Hz_=_302502.11520350934

Tiempo_(s)	Campo_(V.s)	Magnetizacion_(V.s)	Campo_(kA/m)	Magnetizacion_(A/m)
0.000000e+00	-7.915188e-06	-5.530908e-09	-5.686334e+01	-3.618507e+02
1.000000e-08	-7.910832e-06	-5.530496e-09	-5.683204e+01	-3.616510e+02
2.000000e-08	-7.903920e-06	-5.522654e-09	-5.678238e+01	-3.613917e+02
3.000000e-08	-7.894331e-06	-5.518880e-09	-5.671350e+01	-3.610819e+02
4.000000e-08	-7.881874e-06	-5.516193e-09	-5.662401e+01	-3.607309e+02
5.000000e-08	-7.866417e-06	-5.510100e-09	-5.651296e+01	-3.603472e+02
6.000000e-08	-7.848306e-06	-5.501492e-09	-5.638285e+01	-3.599375e+02
7.000000e-08	-7.828002e-06	-5.489713e-09	-5.623699e+01	-3.595061e+02
8.000000e-08	-7.805188e-06	-5.515751e-09	-5.607309e+01	-3.590540e+02
9.000000e-08	-7.779242e-06	-5.567986e-09	-5.588669e+01	-3.585793e+02
1.000000e-07	-7.750089e-06	-5.510646e-09	-5.567726e+01	-3.580772e+02
1.100000e-07	-7.718095e-06	-5.447804e-09	-5.544741e+01	-3.575413e+02
1.200000e-07	-7.683442e-06	-5.445870e-09	-5.519845e+01	-3.569638e+02
1.300000e-07	-7.646321e-06	-5.436100e-09	-5.493177e+01	-3.563370e+02
1.400000e-07	-7.607063e-06	-5.385647e-09	-5.464974e+01	-3.556540e+02
1.500000e-07	-7.565570e-06	-5.386146e-09	-5.435166e+01	-3.549091e+02
1.600000e-07	-7.521422e-06	-5.481216e-09	-5.403449e+01	-3.540985e+02
1.700000e-07	-7.474631e-06	-5.358071e-09	-5.369834e+01	-3.532205e+02
1.800000e-07	-7.425075e-06	-5.365299e-09	-5.334233e+01	-3.522747e+02
1.900000e-07	-7.372426e-06	-5.414519e-09	-5.296409e+01	-3.512622e+02
2.000000e-07	-7.316883e-06	-5.303896e-09	-5.256506e+01	-3.501844e+02
2.100000e-07	-7.258665e-06	-5.321740e-09	-5.214682e+01	-3.490430e+02
2.200000e-07	-7.197883e-06	-5.289091e-09	-5.171016e+01	-3.478393e+02
2.300000e-07	-7.134534e-06	-5.286183e-09	-5.125506e+01	-3.465737e+02
2.400000e-07	-7.068434e-06	-5.265476e-09	-5.078019e+01	-3.452461e+02
2.500000e-07	-6.999634e-06	-5.236858e-09	-5.028593e+01	-3.438556e+02
2.600000e-07	-6.928189e-06	-5.237765e-09	-4.977266e+01	-3.424007e+02
2.700000e-07	-6.854000e-06	-5.194206e-09	-4.923968e+01	-3.408805e+02
2.800000e-07	-6.777037e-06	-5.165338e-09	-4.868677e+01	-3.392938e+02
2.900000e-07	-6.697251e-06	-5.127774e-09	-4.811358e+01	-3.376406e+02
3.000000e-07	-6.614910e-06	-5.142203e-09	-4.752204e+01	-3.359214e+02
3.100000e-07	-6.530367e-06	-5.119804e-09	-4.691467e+01	-3.341373e+02
3.200000e-07	-6.443628e-06	-5.054919e-09	-4.629153e+01	-3.322900e+02
3.300000e-07	-6.354585e-06	-5.047975e-09	-4.565184e+01	-3.303808e+02
3.400000e-07	-6.263244e-06	-5.014305e-09	-4.499564e+01	-3.284106e+02
3.500000e-07	-6.169688e-06	-4.971988e-09	-4.432353e+01	-3.263794e+02
3.600000e-07	-6.073881e-06	-4.936197e-09	-4.363524e+01	-3.242856e+02
3.700000e-07	-5.975774e-06	-4.925124e-09	-4.293044e+01	-3.221262e+02
3.800000e-07	-5.875455e-06	-4.892888e-09	-4.220974e+01	-3.198970e+02
3.900000e-07	-5.773093e-06	-4.837169e-09	-4.147436e+01	-3.175925e+02
4.000000e-07	-5.668693e-06	-4.804873e-09	-4.072434e+01	-3.152072e+02
4.100000e-07	-5.562335e-06	-4.770211e-09	-3.996025e+01	-3.127356e+02
4.200000e-07	-5.454010e-06	-4.731071e-09	-3.918204e+01	-3.101731e+02
4.300000e-07	-5.343754e-06	-4.675704e-09	-3.838995e+01	-3.075167e+02
4.400000e-07	-5.231565e-06	-4.643325e-09	-3.758398e+01	-3.047651e+02
4.500000e-07	-5.117266e-06	-4.610370e-09	-3.676284e+01	-3.019188e+02
4.600000e-07	-5.000983e-06	-4.561337e-09	-3.592746e+01	-2.989794e+02
4.700000e-07	-4.882899e-06	-4.511711e-09	-3.507913e+01	-2.959495e+02
4.800000e-07	-4.762961e-06	-4.467012e-09	-3.421749e+01	-2.928316e+02
4.900000e-07	-4.641214e-06	-4.416989e-09	-3.334285e+01	-2.896272e+02
5.000000e-07	-4.517846e-06	-4.357208e-09	-3.245656e+01	-2.863358e+02
5.100000e-07	-4.392834e-06	-4.306878e-09	-3.155847e+01	-2.829549e+02
5.200000e-07	-4.266202e-06	-4.255139e-09	-3.064873e+01	-2.794793e+02
5.300000e-07	-4.138006e-06	-4.197824e-09	-2.972776e+01	-2.759013e+02
5.400000e-07	-4.008335e-06	-4.135463e-09	-2.879619e+01	-2.722116e+02
5.500000e-07	-3.877196e-06	-4.077463e-09	-2.785409e+01	-2.683999e+02
5.600000e-07	-3.744527e-06	-4.020054e-09	-2.690098e+01	-2.644562e+02
5.700000e-07	-3.610458e-06	-3.959727e-09	-2.593782e+01	-2.603717e+02
5.800000e-07	-3.475059e-06	-3.900219e-09	-2.496510e+01	-2.561401e+02
5.900000e-07	-3.338293e-06	-3.834263e-09	-2.398256e+01	-2.517578e+02
6.000000e-07	-3.200169e-06	-3.763676e-09	-2.299027e+01	-2.472243e+02
6.100000e-07	-3.060759e-06	-3.688161e-09	-2.198873e+01	-2.425419e+02
6.200000e-07	-2.920021e-06	-3.612039e-09	-2.097766e+01	-2.377145e+02
6.300000e-07	-2.777990e-06	-3.534589e-09	-1.995730e+01	-2.327464e+02
6.400000e-07	-2.634889e-06	-3.456009e-09	-1.892925e+01	-2.276412e+02
6.500000e-07	-2.490824e-06	-3.378012e-09	-1.789428e+01	-2.223999e+02
6.600000e-07	-2.345868e-06	-3.295211e-09	-1.685290e+01	-2.170200e+02
6.700000e-07	-2.200072e-06	-3.210236e-09	-1.580549e+01	-2.114945e+02
6.800000e-07	-2.053526e-06	-3.126269e-09	-1.475269e+01	-2.058123e+02
6.900000e-07	-1.906395e-06	-3.040519e-09	-1.369569e+01	-1.999581e+02
7.000000e-07	-1.758720e-06	-2.946917e-09	-1.263478e+01	-1.939142e+02
7.100000e-07	-1.610474e-06	-2.847211e-09	-1.156977e+01	-1.876616e+02
7.200000e-07	-1.461745e-06	-2.744981e-09	-1.050129e+01	-1.811821e+02
7.300000e-07	-1.312618e-06	-2.639468e-09	-9.429952e+00	-1.744600e+02
7.400000e-07	-1.163083e-06	-2.530264e-09	-8.355679e+00	-1.674832e+02
7.500000e-07	-1.013173e-06	-2.424055e-09	-7.278713e+00	-1.602444e+02
7.600000e-07	-8.628794e-07	-2.319338e-09	-6.198994e+00	-1.527403e+02
7.700000e-07	-7.122657e-07	-2.203296e-09	-5.116973e+00	-1.449715e+02
7.800000e-07	-5.614337e-07	-2.078926e-09	-4.033384e+00	-1.369401e+02
7.900000e-07	-4.103949e-07	-1.951217e-09	-2.948310e+00	-1.286477e+02
8.000000e-07	-2.592046e-07	-1.818408e-09	-1.862146e+00	-1.200930e+02
8.100000e-07	-1.078814e-07	-1.678077e-09	-7.750288e-01	-1.112696e+02
8.200000e-07	4.359909e-08	-1.534268e-09	3.132193e-01	-1.021641e+02
8.300000e-07	1.950746e-07	-1.389731e-09	1.401431e+00	-9.275538e+01
8.400000e-07	3.464720e-07	-1.241424e-09	2.489082e+00	-8.301544e+01
8.500000e-07	4.978054e-07	-1.087386e-09	3.576273e+00	-7.291095e+01
8.600000e-07	6.490035e-07	-9.270871e-10	4.662493e+00	-6.240649e+01
8.700000e-07	7.999654e-07	-7.606380e-10	5.747015e+00	-5.146871e+01
8.800000e-07	9.506385e-07	-5.858687e-10	6.829462e+00	-4.007114e+01
8.900000e-07	1.101000e-06	-4.074879e-10	7.909672e+00	-2.819903e+01
9.000000e-07	1.250954e-06	-2.231669e-10	8.986955e+00	-1.585381e+01
9.100000e-07	1.400497e-06	-3.104796e-11	1.006128e+01	-3.056488e+00
9.200000e-07	1.549616e-06	1.703337e-10	1.113257e+01	1.015045e+01
9.300000e-07	1.698232e-06	3.783099e-10	1.220023e+01	2.370291e+01
9.400000e-07	1.846236e-06	5.860131e-10	1.326350e+01	3.751700e+01
9.500000e-07	1.993555e-06	7.968490e-10	1.432185e+01	5.149266e+01
9.600000e-07	2.140169e-06	1.009875e-09	1.537515e+01	6.551874e+01
9.700000e-07	2.285992e-06	1.220591e-09	1.642275e+01	7.947920e+01
9.800000e-07	2.430911e-06	1.429546e-09	1.746386e+01	9.325964e+01
9.900000e-07	2.574920e-06	1.636650e-09	1.849843e+01	1.067537e+02
1.000000e-06	2.717981e-06	1.837810e-09	1.952619e+01	1.198683e+02
1.010000e-06	2.859956e-06	2.029582e-09	2.054615e+01	1.325284e+02
1.020000e-06	3.000752e-06	2.209699e-09	2.155764e+01	1.446788e+02
1.030000e-06	3.140324e-06	2.382641e-09	2.256034e+01	1.562851e+02
1.040000e-06	3.278632e-06	2.549969e-09	2.355395e+01	1.673326e+02
1.050000e-06	3.415652e-06	2.708385e-09	2.453831e+01	1.778239e+02
1.060000e-06	3.551347e-06	2.858479e-09	2.551316e+01	1.877747e+02
1.070000e-06	3.685702e-06	3.001232e-09	2.647837e+01	1.972100e+02
1.080000e-06	3.818819e-06	3.138782e-09	2.743470e+01	2.061599e+02
1.090000e-06	3.950579e-06	3.268857e-09	2.838127e+01	2.146555e+02
1.100000e-06	4.080828e-06	3.393119e-09	2.931699e+01	2.227260e+02
1.110000e-06	4.209644e-06	3.514308e-09	3.024242e+01	2.303972e+02
1.120000e-06	4.336983e-06	3.628835e-09	3.115723e+01	2.376903e+02
1.130000e-06	4.462836e-06	3.734594e-09	3.206136e+01	2.446224e+02
1.140000e-06	4.587245e-06	3.830985e-09	3.295513e+01	2.512079e+02
1.150000e-06	4.710037e-06	3.923714e-09	3.383728e+01	2.574595e+02
1.160000e-06	4.831133e-06	4.011941e-09	3.470724e+01	2.633905e+02
1.170000e-06	4.950520e-06	4.094260e-09	3.556493e+01	2.690157e+02
1.180000e-06	5.068083e-06	4.173710e-09	3.640951e+01	2.743529e+02
1.190000e-06	5.183694e-06	4.251866e-09	3.724007e+01	2.794223e+02
1.200000e-06	5.297274e-06	4.328687e-09	3.805603e+01	2.842469e+02
1.210000e-06	5.408820e-06	4.401716e-09	3.885739e+01	2.888505e+02
1.220000e-06	5.518473e-06	4.468805e-09	3.964514e+01	2.932569e+02
1.230000e-06	5.626312e-06	4.532503e-09	4.041987e+01	2.974872e+02
1.240000e-06	5.732112e-06	4.594651e-09	4.117994e+01	3.015590e+02
1.250000e-06	5.835707e-06	4.654539e-09	4.192418e+01	3.054847e+02
1.260000e-06	5.937137e-06	4.711455e-09	4.265286e+01	3.092708e+02
1.270000e-06	6.036341e-06	4.762078e-09	4.336555e+01	3.129184e+02
1.280000e-06	6.133272e-06	4.810369e-09	4.406191e+01	3.164237e+02
1.290000e-06	6.227967e-06	4.860922e-09	4.474220e+01	3.197792e+02
1.300000e-06	6.320467e-06	4.912518e-09	4.540674e+01	3.229762e+02
1.310000e-06	6.410726e-06	4.960003e-09	4.605516e+01	3.260060e+02
1.320000e-06	6.498596e-06	5.001702e-09	4.668643e+01	3.288621e+02
1.330000e-06	6.584155e-06	5.040219e-09	4.730109e+01	3.315416e+02
1.340000e-06	6.667474e-06	5.075325e-09	4.789966e+01	3.340461e+02
1.350000e-06	6.748433e-06	5.108668e-09	4.848128e+01	3.363815e+02
1.360000e-06	6.826919e-06	5.140504e-09	4.904512e+01	3.385581e+02
1.370000e-06	6.902902e-06	5.169962e-09	4.959099e+01	3.405888e+02
1.380000e-06	6.976252e-06	5.197929e-09	5.011795e+01	3.424883e+02
1.390000e-06	7.047037e-06	5.225336e-09	5.062647e+01	3.442712e+02
1.400000e-06	7.115384e-06	5.255311e-09	5.111748e+01	3.459507e+02
1.410000e-06	7.181158e-06	5.283921e-09	5.159001e+01	3.475371e+02
1.420000e-06	7.244357e-06	5.306909e-09	5.204403e+01	3.490374e+02
1.430000e-06	7.305071e-06	5.325567e-09	5.248020e+01	3.504554e+02
1.440000e-06	7.363242e-06	5.341729e-09	5.289811e+01	3.517913e+02
1.450000e-06	7.418797e-06	5.357888e-09	5.329723e+01	3.530438e+02
1.460000e-06	7.471544e-06	5.374299e-09	5.367617e+01	3.542099e+02
1.470000e-06	7.521201e-06	5.389756e-09	5.403291e+01	3.552873e+02
1.480000e-06	7.567934e-06	5.404238e-09	5.436864e+01	3.562747e+02
1.490000e-06	7.612098e-06	5.418084e-09	5.468591e+01	3.571729e+02
1.500000e-06	7.653524e-06	5.432055e-09	5.498352e+01	3.579853e+02
1.510000e-06	7.692133e-06	5.446573e-09	5.526089e+01	3.587172e+02
1.520000e-06	7.728155e-06	5.459102e-09	5.551968e+01	3.593761e+02
1.530000e-06	7.761418e-06	5.468254e-09	5.575864e+01	3.599697e+02
1.540000e-06	7.791862e-06	5.475041e-09	5.597735e+01	3.605060e+02
1.550000e-06	7.819670e-06	5.480325e-09	5.617713e+01	3.609912e+02
1.560000e-06	7.844605e-06	5.486844e-09	5.635626e+01	3.614296e+02
1.570000e-06	7.866623e-06	5.495009e-09	5.651444e+01	3.618223e+02
1.580000e-06	7.885965e-06	5.501013e-09	5.665340e+01	3.621681e+02
1.590000e-06	7.902472e-06	5.504143e-09	5.677198e+01	3.624631e+02
1.600000e-06	7.915965e-06	5.507005e-09	5.686892e+01	3.627015e+02
1.610000e-06	7.926354e-06	5.511215e-09	5.694355e+01	3.628771e+02
1.620000e-06	7.933684e-06	5.514768e-09	5.699621e+01	3.629842e+02
1.630000e-06	7.938250e-06	5.515979e-09	5.702901e+01	3.630187e+02
1.640000e-06	7.939988e-06	5.516334e-09	5.704150e+01	3.629788e+02
1.650000e-06	7.938891e-06	5.516609e-09	5.703362e+01	3.628660e+02
1.660000e-06	7.935243e-06	5.506840e-09	5.700742e+01	3.626844e+02
1.670000e-06	7.928927e-06	5.502546e-09	5.696204e+01	3.624409e+02
1.680000e-06	7.919929e-06	5.501285e-09	5.689740e+01	3.621442e+02
1.690000e-06	7.908264e-06	5.498682e-09	5.681359e+01	3.618036e+02
1.700000e-06	7.893783e-06	5.497747e-09	5.670956e+01	3.614280e+02
1.710000e-06	7.876779e-06	5.500080e-09	5.658740e+01	3.610249e+02
1.720000e-06	7.857600e-06	5.505435e-09	5.644962e+01	3.605991e+02
1.730000e-06	7.835978e-06	5.431814e-09	5.629429e+01	3.601526e+02
1.740000e-06	7.811192e-06	5.383306e-09	5.611622e+01	3.596843e+02
1.750000e-06	7.782739e-06	5.442572e-09	5.591181e+01	3.591902e+02
1.760000e-06	7.750926e-06	5.446978e-09	5.568327e+01	3.586643e+02
1.770000e-06	7.716540e-06	5.415805e-09	5.543623e+01	3.580991e+02
1.780000e-06	7.679869e-06	5.466635e-09	5.517278e+01	3.574868e+02
1.790000e-06	7.640979e-06	5.504112e-09	5.489340e+01	3.568201e+02
1.800000e-06	7.600002e-06	5.348788e-09	5.459902e+01	3.560929e+02
1.810000e-06	7.556619e-06	5.409431e-09	5.428735e+01	3.553011e+02
1.820000e-06	7.510671e-06	5.410859e-09	5.395725e+01	3.544420e+02
1.830000e-06	7.462038e-06	5.341568e-09	5.360787e+01	3.535152e+02
1.840000e-06	7.410359e-06	5.452714e-09	5.323661e+01	3.525211e+02
1.850000e-06	7.355733e-06	5.338281e-09	5.284417e+01	3.514614e+02
1.860000e-06	7.298359e-06	5.393637e-09	5.243199e+01	3.503377e+02
1.870000e-06	7.238426e-06	5.342127e-09	5.200143e+01	3.491513e+02
1.880000e-06	7.175880e-06	5.272388e-09	5.155209e+01	3.479030e+02
1.890000e-06	7.110505e-06	5.343214e-09	5.108243e+01	3.465929e+02
1.900000e-06	7.042334e-06	5.228991e-09	5.059268e+01	3.452200e+02
1.910000e-06	6.971369e-06	5.264306e-09	5.008286e+01	3.437833e+02
1.920000e-06	6.897776e-06	5.236345e-09	4.955417e+01	3.422814e+02
1.930000e-06	6.821475e-06	5.241998e-09	4.900601e+01	3.407134e+02
1.940000e-06	6.742461e-06	5.202991e-09	4.843837e+01	3.390788e+02
1.950000e-06	6.661019e-06	5.110066e-09	4.785329e+01	3.373780e+02
1.960000e-06	6.577113e-06	5.151730e-09	4.725050e+01	3.356119e+02
1.970000e-06	6.490728e-06	5.066890e-09	4.662990e+01	3.337821e+02
1.980000e-06	6.401951e-06	5.069657e-09	4.599212e+01	3.318901e+02
1.990000e-06	6.311010e-06	5.049888e-09	4.533879e+01	3.299369e+02
2.000000e-06	6.217846e-06	5.030422e-09	4.466949e+01	3.279228e+02
2.010000e-06	6.122328e-06	4.977734e-09	4.398329e+01	3.258468e+02
2.020000e-06	6.024663e-06	4.921573e-09	4.328165e+01	3.237061e+02
2.030000e-06	5.924919e-06	4.925885e-09	4.256508e+01	3.214970e+02
2.040000e-06	5.823035e-06	4.883475e-09	4.183315e+01	3.192142e+02
2.050000e-06	5.719023e-06	4.856723e-09	4.108591e+01	3.168522e+02
2.060000e-06	5.613102e-06	4.798563e-09	4.032497e+01	3.144053e+02
2.070000e-06	5.505311e-06	4.774723e-09	3.955059e+01	3.118688e+02
2.080000e-06	5.395571e-06	4.717773e-09	3.876221e+01	3.092391e+02
2.090000e-06	5.283830e-06	4.674769e-09	3.795945e+01	3.065143e+02
2.100000e-06	5.170159e-06	4.638238e-09	3.714283e+01	3.036946e+02
2.110000e-06	5.054506e-06	4.597962e-09	3.631197e+01	3.007811e+02
2.120000e-06	4.936723e-06	4.551478e-09	3.546581e+01	2.977765e+02
2.130000e-06	4.816986e-06	4.507164e-09	3.460561e+01	2.946831e+02
2.140000e-06	4.695516e-06	4.472823e-09	3.373296e+01	2.915029e+02
2.150000e-06	4.572453e-06	4.415088e-09	3.284887e+01	2.882362e+02
2.160000e-06	4.447699e-06	4.359183e-09	3.195262e+01	2.848809e+02
2.170000e-06	4.321290e-06	4.296858e-09	3.104449e+01	2.814326e+02
2.180000e-06	4.193302e-06	4.251476e-09	3.012501e+01	2.778844e+02
2.190000e-06	4.063798e-06	4.198589e-09	2.919465e+01	2.742273e+02
2.200000e-06	3.932864e-06	4.149346e-09	2.825401e+01	2.704511e+02
2.210000e-06	3.800418e-06	4.086354e-09	2.730250e+01	2.665457e+02
2.220000e-06	3.666487e-06	4.019384e-09	2.634033e+01	2.625018e+02
2.230000e-06	3.531218e-06	3.950954e-09	2.536855e+01	2.583123e+02
2.240000e-06	3.394609e-06	3.886483e-09	2.438714e+01	2.539729e+02
2.250000e-06	3.256732e-06	3.821881e-09	2.339662e+01	2.494821e+02
2.260000e-06	3.117687e-06	3.750006e-09	2.239771e+01	2.448415e+02
2.270000e-06	2.977330e-06	3.676702e-09	2.138938e+01	2.400547e+02
2.280000e-06	2.835701e-06	3.599908e-09	2.037190e+01	2.351260e+02
2.290000e-06	2.693047e-06	3.525126e-09	1.934706e+01	2.300593e+02
2.300000e-06	2.549515e-06	3.446777e-09	1.831592e+01	2.248566e+02
2.310000e-06	2.405027e-06	3.370133e-09	1.727790e+01	2.195164e+02
2.320000e-06	2.259659e-06	3.285735e-09	1.623357e+01	2.140331e+02
2.330000e-06	2.113628e-06	3.196135e-09	1.518447e+01	2.083967e+02
2.340000e-06	1.966938e-06	3.106014e-09	1.413064e+01	2.025930e+02
2.350000e-06	1.819501e-06	3.016376e-09	1.307144e+01	1.966048e+02
2.360000e-06	1.671451e-06	2.921996e-09	1.200784e+01	1.904134e+02
2.370000e-06	1.522934e-06	2.821664e-09	1.094088e+01	1.840001e+02
2.380000e-06	1.373938e-06	2.720620e-09	9.870482e+00	1.773483e+02
2.390000e-06	1.224456e-06	2.616469e-09	8.796588e+00	1.704449e+02
2.400000e-06	1.074541e-06	2.506240e-09	7.719588e+00	1.632810e+02
2.410000e-06	9.242788e-07	2.392799e-09	6.640092e+00	1.558524e+02
2.420000e-06	7.737249e-07	2.275806e-09	5.558501e+00	1.481587e+02
2.430000e-06	6.229349e-07	2.154190e-09	4.475214e+00	1.402017e+02
2.440000e-06	4.719499e-07	2.030542e-09	3.390526e+00	1.319834e+02
2.450000e-06	3.208067e-07	1.906846e-09	2.304701e+00	1.235037e+02
2.460000e-06	1.695121e-07	1.778785e-09	1.217788e+00	1.147577e+02
2.470000e-06	1.811335e-08	1.640465e-09	1.301278e-01	1.057342e+02
2.480000e-06	-1.332887e-07	1.495856e-09	-9.575563e-01	9.641435e+01
2.490000e-06	-2.846633e-07	1.347985e-09	-2.045044e+00	8.677188e+01
2.500000e-06	-4.359688e-07	1.194015e-09	-3.132035e+00	7.677475e+01
2.510000e-06	-5.871274e-07	1.034722e-09	-4.217970e+00	6.638776e+01
2.520000e-06	-7.381173e-07	8.720144e-10	-5.302693e+00	5.557650e+01
2.530000e-06	-8.888739e-07	7.029216e-10	-6.385740e+00	4.431203e+01
2.540000e-06	-1.039343e-06	5.240237e-10	-7.466722e+00	3.257575e+01
2.550000e-06	-1.189452e-06	3.375132e-10	-8.545116e+00	2.036408e+01
2.560000e-06	-1.339129e-06	1.451341e-10	-9.620408e+00	7.692168e+00
2.570000e-06	-1.488349e-06	-5.484327e-11	-1.069242e+01	-5.403736e+00
2.580000e-06	-1.637050e-06	-2.620730e-10	-1.176070e+01	-1.886561e+01
2.590000e-06	-1.785176e-06	-4.734330e-10	-1.282484e+01	-3.261492e+01
2.600000e-06	-1.932574e-06	-6.875705e-10	-1.388377e+01	-4.655576e+01
2.610000e-06	-2.079164e-06	-9.043686e-10	-1.493688e+01	-6.057957e+01
2.620000e-06	-2.225015e-06	-1.120776e-09	-1.598469e+01	-7.457103e+01
2.630000e-06	-2.370146e-06	-1.334573e-09	-1.702732e+01	-8.841462e+01
2.640000e-06	-2.514416e-06	-1.544269e-09	-1.806377e+01	-1.020010e+02
2.650000e-06	-2.657639e-06	-1.748910e-09	-1.909269e+01	-1.152330e+02
2.660000e-06	-2.799763e-06	-1.946006e-09	-2.011372e+01	-1.280299e+02
2.670000e-06	-2.940770e-06	-2.133634e-09	-2.112673e+01	-1.403307e+02
2.680000e-06	-3.080541e-06	-2.312753e-09	-2.213085e+01	-1.520951e+02
2.690000e-06	-3.219039e-06	-2.482694e-09	-2.312583e+01	-1.633031e+02
2.700000e-06	-3.356375e-06	-2.643463e-09	-2.411247e+01	-1.739526e+02
2.710000e-06	-3.492498e-06	-2.796421e-09	-2.509038e+01	-1.840560e+02
2.720000e-06	-3.627283e-06	-2.942253e-09	-2.605869e+01	-1.936361e+02
2.730000e-06	-3.760818e-06	-3.079832e-09	-2.701801e+01	-2.027219e+02
2.740000e-06	-3.893056e-06	-3.213528e-09	-2.796802e+01	-2.113445e+02
2.750000e-06	-4.023822e-06	-3.343908e-09	-2.890746e+01	-2.195340e+02
2.760000e-06	-4.153236e-06	-3.465161e-09	-2.983718e+01	-2.273173e+02
2.770000e-06	-4.281265e-06	-3.578057e-09	-3.075695e+01	-2.347169e+02
2.780000e-06	-4.407719e-06	-3.685400e-09	-3.166540e+01	-2.417510e+02
2.790000e-06	-4.532728e-06	-3.788229e-09	-3.256348e+01	-2.484346e+02
2.800000e-06	-4.656176e-06	-3.882924e-09	-3.345033e+01	-2.547807e+02
2.810000e-06	-4.777906e-06	-3.971184e-09	-3.432485e+01	-2.608022e+02
2.820000e-06	-4.897876e-06	-4.057278e-09	-3.518673e+01	-2.665135e+02
2.830000e-06	-5.015923e-06	-4.140761e-09	-3.603479e+01	-2.719314e+02
2.840000e-06	-5.131984e-06	-4.221481e-09	-3.686858e+01	-2.770755e+02
2.850000e-06	-5.245935e-06	-4.297597e-09	-3.768721e+01	-2.819680e+02
2.860000e-06	-5.357805e-06	-4.370891e-09	-3.849089e+01	-2.866327e+02
2.870000e-06	-5.467651e-06	-4.441471e-09	-3.928004e+01	-2.910935e+02
2.880000e-06	-5.575565e-06	-4.506842e-09	-4.005530e+01	-2.953725e+02
2.890000e-06	-5.681661e-06	-4.569367e-09	-4.081750e+01	-2.994885e+02
2.900000e-06	-5.785723e-06	-4.630389e-09	-4.156509e+01	-3.034553e+02
2.910000e-06	-5.887590e-06	-4.689975e-09	-4.229692e+01	-3.072814e+02
2.920000e-06	-5.987250e-06	-4.747460e-09	-4.301288e+01	-3.109692e+02
2.930000e-06	-6.084781e-06	-4.802243e-09	-4.371355e+01	-3.145161e+02
2.940000e-06	-6.180180e-06	-4.856436e-09	-4.439890e+01	-3.179157e+02
