# Temperatura_=_47.01
# Concentracion g/m^3_=_5000.0
# C_Vs_to_Am_M_A/Vsm_=_65563218390.804596
# pendiente_HvsI_1/m_=_3716.3
# ordenada_HvsI_A/m_=_1297.0
# frecuencia_Hz_=_302506.67943494295

Tiempo_(s)	Campo_(V.s)	Magnetizacion_(V.s)	Campo_(kA/m)	Magnetizacion_(A/m)
0.000000e+00	-7.988168e-06	-5.862205e-09	-5.685850e+01	-3.832377e+02
1.000000e-08	-7.983451e-06	-5.858767e-09	-5.682492e+01	-3.829847e+02
2.000000e-08	-7.976132e-06	-5.853546e-09	-5.677282e+01	-3.826678e+02
3.000000e-08	-7.966076e-06	-5.850088e-09	-5.670125e+01	-3.822956e+02
4.000000e-08	-7.953141e-06	-5.844850e-09	-5.660918e+01	-3.818766e+02
5.000000e-08	-7.937258e-06	-5.837903e-09	-5.649613e+01	-3.814182e+02
6.000000e-08	-7.918727e-06	-5.830910e-09	-5.636423e+01	-3.809260e+02
7.000000e-08	-7.897922e-06	-5.830081e-09	-5.621614e+01	-3.804033e+02
8.000000e-08	-7.874485e-06	-5.849309e-09	-5.604932e+01	-3.798506e+02
9.000000e-08	-7.847829e-06	-5.849700e-09	-5.585959e+01	-3.792660e+02
1.000000e-07	-7.818019e-06	-5.814025e-09	-5.564741e+01	-3.786457e+02
1.100000e-07	-7.785448e-06	-5.787140e-09	-5.541557e+01	-3.779843e+02
1.200000e-07	-7.750189e-06	-5.774120e-09	-5.516460e+01	-3.772759e+02
1.300000e-07	-7.712394e-06	-5.756804e-09	-5.489558e+01	-3.765144e+02
1.400000e-07	-7.672462e-06	-5.721737e-09	-5.461136e+01	-3.756943e+02
1.500000e-07	-7.630342e-06	-5.711214e-09	-5.431155e+01	-3.748110e+02
1.600000e-07	-7.585530e-06	-5.711971e-09	-5.399259e+01	-3.738609e+02
1.700000e-07	-7.537938e-06	-5.679850e-09	-5.365384e+01	-3.728412e+02
1.800000e-07	-7.487475e-06	-5.677585e-09	-5.329465e+01	-3.717496e+02
1.900000e-07	-7.433953e-06	-5.669898e-09	-5.291368e+01	-3.705843e+02
2.000000e-07	-7.377638e-06	-5.637189e-09	-5.251284e+01	-3.693437e+02
2.100000e-07	-7.318664e-06	-5.628873e-09	-5.209307e+01	-3.680259e+02
2.200000e-07	-7.257072e-06	-5.601449e-09	-5.165468e+01	-3.666290e+02
2.300000e-07	-7.192828e-06	-5.561917e-09	-5.119740e+01	-3.651514e+02
2.400000e-07	-7.125812e-06	-5.535598e-09	-5.072038e+01	-3.635914e+02
2.500000e-07	-7.056101e-06	-5.518402e-09	-5.022419e+01	-3.619484e+02
2.600000e-07	-6.983689e-06	-5.489610e-09	-4.970878e+01	-3.602225e+02
2.700000e-07	-6.908475e-06	-5.460449e-09	-4.917342e+01	-3.584152e+02
2.800000e-07	-6.830394e-06	-5.434145e-09	-4.861765e+01	-3.565292e+02
2.900000e-07	-6.749533e-06	-5.399982e-09	-4.804210e+01	-3.545681e+02
3.000000e-07	-6.666254e-06	-5.381783e-09	-4.744933e+01	-3.525363e+02
3.100000e-07	-6.580796e-06	-5.352125e-09	-4.684105e+01	-3.504380e+02
3.200000e-07	-6.493014e-06	-5.313048e-09	-4.621623e+01	-3.482770e+02
3.300000e-07	-6.402802e-06	-5.282531e-09	-4.557412e+01	-3.460556e+02
3.400000e-07	-6.310298e-06	-5.248925e-09	-4.491569e+01	-3.437743e+02
3.500000e-07	-6.215578e-06	-5.209340e-09	-4.424148e+01	-3.414315e+02
3.600000e-07	-6.118568e-06	-5.173430e-09	-4.355099e+01	-3.390234e+02
3.700000e-07	-6.019292e-06	-5.141868e-09	-4.284436e+01	-3.365446e+02
3.800000e-07	-5.917865e-06	-5.102007e-09	-4.212241e+01	-3.339884e+02
3.900000e-07	-5.814339e-06	-5.061752e-09	-4.138553e+01	-3.313477e+02
4.000000e-07	-5.708728e-06	-5.016208e-09	-4.063381e+01	-3.286163e+02
4.100000e-07	-5.601152e-06	-4.969895e-09	-3.986810e+01	-3.257891e+02
4.200000e-07	-5.491649e-06	-4.924260e-09	-3.908868e+01	-3.228632e+02
4.300000e-07	-5.380166e-06	-4.873589e-09	-3.829516e+01	-3.198382e+02
4.400000e-07	-5.266620e-06	-4.825579e-09	-3.748696e+01	-3.167156e+02
4.500000e-07	-5.150932e-06	-4.779708e-09	-3.666351e+01	-3.134988e+02
4.600000e-07	-5.033275e-06	-4.731548e-09	-3.582605e+01	-3.101918e+02
4.700000e-07	-4.913844e-06	-4.679976e-09	-3.497595e+01	-3.067984e+02
4.800000e-07	-4.792640e-06	-4.629409e-09	-3.411324e+01	-3.033212e+02
4.900000e-07	-4.669705e-06	-4.572045e-09	-3.323821e+01	-2.997602e+02
5.000000e-07	-4.545116e-06	-4.507707e-09	-3.235141e+01	-2.961127e+02
5.100000e-07	-4.418923e-06	-4.446766e-09	-3.145318e+01	-2.923726e+02
5.200000e-07	-4.291040e-06	-4.388811e-09	-3.054293e+01	-2.885311e+02
5.300000e-07	-4.161516e-06	-4.327165e-09	-2.962100e+01	-2.845774e+02
5.400000e-07	-4.030537e-06	-4.261820e-09	-2.868872e+01	-2.804997e+02
5.500000e-07	-3.898006e-06	-4.196182e-09	-2.774538e+01	-2.762868e+02
5.600000e-07	-3.763946e-06	-4.130247e-09	-2.679116e+01	-2.719292e+02
5.700000e-07	-3.628469e-06	-4.059949e-09	-2.582686e+01	-2.674205e+02
5.800000e-07	-3.491561e-06	-3.989700e-09	-2.485237e+01	-2.627577e+02
5.900000e-07	-3.353204e-06	-3.920728e-09	-2.386757e+01	-2.579415e+02
6.000000e-07	-3.213529e-06	-3.845749e-09	-2.287338e+01	-2.529757e+02
6.100000e-07	-3.072568e-06	-3.763946e-09	-2.187005e+01	-2.478658e+02
6.200000e-07	-2.930266e-06	-3.681437e-09	-2.085716e+01	-2.426177e+02
6.300000e-07	-2.786768e-06	-3.600016e-09	-1.983577e+01	-2.372358e+02
6.400000e-07	-2.642214e-06	-3.514328e-09	-1.880685e+01	-2.317214e+02
6.500000e-07	-2.496736e-06	-3.426549e-09	-1.777136e+01	-2.260712e+02
6.600000e-07	-2.350483e-06	-3.338596e-09	-1.673036e+01	-2.202767e+02
6.700000e-07	-2.203439e-06	-3.248614e-09	-1.568373e+01	-2.143241e+02
6.800000e-07	-2.055608e-06	-3.156393e-09	-1.463149e+01	-2.081954e+02
6.900000e-07	-1.907214e-06	-3.060300e-09	-1.357524e+01	-2.018697e+02
7.000000e-07	-1.758243e-06	-2.957947e-09	-1.251489e+01	-1.953250e+02
7.100000e-07	-1.608677e-06	-2.850230e-09	-1.145030e+01	-1.885408e+02
7.200000e-07	-1.458606e-06	-2.741935e-09	-1.038212e+01	-1.815000e+02
7.300000e-07	-1.308049e-06	-2.631246e-09	-9.310482e+00	-1.741900e+02
7.400000e-07	-1.157023e-06	-2.516205e-09	-8.235505e+00	-1.666039e+02
7.500000e-07	-1.005578e-06	-2.398640e-09	-7.157539e+00	-1.587398e+02
7.600000e-07	-8.538071e-07	-2.279199e-09	-6.077262e+00	-1.505995e+02
7.700000e-07	-7.017197e-07	-2.154114e-09	-4.994728e+00	-1.421863e+02
7.800000e-07	-5.493605e-07	-2.022287e-09	-3.910260e+00	-1.335020e+02
7.900000e-07	-3.967752e-07	-1.885189e-09	-2.824182e+00	-1.245439e+02
8.000000e-07	-2.439850e-07	-1.739757e-09	-1.736646e+00	-1.153022e+02
8.100000e-07	-9.106266e-08	-1.587601e-09	-6.481694e-01	-1.057577e+02
8.200000e-07	6.192871e-08	-1.431361e-09	4.407986e-01	-9.588166e+01
8.300000e-07	2.149135e-07	-1.273115e-09	1.529720e+00	-8.563645e+01
8.400000e-07	3.677983e-07	-1.111817e-09	2.617929e+00	-7.497811e+01
8.500000e-07	5.205190e-07	-9.429218e-10	3.704970e+00	-6.386055e+01
8.600000e-07	6.730971e-07	-7.675683e-10	4.790997e+00	-5.224088e+01
8.700000e-07	8.255422e-07	-5.851901e-10	5.876077e+00	-4.008548e+01
8.800000e-07	9.777351e-07	-3.936519e-10	6.959362e+00	-2.737603e+01
8.900000e-07	1.129572e-06	-1.946801e-10	8.040110e+00	-1.411492e+01
9.000000e-07	1.281005e-06	1.415566e-11	9.117990e+00	-3.292418e-01
9.100000e-07	1.431992e-06	2.309908e-10	1.019269e+01	1.392712e+01
9.200000e-07	1.582418e-06	4.542572e-10	1.126340e+01	2.857372e+01
9.300000e-07	1.732212e-06	6.833847e-10	1.232960e+01	4.350617e+01
9.400000e-07	1.881389e-06	9.143388e-10	1.339143e+01	5.860101e+01
9.500000e-07	2.029879e-06	1.145197e-09	1.444835e+01	7.372241e+01
9.600000e-07	2.177622e-06	1.371992e-09	1.549997e+01	8.873009e+01
9.700000e-07	2.324604e-06	1.592945e-09	1.654616e+01	1.034876e+02
9.800000e-07	2.470734e-06	1.808475e-09	1.758629e+01	1.178703e+02
9.900000e-07	2.615946e-06	2.019211e-09	1.861988e+01	1.317721e+02
1.000000e-06	2.760206e-06	2.223086e-09	1.964670e+01	1.451104e+02
1.010000e-06	2.903426e-06	2.415972e-09	2.066612e+01	1.578289e+02
1.020000e-06	3.045443e-06	2.596291e-09	2.167697e+01	1.698979e+02
1.030000e-06	3.186164e-06	2.766651e-09	2.267860e+01	1.813125e+02
1.040000e-06	3.325670e-06	2.928610e-09	2.367158e+01	1.920887e+02
1.050000e-06	3.463852e-06	3.081811e-09	2.465514e+01	2.022586e+02
1.060000e-06	3.600637e-06	3.228677e-09	2.562875e+01	2.118641e+02
1.070000e-06	3.736090e-06	3.370532e-09	2.659289e+01	2.209515e+02
1.080000e-06	3.870209e-06	3.504435e-09	2.754753e+01	2.295663e+02
1.090000e-06	4.002950e-06	3.630887e-09	2.849236e+01	2.377492e+02
1.100000e-06	4.134257e-06	3.750077e-09	2.942698e+01	2.455340e+02
1.110000e-06	4.264061e-06	3.863951e-09	3.035090e+01	2.529463e+02
1.120000e-06	4.392395e-06	3.973039e-09	3.126436e+01	2.600042e+02
1.130000e-06	4.519238e-06	4.074513e-09	3.216721e+01	2.667204e+02
1.140000e-06	4.644505e-06	4.169078e-09	3.305884e+01	2.731045e+02
1.150000e-06	4.768198e-06	4.259888e-09	3.393927e+01	2.791653e+02
1.160000e-06	4.890202e-06	4.346333e-09	3.480767e+01	2.849137e+02
1.170000e-06	5.010474e-06	4.427766e-09	3.566375e+01	2.903643e+02
1.180000e-06	5.128961e-06	4.507146e-09	3.650712e+01	2.955360e+02
1.190000e-06	5.245529e-06	4.583992e-09	3.733684e+01	3.004519e+02
1.200000e-06	5.360062e-06	4.657227e-09	3.815206e+01	3.051382e+02
1.210000e-06	5.472496e-06	4.725758e-09	3.895235e+01	3.096222e+02
1.220000e-06	5.582952e-06	4.791372e-09	3.973855e+01	3.139301e+02
1.230000e-06	5.691464e-06	4.854515e-09	4.051093e+01	3.180846e+02
1.240000e-06	5.797963e-06	4.914429e-09	4.126897e+01	3.221031e+02
1.250000e-06	5.902318e-06	4.971764e-09	4.201175e+01	3.259965e+02
1.260000e-06	6.004435e-06	5.026614e-09	4.273860e+01	3.297684e+02
1.270000e-06	6.104334e-06	5.080314e-09	4.344967e+01	3.334164e+02
1.280000e-06	6.201922e-06	5.133097e-09	4.414428e+01	3.369324e+02
1.290000e-06	6.297174e-06	5.183606e-09	4.482227e+01	3.403055e+02
1.300000e-06	6.390192e-06	5.231305e-09	4.548436e+01	3.435238e+02
1.310000e-06	6.480964e-06	5.275942e-09	4.613046e+01	3.465766e+02
1.320000e-06	6.569396e-06	5.317812e-09	4.675991e+01	3.494568e+02
1.330000e-06	6.655540e-06	5.357121e-09	4.737307e+01	3.521617e+02
1.340000e-06	6.739399e-06	5.394197e-09	4.796996e+01	3.546939e+02
1.350000e-06	6.820860e-06	5.429466e-09	4.854979e+01	3.570610e+02
1.360000e-06	6.899814e-06	5.462008e-09	4.911177e+01	3.592747e+02
1.370000e-06	6.976120e-06	5.491964e-09	4.965490e+01	3.613494e+02
1.380000e-06	7.049692e-06	5.521534e-09	5.017857e+01	3.633004e+02
1.390000e-06	7.120710e-06	5.550849e-09	5.068407e+01	3.651419e+02
1.400000e-06	7.189355e-06	5.578388e-09	5.117268e+01	3.668861e+02
1.410000e-06	7.255451e-06	5.603558e-09	5.164313e+01	3.685414e+02
1.420000e-06	7.318958e-06	5.626820e-09	5.209517e+01	3.701126e+02
1.430000e-06	7.379987e-06	5.649025e-09	5.252956e+01	3.716009e+02
1.440000e-06	7.438398e-06	5.669547e-09	5.294532e+01	3.730044e+02
1.450000e-06	7.494114e-06	5.686800e-09	5.334190e+01	3.743197e+02
1.460000e-06	7.547042e-06	5.703217e-09	5.371863e+01	3.755430e+02
1.470000e-06	7.596919e-06	5.719613e-09	5.407365e+01	3.766713e+02
1.480000e-06	7.643812e-06	5.734685e-09	5.440743e+01	3.777035e+02
1.490000e-06	7.688032e-06	5.748672e-09	5.472218e+01	3.786413e+02
1.500000e-06	7.729530e-06	5.762212e-09	5.501755e+01	3.794888e+02
1.510000e-06	7.768234e-06	5.776491e-09	5.529304e+01	3.802524e+02
1.520000e-06	7.804280e-06	5.788658e-09	5.554961e+01	3.809401e+02
1.530000e-06	7.837583e-06	5.799180e-09	5.578666e+01	3.815602e+02
1.540000e-06	7.868074e-06	5.808497e-09	5.600369e+01	3.821202e+02
1.550000e-06	7.895846e-06	5.816617e-09	5.620137e+01	3.826256e+02
1.560000e-06	7.920659e-06	5.823900e-09	5.637798e+01	3.830796e+02
1.570000e-06	7.942519e-06	5.828784e-09	5.653357e+01	3.834823e+02
1.580000e-06	7.961613e-06	5.832033e-09	5.666948e+01	3.838311e+02
1.590000e-06	7.977805e-06	5.834531e-09	5.678473e+01	3.841212e+02
1.600000e-06	7.991011e-06	5.839369e-09	5.687874e+01	3.843464e+02
1.610000e-06	8.001093e-06	5.846949e-09	5.695049e+01	3.845005e+02
1.620000e-06	8.008130e-06	5.852830e-09	5.700059e+01	3.845783e+02
1.630000e-06	8.012423e-06	5.854108e-09	5.703114e+01	3.845764e+02
1.640000e-06	8.013878e-06	5.851965e-09	5.704150e+01	3.844941e+02
1.650000e-06	8.012490e-06	5.847195e-09	5.703162e+01	3.843336e+02
1.660000e-06	8.008469e-06	5.841002e-09	5.700300e+01	3.840998e+02
1.670000e-06	8.001775e-06	5.833891e-09	5.695535e+01	3.837999e+02
1.680000e-06	7.992437e-06	5.827545e-09	5.688888e+01	3.834421e+02
1.690000e-06	7.980362e-06	5.822848e-09	5.680294e+01	3.830350e+02
1.700000e-06	7.965479e-06	5.820453e-09	5.669700e+01	3.825867e+02
1.710000e-06	7.948085e-06	5.816549e-09	5.657319e+01	3.821032e+02
1.720000e-06	7.928426e-06	5.793106e-09	5.643326e+01	3.815885e+02
1.730000e-06	7.906142e-06	5.748329e-09	5.627465e+01	3.810440e+02
1.740000e-06	7.880532e-06	5.746543e-09	5.609236e+01	3.804683e+02
1.750000e-06	7.851246e-06	5.761574e-09	5.588391e+01	3.798582e+02
1.760000e-06	7.818716e-06	5.750775e-09	5.565237e+01	3.792086e+02
1.770000e-06	7.783751e-06	5.744199e-09	5.540349e+01	3.785137e+02
1.780000e-06	7.746467e-06	5.766627e-09	5.513811e+01	3.777675e+02
1.790000e-06	7.706949e-06	5.751748e-09	5.485682e+01	3.769641e+02
1.800000e-06	7.665371e-06	5.712231e-09	5.456088e+01	3.760988e+02
1.810000e-06	7.621317e-06	5.716381e-09	5.424731e+01	3.751676e+02
1.820000e-06	7.574589e-06	5.697994e-09	5.391471e+01	3.741675e+02
1.830000e-06	7.525049e-06	5.697987e-09	5.356209e+01	3.730961e+02
1.840000e-06	7.472463e-06	5.674322e-09	5.318779e+01	3.719516e+02
1.850000e-06	7.417018e-06	5.635422e-09	5.279314e+01	3.707321e+02
1.860000e-06	7.358851e-06	5.633702e-09	5.237912e+01	3.694361e+02
1.870000e-06	7.298084e-06	5.600603e-09	5.194659e+01	3.680615e+02
1.880000e-06	7.234616e-06	5.602771e-09	5.149483e+01	3.666065e+02
1.890000e-06	7.168299e-06	5.579757e-09	5.102280e+01	3.650697e+02
1.900000e-06	7.099195e-06	5.540042e-09	5.053093e+01	3.634499e+02
1.910000e-06	7.027276e-06	5.519891e-09	5.001902e+01	3.617471e+02
1.920000e-06	6.952697e-06	5.480358e-09	4.948818e+01	3.599623e+02
1.930000e-06	6.875394e-06	5.477017e-09	4.893795e+01	3.580980e+02
1.940000e-06	6.795380e-06	5.434698e-09	4.836842e+01	3.561574e+02
1.950000e-06	6.712854e-06	5.402865e-09	4.778102e+01	3.541448e+02
1.960000e-06	6.627859e-06	5.375978e-09	4.717604e+01	3.520646e+02
1.970000e-06	6.540417e-06	5.326943e-09	4.655364e+01	3.499207e+02
1.980000e-06	6.450573e-06	5.301974e-09	4.591414e+01	3.477158e+02
1.990000e-06	6.358515e-06	5.271872e-09	4.525889e+01	3.454512e+02
2.000000e-06	6.264234e-06	5.240357e-09	4.458781e+01	3.431258e+02
2.010000e-06	6.167647e-06	5.190012e-09	4.390032e+01	3.407364e+02
2.020000e-06	6.068844e-06	5.154048e-09	4.319706e+01	3.382779e+02
2.030000e-06	5.967906e-06	5.119968e-09	4.247860e+01	3.357440e+02
2.040000e-06	5.864790e-06	5.084316e-09	4.174464e+01	3.331276e+02
2.050000e-06	5.759590e-06	5.042152e-09	4.099584e+01	3.304222e+02
2.060000e-06	5.652491e-06	4.995083e-09	4.023352e+01	3.276222e+02
2.070000e-06	5.543496e-06	4.953907e-09	3.945771e+01	3.247242e+02
2.080000e-06	5.432536e-06	4.902397e-09	3.866792e+01	3.217269e+02
2.090000e-06	5.319428e-06	4.856356e-09	3.786283e+01	3.186314e+02
2.100000e-06	5.204303e-06	4.809699e-09	3.704339e+01	3.154406e+02
2.110000e-06	5.087255e-06	4.765801e-09	3.621027e+01	3.121584e+02
2.120000e-06	4.968218e-06	4.712107e-09	3.536298e+01	3.087889e+02
2.130000e-06	4.847302e-06	4.662174e-09	3.450232e+01	3.053350e+02
2.140000e-06	4.724601e-06	4.614678e-09	3.362895e+01	3.017976e+02
2.150000e-06	4.600157e-06	4.560440e-09	3.274318e+01	2.981748e+02
2.160000e-06	4.474018e-06	4.497697e-09	3.184534e+01	2.944614e+02
2.170000e-06	4.346311e-06	4.434256e-09	3.093634e+01	2.906494e+02
2.180000e-06	4.217016e-06	4.376829e-09	3.001604e+01	2.867284e+02
2.190000e-06	4.086171e-06	4.318075e-09	2.908471e+01	2.826868e+02
2.200000e-06	3.953877e-06	4.256864e-09	2.814306e+01	2.785131e+02
2.210000e-06	3.820103e-06	4.192303e-09	2.719088e+01	2.741971e+02
2.220000e-06	3.684834e-06	4.127216e-09	2.622806e+01	2.697315e+02
2.230000e-06	3.548133e-06	4.054307e-09	2.525504e+01	2.651123e+02
2.240000e-06	3.410030e-06	3.980629e-09	2.427204e+01	2.603392e+02
2.250000e-06	3.270645e-06	3.906953e-09	2.327993e+01	2.554151e+02
2.260000e-06	3.130029e-06	3.831222e-09	2.227905e+01	2.503452e+02
2.270000e-06	2.988110e-06	3.750131e-09	2.126888e+01	2.451355e+02
2.280000e-06	2.845025e-06	3.668907e-09	2.025043e+01	2.397911e+02
2.290000e-06	2.700922e-06	3.587988e-09	1.922473e+01	2.343141e+02
2.300000e-06	2.555866e-06	3.502500e-09	1.819224e+01	2.287028e+02
2.310000e-06	2.409927e-06	3.414276e-09	1.715347e+01	2.229502e+02
2.320000e-06	2.263267e-06	3.323013e-09	1.610957e+01	2.170440e+02
2.330000e-06	2.115842e-06	3.228988e-09	1.506023e+01	2.109671e+02
2.340000e-06	1.967561e-06	3.132569e-09	1.400479e+01	2.046994e+02
2.350000e-06	1.818615e-06	3.036977e-09	1.294461e+01	1.982190e+02
2.360000e-06	1.669179e-06	2.937417e-09	1.188095e+01	1.915047e+02
2.370000e-06	1.519297e-06	2.830144e-09	1.081411e+01	1.845381e+02
2.380000e-06	1.368881e-06	2.717922e-09	9.743478e+00	1.773055e+02
2.390000e-06	1.218004e-06	2.602329e-09	8.669555e+00	1.697982e+02
2.400000e-06	1.066726e-06	2.483939e-09	7.592787e+00	1.620129e+02
2.410000e-06	9.150486e-07	2.361765e-09	6.513169e+00	1.539507e+02
2.420000e-06	7.630814e-07	2.235753e-09	5.431491e+00	1.456147e+02
2.430000e-06	6.109026e-07	2.107078e-09	4.348307e+00	1.370073e+02
2.440000e-06	4.584886e-07	1.973579e-09	3.263449e+00	1.281276e+02
2.450000e-06	3.058701e-07	1.835862e-09	2.177135e+00	1.189679e+02
2.460000e-06	1.531464e-07	1.693746e-09	1.090072e+00	1.095119e+02
2.470000e-06	3.744557e-10	1.544933e-09	2.665316e-03	9.973356e+01
2.480000e-06	-1.523813e-07	1.389777e-09	-1.084626e+00	8.959760e+01
2.490000e-06	-3.051319e-07	1.229073e-09	-2.171880e+00	7.906148e+01
2.500000e-06	-4.578784e-07	1.060889e-09	-3.259105e+00	6.807923e+01
2.510000e-06	-6.105197e-07	8.849404e-10	-4.345581e+00	5.660646e+01
2.520000e-06	-7.629400e-07	7.010123e-10	-5.430484e+00	4.460626e+01
2.530000e-06	-9.151249e-07	5.094230e-10	-6.513712e+00	3.205535e+01
2.540000e-06	-1.067032e-06	3.122151e-10	-7.594963e+00	1.894971e+01
2.550000e-06	-1.218526e-06	1.051067e-10	-8.673270e+00	5.309089e+00
2.560000e-06	-1.369550e-06	-1.116825e-10	-9.748236e+00	-8.820380e+00
2.570000e-06	-1.520089e-06	-3.334611e-10	-1.081975e+01	-2.336568e+01
2.580000e-06	-1.670056e-06	-5.591250e-10	-1.188719e+01	-3.822884e+01
2.590000e-06	-1.819396e-06	-7.899057e-10	-1.295017e+01	-5.329126e+01
2.600000e-06	-1.968058e-06	-1.024254e-09	-1.400832e+01	-6.841986e+01
2.610000e-06	-2.115963e-06	-1.257261e-09	-1.506109e+01	-8.347479e+01
2.620000e-06	-2.263097e-06	-1.486533e-09	-1.610836e+01	-9.831767e+01
2.630000e-06	-2.409341e-06	-1.709639e-09	-1.714930e+01	-1.128197e+02
2.640000e-06	-2.554605e-06	-1.924424e-09	-1.818327e+01	-1.268690e+02
2.650000e-06	-2.698929e-06	-2.130290e-09	-1.921054e+01	-1.403757e+02
2.660000e-06	-2.842251e-06	-2.327783e-09	-2.023069e+01	-1.532760e+02
2.670000e-06	-2.984476e-06	-2.514765e-09	-2.124302e+01	-1.655326e+02
2.680000e-06	-3.125486e-06	-2.690639e-09	-2.224671e+01	-1.771338e+02
2.690000e-06	-3.265318e-06	-2.856368e-09	-2.324201e+01	-1.880903e+02
2.700000e-06	-3.403938e-06	-3.013761e-09	-2.422869e+01	-1.984300e+02
2.710000e-06	-3.541193e-06	-3.165188e-09	-2.520564e+01	-2.081926e+02
2.720000e-06	-3.677142e-06	-3.307738e-09	-2.617331e+01	-2.174238e+02
2.730000e-06	-3.811749e-06	-3.439472e-09	-2.713142e+01	-2.261697e+02
2.740000e-06	-3.944932e-06	-3.566039e-09	-2.807940e+01	-2.344728e+02
2.750000e-06	-4.076691e-06	-3.689400e-09	-2.901723e+01	-2.423689e+02
2.760000e-06	-4.207038e-06	-3.805159e-09	-2.994502e+01	-2.498859e+02
2.770000e-06	-4.335994e-06	-3.914568e-09	-3.086291e+01	-2.570441e+02
2.780000e-06	-4.463485e-06	-4.019020e-09	-3.177037e+01	-2.638574e+02
2.790000e-06	-4.589443e-06	-4.116691e-09	-3.266692e+01	-2.703360e+02
2.800000e-06	-4.713800e-06	-4.207020e-09	-3.355207e+01	-2.764887e+02
2.810000e-06	-4.836469e-06	-4.293365e-09	-3.442521e+01	-2.823256e+02
2.820000e-06	-4.957369e-06	-4.377472e-09	-3.528575e+01	-2.878601e+02
2.830000e-06	-5.076422e-06	-4.459045e-09	-3.613316e+01	-2.931098e+02
2.840000e-06	-5.193527e-06	-4.536245e-09	-3.696669e+01	-2.980967e+02
2.850000e-06	-5.308465e-06	-4.608449e-09	-3.778480e+01	-3.028463e+02
2.860000e-06	-5.421258e-06	-4.679539e-09	-3.858764e+01	-3.073859e+02
2.870000e-06	-5.531990e-06	-4.749165e-09	-3.937582e+01	-3.117421e+02
2.880000e-06	-5.640662e-06	-4.815152e-09	-4.014932e+01	-3.159389e+02
2.890000e-06	-5.747410e-06	-4.877935e-09	-4.090914e+01	-3.199954e+02
2.900000e-06	-5.852126e-06	-4.938418e-09	-4.165449e+01	-3.239243e+02
2.910000e-06	-5.954610e-06	-4.998054e-09	-4.238396e+01	-3.277315e+02
2.920000e-06	-6.054841e-06	-5.055947e-09	-4.309739e+01	-3.314160e+02
2.930000e-06	-6.152913e-06	-5.113317e-09	-4.379545e+01	-3.349712e+02
2.940000e-06	-6.248894e-06	-5.169737e-09	-4.447863e+01	-3.383869e+02
