# Temperatura_=_42.79
# Concentracion g/m^3_=_5000.0
# C_Vs_to_Am_M_A/Vsm_=_65563218390.804596
# pendiente_HvsI_1/m_=_3716.3
# ordenada_HvsI_A/m_=_1297.0
# frecuencia_Hz_=_302493.4933528638

Tiempo_(s)	Campo_(V.s)	Magnetizacion_(V.s)	Campo_(kA/m)	Magnetizacion_(A/m)
0.000000e+00	-7.944612e-06	-5.794583e-09	-5.687052e+01	-3.798428e+02
1.000000e-08	-7.940558e-06	-5.796399e-09	-5.684150e+01	-3.796339e+02
2.000000e-08	-7.933984e-06	-5.787175e-09	-5.679444e+01	-3.793664e+02
3.000000e-08	-7.924755e-06	-5.783630e-09	-5.672837e+01	-3.790487e+02
4.000000e-08	-7.912703e-06	-5.781026e-09	-5.664210e+01	-3.786892e+02
5.000000e-08	-7.897620e-06	-5.772964e-09	-5.653413e+01	-3.782948e+02
6.000000e-08	-7.879711e-06	-5.758607e-09	-5.640593e+01	-3.778700e+02
7.000000e-08	-7.859597e-06	-5.735710e-09	-5.626194e+01	-3.774167e+02
8.000000e-08	-7.837061e-06	-5.761761e-09	-5.610063e+01	-3.769335e+02
9.000000e-08	-7.811421e-06	-5.872894e-09	-5.591708e+01	-3.764166e+02
1.000000e-07	-7.782529e-06	-5.804353e-09	-5.571026e+01	-3.758604e+02
1.100000e-07	-7.750806e-06	-5.703136e-09	-5.548318e+01	-3.752581e+02
1.200000e-07	-7.716362e-06	-5.707985e-09	-5.523662e+01	-3.746028e+02
1.300000e-07	-7.679334e-06	-5.709222e-09	-5.497156e+01	-3.738886e+02
1.400000e-07	-7.640166e-06	-5.640412e-09	-5.469118e+01	-3.731112e+02
1.500000e-07	-7.598888e-06	-5.598326e-09	-5.439569e+01	-3.722681e+02
1.600000e-07	-7.555054e-06	-5.786946e-09	-5.408191e+01	-3.713590e+02
1.700000e-07	-7.508375e-06	-5.590454e-09	-5.374776e+01	-3.703848e+02
1.800000e-07	-7.458902e-06	-5.555273e-09	-5.339362e+01	-3.693476e+02
1.900000e-07	-7.406458e-06	-5.707733e-09	-5.301821e+01	-3.682498e+02
2.000000e-07	-7.351171e-06	-5.545789e-09	-5.262244e+01	-3.670930e+02
2.100000e-07	-7.293231e-06	-5.588023e-09	-5.220768e+01	-3.658779e+02
2.200000e-07	-7.232625e-06	-5.555162e-09	-5.177384e+01	-3.646034e+02
2.300000e-07	-7.169364e-06	-5.535025e-09	-5.132100e+01	-3.632672e+02
2.400000e-07	-7.103337e-06	-5.513476e-09	-5.084835e+01	-3.618654e+02
2.500000e-07	-7.034671e-06	-5.451903e-09	-5.035682e+01	-3.603935e+02
2.600000e-07	-6.963443e-06	-5.486770e-09	-4.984694e+01	-3.588469e+02
2.700000e-07	-6.889417e-06	-5.432504e-09	-4.931703e+01	-3.572218e+02
2.800000e-07	-6.812501e-06	-5.395450e-09	-4.876644e+01	-3.555155e+02
2.900000e-07	-6.732770e-06	-5.340133e-09	-4.819570e+01	-3.537274e+02
3.000000e-07	-6.650496e-06	-5.364772e-09	-4.760675e+01	-3.518582e+02
3.100000e-07	-6.566007e-06	-5.364776e-09	-4.700194e+01	-3.499106e+02
3.200000e-07	-6.479292e-06	-5.262249e-09	-4.638121e+01	-3.478882e+02
3.300000e-07	-6.390255e-06	-5.275459e-09	-4.574384e+01	-3.457949e+02
3.400000e-07	-6.298821e-06	-5.244884e-09	-4.508933e+01	-3.436343e+02
3.500000e-07	-6.205135e-06	-5.197877e-09	-4.441869e+01	-3.414084e+02
3.600000e-07	-6.109215e-06	-5.145007e-09	-4.373206e+01	-3.391178e+02
3.700000e-07	-6.011005e-06	-5.134065e-09	-4.302903e+01	-3.367607e+02
3.800000e-07	-5.910644e-06	-5.112770e-09	-4.231061e+01	-3.343336e+02
3.900000e-07	-5.808270e-06	-5.037567e-09	-4.157777e+01	-3.318314e+02
4.000000e-07	-5.703877e-06	-5.008892e-09	-4.083049e+01	-3.292481e+02
4.100000e-07	-5.597453e-06	-4.977242e-09	-4.006867e+01	-3.265776e+02
4.200000e-07	-5.489020e-06	-4.947464e-09	-3.929246e+01	-3.238150e+02
4.300000e-07	-5.378664e-06	-4.870535e-09	-3.850249e+01	-3.209564e+02
4.400000e-07	-5.266351e-06	-4.829724e-09	-3.769852e+01	-3.180002e+02
4.500000e-07	-5.151906e-06	-4.801457e-09	-3.687928e+01	-3.149465e+02
4.600000e-07	-5.035430e-06	-4.749898e-09	-3.604550e+01	-3.117969e+02
4.700000e-07	-4.917146e-06	-4.689678e-09	-3.519878e+01	-3.085539e+02
4.800000e-07	-4.797058e-06	-4.642658e-09	-3.433914e+01	-3.052199e+02
4.900000e-07	-4.675192e-06	-4.603036e-09	-3.346678e+01	-3.017961e+02
5.000000e-07	-4.551630e-06	-4.536962e-09	-3.258228e+01	-2.982818e+02
5.100000e-07	-4.426434e-06	-4.480966e-09	-3.168608e+01	-2.946738e+02
5.200000e-07	-4.299629e-06	-4.423966e-09	-3.077836e+01	-2.909659e+02
5.300000e-07	-4.171243e-06	-4.366856e-09	-2.985933e+01	-2.871497e+02
5.400000e-07	-4.041378e-06	-4.293617e-09	-2.892970e+01	-2.832151e+02
5.500000e-07	-3.909920e-06	-4.228422e-09	-2.798867e+01	-2.791511e+02
5.600000e-07	-3.776955e-06	-4.170711e-09	-2.703686e+01	-2.749476e+02
5.700000e-07	-3.642644e-06	-4.107190e-09	-2.607542e+01	-2.705961e+02
5.800000e-07	-3.506962e-06	-4.039170e-09	-2.510415e+01	-2.660907e+02
5.900000e-07	-3.369951e-06	-3.965902e-09	-2.412338e+01	-2.614291e+02
6.000000e-07	-3.231596e-06	-3.896074e-09	-2.313298e+01	-2.566121e+02
6.100000e-07	-3.091808e-06	-3.817972e-09	-2.213232e+01	-2.516431e+02
6.200000e-07	-2.950592e-06	-3.739454e-09	-2.112145e+01	-2.465270e+02
6.300000e-07	-2.808136e-06	-3.657406e-09	-2.010169e+01	-2.412687e+02
6.400000e-07	-2.664654e-06	-3.575836e-09	-1.907459e+01	-2.358715e+02
6.500000e-07	-2.520214e-06	-3.492388e-09	-1.804064e+01	-2.303355e+02
6.600000e-07	-2.374877e-06	-3.404658e-09	-1.700026e+01	-2.246562e+02
6.700000e-07	-2.228775e-06	-3.314789e-09	-1.595441e+01	-2.188245e+02
6.800000e-07	-2.081952e-06	-3.223138e-09	-1.490340e+01	-2.128262e+02
6.900000e-07	-1.934463e-06	-3.131543e-09	-1.384761e+01	-2.066436e+02
7.000000e-07	-1.786388e-06	-3.031726e-09	-1.278764e+01	-2.002563e+02
7.100000e-07	-1.637716e-06	-2.930244e-09	-1.172339e+01	-1.936436e+02
7.200000e-07	-1.488556e-06	-2.825474e-09	-1.065564e+01	-1.867863e+02
7.300000e-07	-1.339040e-06	-2.717683e-09	-9.585352e+00	-1.796685e+02
7.400000e-07	-1.189150e-06	-2.602514e-09	-8.512380e+00	-1.722790e+02
7.500000e-07	-1.038798e-06	-2.486785e-09	-7.436107e+00	-1.646113e+02
7.600000e-07	-8.879983e-07	-2.373906e-09	-6.356625e+00	-1.566635e+02
7.700000e-07	-7.368039e-07	-2.250017e-09	-5.274319e+00	-1.484363e+02
7.800000e-07	-5.852577e-07	-2.117016e-09	-4.189494e+00	-1.399313e+02
7.900000e-07	-4.335027e-07	-1.980590e-09	-3.103175e+00	-1.311476e+02
8.000000e-07	-2.816415e-07	-1.843871e-09	-2.016095e+00	-1.220797e+02
8.100000e-07	-1.296625e-07	-1.697154e-09	-9.281730e-01	-1.127144e+02
8.200000e-07	2.243190e-08	-1.545369e-09	1.605759e-01	-1.030304e+02
8.300000e-07	1.746153e-07	-1.391654e-09	1.249962e+00	-9.299710e+01
8.400000e-07	3.267525e-07	-1.232758e-09	2.339017e+00	-8.257681e+01
8.500000e-07	4.787422e-07	-1.067583e-09	3.427017e+00	-7.172740e+01
8.600000e-07	6.306010e-07	-8.948519e-10	4.514079e+00	-6.040669e+01
8.700000e-07	7.822318e-07	-7.181999e-10	5.599509e+00	-4.857784e+01
8.800000e-07	9.336085e-07	-5.279991e-10	6.683120e+00	-3.621516e+01
8.900000e-07	1.084675e-06	-3.297180e-10	7.764508e+00	-2.330972e+01
9.000000e-07	1.235254e-06	-1.275879e-10	8.842409e+00	-9.874037e+00
9.100000e-07	1.385374e-06	7.827476e-11	9.917031e+00	4.054715e+00
9.200000e-07	1.535007e-06	2.933334e-10	1.098816e+01	1.841350e+01
9.300000e-07	1.684106e-06	5.183610e-10	1.205547e+01	3.311451e+01
9.400000e-07	1.832619e-06	7.455074e-10	1.311858e+01	4.804846e+01
9.500000e-07	1.980470e-06	9.756652e-10	1.417695e+01	6.309001e+01
9.600000e-07	2.127704e-06	1.204531e-09	1.523091e+01	7.810469e+01
9.700000e-07	2.274159e-06	1.429213e-09	1.627928e+01	9.295670e+01
9.800000e-07	2.419712e-06	1.649567e-09	1.732121e+01	1.075168e+02
9.900000e-07	2.564409e-06	1.865782e-09	1.835700e+01	1.216698e+02
1.000000e-06	2.708103e-06	2.076207e-09	1.938562e+01	1.353201e+02
1.010000e-06	2.850642e-06	2.273157e-09	2.040596e+01	1.483960e+02
1.020000e-06	2.992031e-06	2.456450e-09	2.141808e+01	1.608513e+02
1.030000e-06	3.132241e-06	2.630746e-09	2.242176e+01	1.726651e+02
1.040000e-06	3.271241e-06	2.797318e-09	2.341677e+01	1.838391e+02
1.050000e-06	3.408949e-06	2.957054e-09	2.440254e+01	1.943931e+02
1.060000e-06	3.545284e-06	3.109485e-09	2.537847e+01	2.043606e+02
1.070000e-06	3.680309e-06	3.254471e-09	2.634503e+01	2.137825e+02
1.080000e-06	3.814084e-06	3.393528e-09	2.730265e+01	2.227021e+02
1.090000e-06	3.946524e-06	3.525348e-09	2.825070e+01	2.311609e+02
1.100000e-06	4.077496e-06	3.648782e-09	2.918825e+01	2.391947e+02
1.110000e-06	4.206990e-06	3.765444e-09	3.011522e+01	2.468328e+02
1.120000e-06	4.335018e-06	3.876235e-09	3.103169e+01	2.540972e+02
1.130000e-06	4.461544e-06	3.980263e-09	3.193741e+01	2.610039e+02
1.140000e-06	4.586581e-06	4.077006e-09	3.283247e+01	2.675648e+02
1.150000e-06	4.710023e-06	4.171173e-09	3.371611e+01	2.737903e+02
1.160000e-06	4.831762e-06	4.260489e-09	3.458756e+01	2.796915e+02
1.170000e-06	4.951790e-06	4.344742e-09	3.544678e+01	2.852822e+02
1.180000e-06	5.069996e-06	4.424058e-09	3.629294e+01	2.905804e+02
1.190000e-06	5.186311e-06	4.501325e-09	3.712556e+01	2.956080e+02
1.200000e-06	5.300633e-06	4.575898e-09	3.794392e+01	3.003907e+02
1.210000e-06	5.412902e-06	4.645560e-09	3.874758e+01	3.049557e+02
1.220000e-06	5.523229e-06	4.712335e-09	3.953735e+01	3.093304e+02
1.230000e-06	5.631642e-06	4.777026e-09	4.031341e+01	3.135395e+02
1.240000e-06	5.738039e-06	4.838427e-09	4.107504e+01	3.176032e+02
1.250000e-06	5.842288e-06	4.895995e-09	4.182129e+01	3.215357e+02
1.260000e-06	5.944358e-06	4.952420e-09	4.255194e+01	3.253442e+02
1.270000e-06	6.044276e-06	5.006860e-09	4.326719e+01	3.290292e+02
1.280000e-06	6.141939e-06	5.059774e-09	4.396631e+01	3.325853e+02
1.290000e-06	6.237236e-06	5.111224e-09	4.464848e+01	3.360030e+02
1.300000e-06	6.330295e-06	5.160482e-09	4.531463e+01	3.392709e+02
1.310000e-06	6.421150e-06	5.205894e-09	4.596500e+01	3.423776e+02
1.320000e-06	6.509667e-06	5.247101e-09	4.659864e+01	3.453145e+02
1.330000e-06	6.595873e-06	5.286768e-09	4.721573e+01	3.480767e+02
1.340000e-06	6.679841e-06	5.325533e-09	4.781681e+01	3.506643e+02
1.350000e-06	6.761498e-06	5.361778e-09	4.840134e+01	3.530827e+02
1.360000e-06	6.840652e-06	5.394937e-09	4.896795e+01	3.553416e+02
1.370000e-06	6.917227e-06	5.426873e-09	4.951611e+01	3.574541e+02
1.380000e-06	6.991148e-06	5.457529e-09	5.004527e+01	3.594351e+02
1.390000e-06	7.062474e-06	5.485443e-09	5.055584e+01	3.612992e+02
1.400000e-06	7.131408e-06	5.511731e-09	5.104930e+01	3.630594e+02
1.410000e-06	7.197787e-06	5.537358e-09	5.152446e+01	3.647259e+02
1.420000e-06	7.261500e-06	5.562805e-09	5.198054e+01	3.663052e+02
1.430000e-06	7.322761e-06	5.586739e-09	5.241907e+01	3.678001e+02
1.440000e-06	7.381534e-06	5.607705e-09	5.283979e+01	3.692104e+02
1.450000e-06	7.437642e-06	5.624867e-09	5.324144e+01	3.705338e+02
1.460000e-06	7.491027e-06	5.640768e-09	5.362358e+01	3.717669e+02
1.470000e-06	7.541388e-06	5.657499e-09	5.398409e+01	3.729069e+02
1.480000e-06	7.588748e-06	5.674048e-09	5.432311e+01	3.739527e+02
1.490000e-06	7.633450e-06	5.690344e-09	5.464310e+01	3.749051e+02
1.500000e-06	7.675413e-06	5.706198e-09	5.494349e+01	3.757677e+02
1.510000e-06	7.714588e-06	5.720656e-09	5.522392e+01	3.765463e+02
1.520000e-06	7.751120e-06	5.732066e-09	5.548543e+01	3.772485e+02
1.530000e-06	7.784926e-06	5.741392e-09	5.572742e+01	3.778824e+02
1.540000e-06	7.815929e-06	5.749912e-09	5.594935e+01	3.784554e+02
1.550000e-06	7.844211e-06	5.757895e-09	5.615181e+01	3.789736e+02
1.560000e-06	7.869633e-06	5.765030e-09	5.633379e+01	3.794405e+02
1.570000e-06	7.892174e-06	5.772188e-09	5.649515e+01	3.798569e+02
1.580000e-06	7.912058e-06	5.779359e-09	5.663748e+01	3.802207e+02
1.590000e-06	7.929034e-06	5.784553e-09	5.675901e+01	3.805279e+02
1.600000e-06	7.942929e-06	5.788391e-09	5.685847e+01	3.807727e+02
1.610000e-06	7.953744e-06	5.792322e-09	5.693589e+01	3.809494e+02
1.620000e-06	7.961490e-06	5.795885e-09	5.699134e+01	3.810531e+02
1.630000e-06	7.966414e-06	5.797815e-09	5.702658e+01	3.810807e+02
1.640000e-06	7.968498e-06	5.799436e-09	5.704150e+01	3.810320e+02
1.650000e-06	7.967779e-06	5.803084e-09	5.703635e+01	3.809095e+02
1.660000e-06	7.964521e-06	5.788929e-09	5.701303e+01	3.807186e+02
1.670000e-06	7.958656e-06	5.785953e-09	5.697105e+01	3.804665e+02
1.680000e-06	7.950063e-06	5.785149e-09	5.690953e+01	3.801618e+02
1.690000e-06	7.938759e-06	5.779711e-09	5.682862e+01	3.798131e+02
1.700000e-06	7.924563e-06	5.778246e-09	5.672700e+01	3.794277e+02
1.710000e-06	7.907795e-06	5.786515e-09	5.660696e+01	3.790109e+02
1.720000e-06	7.888847e-06	5.805118e-09	5.647133e+01	3.785653e+02
1.730000e-06	7.867442e-06	5.703356e-09	5.631810e+01	3.780905e+02
1.740000e-06	7.842964e-06	5.607088e-09	5.614288e+01	3.775834e+02
1.750000e-06	7.814896e-06	5.714854e-09	5.594196e+01	3.770387e+02
1.760000e-06	7.783351e-06	5.736425e-09	5.571615e+01	3.764498e+02
1.770000e-06	7.749131e-06	5.677197e-09	5.547119e+01	3.758099e+02
1.780000e-06	7.712652e-06	5.745883e-09	5.521006e+01	3.751126e+02
1.790000e-06	7.673871e-06	5.838273e-09	5.493245e+01	3.743532e+02
1.800000e-06	7.633080e-06	5.569500e-09	5.464045e+01	3.735286e+02
1.810000e-06	7.589996e-06	5.683469e-09	5.433204e+01	3.726379e+02
1.820000e-06	7.544329e-06	5.756173e-09	5.400514e+01	3.716817e+02
1.830000e-06	7.495962e-06	5.561499e-09	5.365891e+01	3.706619e+02
1.840000e-06	7.444517e-06	5.759513e-09	5.329065e+01	3.695808e+02
1.850000e-06	7.390149e-06	5.545216e-09	5.290146e+01	3.684403e+02
1.860000e-06	7.333063e-06	5.627085e-09	5.249282e+01	3.672414e+02
1.870000e-06	7.273322e-06	5.609700e-09	5.206517e+01	3.659837e+02
1.880000e-06	7.210903e-06	5.476299e-09	5.161835e+01	3.646651e+02
1.890000e-06	7.145690e-06	5.665842e-09	5.115153e+01	3.632820e+02
1.900000e-06	7.077773e-06	5.472314e-09	5.066536e+01	3.618302e+02
1.910000e-06	7.007025e-06	5.517851e-09	5.015891e+01	3.603050e+02
1.920000e-06	6.933552e-06	5.480160e-09	4.963297e+01	3.587022e+02
1.930000e-06	6.857448e-06	5.482612e-09	4.908819e+01	3.570189e+02
1.940000e-06	6.778515e-06	5.483431e-09	4.852315e+01	3.552537e+02
1.950000e-06	6.697067e-06	5.325090e-09	4.794012e+01	3.534071e+02
1.960000e-06	6.613249e-06	5.429346e-09	4.734012e+01	3.514811e+02
1.970000e-06	6.526931e-06	5.298027e-09	4.672222e+01	3.494793e+02
1.980000e-06	6.438162e-06	5.298613e-09	4.608678e+01	3.474055e+02
1.990000e-06	6.347159e-06	5.282831e-09	4.543535e+01	3.452634e+02
2.000000e-06	6.254014e-06	5.267416e-09	4.476858e+01	3.430556e+02
2.010000e-06	6.158561e-06	5.224025e-09	4.408529e+01	3.407831e+02
2.020000e-06	6.060902e-06	5.123938e-09	4.338621e+01	3.384449e+02
2.030000e-06	5.961085e-06	5.149360e-09	4.267169e+01	3.360379e+02
2.040000e-06	5.859090e-06	5.095340e-09	4.194157e+01	3.335574e+02
2.050000e-06	5.754960e-06	5.076989e-09	4.119617e+01	3.309974e+02
2.060000e-06	5.648916e-06	4.996991e-09	4.043707e+01	3.283520e+02
2.070000e-06	5.541099e-06	4.985052e-09	3.966527e+01	3.256157e+02
2.080000e-06	5.431325e-06	4.930093e-09	3.887947e+01	3.227844e+02
2.090000e-06	5.319467e-06	4.879594e-09	3.807874e+01	3.198558e+02
2.100000e-06	5.205604e-06	4.845170e-09	3.726367e+01	3.168294e+02
2.110000e-06	5.089751e-06	4.803137e-09	3.643435e+01	3.137066e+02
2.120000e-06	4.971838e-06	4.747684e-09	3.559028e+01	3.104896e+02
2.130000e-06	4.852050e-06	4.676405e-09	3.473280e+01	3.071810e+02
2.140000e-06	4.730522e-06	4.646694e-09	3.386285e+01	3.037824e+02
2.150000e-06	4.607257e-06	4.593606e-09	3.298048e+01	3.002938e+02
2.160000e-06	4.482267e-06	4.545704e-09	3.208575e+01	2.967126e+02
2.170000e-06	4.355633e-06	4.474954e-09	3.117926e+01	2.930336e+02
2.180000e-06	4.227379e-06	4.432816e-09	3.026117e+01	2.892489e+02
2.190000e-06	4.097650e-06	4.373115e-09	2.933252e+01	2.853488e+02
2.200000e-06	3.966428e-06	4.314420e-09	2.839318e+01	2.813225e+02
2.210000e-06	3.833716e-06	4.243521e-09	2.744318e+01	2.771595e+02
2.220000e-06	3.699578e-06	4.173221e-09	2.648297e+01	2.728505e+02
2.230000e-06	3.564006e-06	4.099160e-09	2.551250e+01	2.683891e+02
2.240000e-06	3.427157e-06	4.025297e-09	2.453288e+01	2.637718e+02
2.250000e-06	3.289037e-06	3.963024e-09	2.354416e+01	2.589985e+02
2.260000e-06	3.149575e-06	3.896138e-09	2.254584e+01	2.540720e+02
2.270000e-06	3.008834e-06	3.822324e-09	2.153836e+01	2.489970e+02
2.280000e-06	2.866924e-06	3.735316e-09	2.052252e+01	2.437785e+02
2.290000e-06	2.723890e-06	3.655261e-09	1.949863e+01	2.384205e+02
2.300000e-06	2.579822e-06	3.570737e-09	1.846733e+01	2.329239e+02
2.310000e-06	2.434871e-06	3.490994e-09	1.742972e+01	2.272859e+02
2.320000e-06	2.289202e-06	3.397947e-09	1.638697e+01	2.214985e+02
2.330000e-06	2.142814e-06	3.297464e-09	1.533906e+01	2.155491e+02
2.340000e-06	1.995595e-06	3.197964e-09	1.428522e+01	2.094208e+02
2.350000e-06	1.847617e-06	3.103643e-09	1.322594e+01	2.030937e+02
2.360000e-06	1.699068e-06	3.011806e-09	1.216256e+01	1.965470e+02
2.370000e-06	1.550070e-06	2.911316e-09	1.109598e+01	1.897610e+02
2.380000e-06	1.400606e-06	2.805262e-09	1.002606e+01	1.827186e+02
2.390000e-06	1.250616e-06	2.693454e-09	8.952376e+00	1.754072e+02
2.400000e-06	1.100196e-06	2.575786e-09	7.875613e+00	1.678189e+02
2.410000e-06	9.494341e-07	2.455376e-09	6.796406e+00	1.599507e+02
2.420000e-06	7.983729e-07	2.331360e-09	5.715053e+00	1.518028e+02
2.430000e-06	6.470477e-07	2.198251e-09	4.631811e+00	1.433766e+02
2.440000e-06	4.954829e-07	2.059865e-09	3.546853e+00	1.346725e+02
2.450000e-06	3.437287e-07	1.926164e-09	2.460539e+00	1.256863e+02
2.460000e-06	1.918309e-07	1.794739e-09	1.373197e+00	1.164074e+02
2.470000e-06	3.979599e-08	1.654973e-09	2.848746e-01	1.068168e+02
2.480000e-06	-1.123248e-07	1.503569e-09	-8.040628e-01	9.688645e+01
2.490000e-06	-2.643724e-07	1.343990e-09	-1.892477e+00	8.658050e+01
2.500000e-06	-4.162982e-07	1.175723e-09	-2.980019e+00	7.585768e+01
2.510000e-06	-5.680918e-07	9.994528e-10	-4.066615e+00	6.467531e+01
2.520000e-06	-7.197132e-07	8.194285e-10	-5.151977e+00	5.299446e+01
2.530000e-06	-8.711060e-07	6.340772e-10	-6.235704e+00	4.078564e+01
2.540000e-06	-1.022223e-06	4.385520e-10	-7.317459e+00	2.803460e+01
2.550000e-06	-1.173041e-06	2.348876e-10	-8.397067e+00	1.474733e+01
2.560000e-06	-1.323359e-06	2.772856e-11	-9.473103e+00	9.537384e-01
2.570000e-06	-1.473124e-06	-1.851639e-10	-1.054517e+01	-1.329051e+01
2.580000e-06	-1.622427e-06	-4.058555e-10	-1.161394e+01	-2.790445e+01
2.590000e-06	-1.771194e-06	-6.341209e-10	-1.267887e+01	-4.278446e+01
2.600000e-06	-1.919325e-06	-8.682500e-10	-1.373925e+01	-5.780914e+01
2.610000e-06	-2.066637e-06	-1.104594e-09	-1.479376e+01	-7.284586e+01
2.620000e-06	-2.213101e-06	-1.336841e-09	-1.584221e+01	-8.775837e+01
2.630000e-06	-2.358791e-06	-1.561715e-09	-1.688511e+01	-1.024148e+02
2.640000e-06	-2.503619e-06	-1.781671e-09	-1.792185e+01	-1.166952e+02
2.650000e-06	-2.647511e-06	-1.996442e-09	-1.895187e+01	-1.304980e+02
2.660000e-06	-2.790346e-06	-2.199840e-09	-1.997434e+01	-1.437442e+02
2.670000e-06	-2.932026e-06	-2.387956e-09	-2.098854e+01	-1.563805e+02
2.680000e-06	-3.072589e-06	-2.565472e-09	-2.199475e+01	-1.683787e+02
2.690000e-06	-3.211922e-06	-2.736407e-09	-2.299215e+01	-1.797346e+02
2.700000e-06	-3.349933e-06	-2.900651e-09	-2.398008e+01	-1.904632e+02
2.710000e-06	-3.486692e-06	-3.059244e-09	-2.495905e+01	-2.005947e+02
2.720000e-06	-3.622197e-06	-3.210827e-09	-2.592904e+01	-2.101685e+02
2.730000e-06	-3.756352e-06	-3.352384e-09	-2.688938e+01	-2.192277e+02
2.740000e-06	-3.889136e-06	-3.485079e-09	-2.783990e+01	-2.278146e+02
2.750000e-06	-4.020537e-06	-3.611255e-09	-2.878051e+01	-2.359669e+02
2.760000e-06	-4.150570e-06	-3.729176e-09	-2.971134e+01	-2.437160e+02
2.770000e-06	-4.279240e-06	-3.837491e-09	-3.063241e+01	-2.510857e+02
2.780000e-06	-4.406420e-06	-3.940305e-09	-3.154281e+01	-2.580936e+02
2.790000e-06	-4.532057e-06	-4.040233e-09	-3.244217e+01	-2.647527e+02
2.800000e-06	-4.656055e-06	-4.137841e-09	-3.332979e+01	-2.710734e+02
2.810000e-06	-4.778426e-06	-4.230930e-09	-3.420577e+01	-2.770664e+02
2.820000e-06	-4.899144e-06	-4.318229e-09	-3.506991e+01	-2.827446e+02
2.830000e-06	-5.018029e-06	-4.401049e-09	-3.592094e+01	-2.881247e+02
2.840000e-06	-5.134922e-06	-4.480660e-09	-3.675770e+01	-2.932275e+02
2.850000e-06	-5.249621e-06	-4.556921e-09	-3.757876e+01	-2.980778e+02
2.860000e-06	-5.362140e-06	-4.628899e-09	-3.838421e+01	-3.027026e+02
2.870000e-06	-5.472597e-06	-4.697566e-09	-3.917490e+01	-3.071294e+02
2.880000e-06	-5.581127e-06	-4.762121e-09	-3.995180e+01	-3.113839e+02
2.890000e-06	-5.687806e-06	-4.822791e-09	-4.071545e+01	-3.154878e+02
2.900000e-06	-5.792503e-06	-4.883018e-09	-4.146491e+01	-3.194572e+02
2.910000e-06	-5.895041e-06	-4.943693e-09	-4.219892e+01	-3.233012e+02
2.920000e-06	-5.995311e-06	-5.004234e-09	-4.291669e+01	-3.270222e+02
2.930000e-06	-6.093459e-06	-5.063254e-09	-4.361927e+01	-3.306164e+02
2.940000e-06	-6.189501e-06	-5.118381e-09	-4.430678e+01	-3.340752e+02
