# Temperatura_=_47.17
# Concentracion g/m^3_=_5000.0
# C_Vs_to_Am_M_A/Vsm_=_65563218390.804596
# pendiente_HvsI_1/m_=_3716.3
# ordenada_HvsI_A/m_=_1297.0
# frecuencia_Hz_=_302503.0627837575

Tiempo_(s)	Campo_(V.s)	Magnetizacion_(V.s)	Campo_(kA/m)	Magnetizacion_(A/m)
0.000000e+00	-7.941220e-06	-5.987738e-09	-5.686336e+01	-3.925707e+02
1.000000e-08	-7.936889e-06	-5.989396e-09	-5.683235e+01	-3.923407e+02
2.000000e-08	-7.930017e-06	-5.984708e-09	-5.678315e+01	-3.920422e+02
3.000000e-08	-7.920465e-06	-5.982601e-09	-5.671475e+01	-3.916825e+02
4.000000e-08	-7.908073e-06	-5.977612e-09	-5.662601e+01	-3.912686e+02
5.000000e-08	-7.892698e-06	-5.968476e-09	-5.651592e+01	-3.908074e+02
6.000000e-08	-7.874609e-06	-5.955142e-09	-5.638640e+01	-3.903040e+02
7.000000e-08	-7.854255e-06	-5.934105e-09	-5.624065e+01	-3.897617e+02
8.000000e-08	-7.831358e-06	-5.952035e-09	-5.607669e+01	-3.891820e+02
9.000000e-08	-7.805319e-06	-6.024350e-09	-5.589024e+01	-3.885643e+02
1.000000e-07	-7.776073e-06	-5.974985e-09	-5.568082e+01	-3.879064e+02
1.100000e-07	-7.744040e-06	-5.904390e-09	-5.545145e+01	-3.872052e+02
1.200000e-07	-7.709276e-06	-5.901053e-09	-5.520252e+01	-3.864569e+02
1.300000e-07	-7.671928e-06	-5.899716e-09	-5.493509e+01	-3.856575e+02
1.400000e-07	-7.632510e-06	-5.839879e-09	-5.465283e+01	-3.848033e+02
1.500000e-07	-7.590961e-06	-5.791688e-09	-5.435532e+01	-3.838909e+02
1.600000e-07	-7.546741e-06	-5.919573e-09	-5.403869e+01	-3.829171e+02
1.700000e-07	-7.499764e-06	-5.782493e-09	-5.370230e+01	-3.818789e+02
1.800000e-07	-7.450038e-06	-5.762853e-09	-5.334624e+01	-3.807731e+02
1.900000e-07	-7.397259e-06	-5.860634e-09	-5.296831e+01	-3.795964e+02
2.000000e-07	-7.341621e-06	-5.736806e-09	-5.256992e+01	-3.783449e+02
2.100000e-07	-7.283325e-06	-5.756429e-09	-5.215248e+01	-3.770143e+02
2.200000e-07	-7.222409e-06	-5.714100e-09	-5.171629e+01	-3.756003e+02
2.300000e-07	-7.158920e-06	-5.702673e-09	-5.126168e+01	-3.740988e+02
2.400000e-07	-7.092607e-06	-5.682598e-09	-5.078685e+01	-3.725066e+02
2.500000e-07	-7.023585e-06	-5.621623e-09	-5.029261e+01	-3.708218e+02
2.600000e-07	-6.951987e-06	-5.624216e-09	-4.977993e+01	-3.690440e+02
2.700000e-07	-6.877625e-06	-5.585220e-09	-4.924746e+01	-3.671750e+02
2.800000e-07	-6.800450e-06	-5.552446e-09	-4.869484e+01	-3.652183e+02
2.900000e-07	-6.720466e-06	-5.498965e-09	-4.812212e+01	-3.631790e+02
3.000000e-07	-6.637902e-06	-5.512876e-09	-4.753092e+01	-3.610630e+02
3.100000e-07	-6.553141e-06	-5.495872e-09	-4.692398e+01	-3.588764e+02
3.200000e-07	-6.466172e-06	-5.405131e-09	-4.630123e+01	-3.566241e+02
3.300000e-07	-6.376858e-06	-5.406643e-09	-4.566170e+01	-3.543097e+02
3.400000e-07	-6.285196e-06	-5.379408e-09	-4.500535e+01	-3.519339e+02
3.500000e-07	-6.191307e-06	-5.328201e-09	-4.433306e+01	-3.494950e+02
3.600000e-07	-6.095129e-06	-5.272883e-09	-4.364437e+01	-3.469885e+02
3.700000e-07	-5.996662e-06	-5.251524e-09	-4.293929e+01	-3.444075e+02
3.800000e-07	-5.896068e-06	-5.221354e-09	-4.221898e+01	-3.417439e+02
3.900000e-07	-5.793375e-06	-5.152409e-09	-4.148365e+01	-3.389892e+02
4.000000e-07	-5.688669e-06	-5.114111e-09	-4.073390e+01	-3.361358e+02
4.100000e-07	-5.581945e-06	-5.076308e-09	-3.996970e+01	-3.331779e+02
4.200000e-07	-5.473221e-06	-5.036079e-09	-3.919118e+01	-3.301124e+02
4.300000e-07	-5.362625e-06	-4.965020e-09	-3.839925e+01	-3.269393e+02
4.400000e-07	-5.250053e-06	-4.922967e-09	-3.759318e+01	-3.236613e+02
4.500000e-07	-5.135394e-06	-4.884995e-09	-3.677215e+01	-3.202835e+02
4.600000e-07	-5.018727e-06	-4.824257e-09	-3.593676e+01	-3.168121e+02
4.700000e-07	-4.900244e-06	-4.763153e-09	-3.508836e+01	-3.132530e+02
4.800000e-07	-4.780011e-06	-4.714523e-09	-3.422743e+01	-3.096107e+02
4.900000e-07	-4.658025e-06	-4.664633e-09	-3.335394e+01	-3.058867e+02
5.000000e-07	-4.534314e-06	-4.597554e-09	-3.246810e+01	-3.020791e+02
5.100000e-07	-4.408994e-06	-4.538847e-09	-3.157074e+01	-2.981820e+02
5.200000e-07	-4.282155e-06	-4.474476e-09	-3.066251e+01	-2.941859e+02
5.300000e-07	-4.153706e-06	-4.405047e-09	-2.974275e+01	-2.900784e+02
5.400000e-07	-4.023676e-06	-4.333021e-09	-2.881167e+01	-2.858462e+02
5.500000e-07	-3.892113e-06	-4.269361e-09	-2.786960e+01	-2.814759e+02
5.600000e-07	-3.759052e-06	-4.203697e-09	-2.691682e+01	-2.769562e+02
5.700000e-07	-3.624590e-06	-4.131669e-09	-2.595399e+01	-2.722793e+02
5.800000e-07	-3.488748e-06	-4.061765e-09	-2.498130e+01	-2.674416e+02
5.900000e-07	-3.351516e-06	-3.988005e-09	-2.399864e+01	-2.624438e+02
6.000000e-07	-3.212926e-06	-3.910117e-09	-2.300626e+01	-2.572907e+02
6.100000e-07	-3.072985e-06	-3.826294e-09	-2.200421e+01	-2.519899e+02
6.200000e-07	-2.931713e-06	-3.742960e-09	-2.099263e+01	-2.465498e+02
6.300000e-07	-2.789200e-06	-3.654570e-09	-1.997215e+01	-2.409779e+02
6.400000e-07	-2.645686e-06	-3.565589e-09	-1.894452e+01	-2.352784e+02
6.500000e-07	-2.501305e-06	-3.479386e-09	-1.791068e+01	-2.294509e+02
6.600000e-07	-2.355964e-06	-3.389190e-09	-1.686996e+01	-2.234888e+02
6.700000e-07	-2.209730e-06	-3.294086e-09	-1.582285e+01	-2.173799e+02
6.800000e-07	-2.062794e-06	-3.198722e-09	-1.477070e+01	-2.111064e+02
6.900000e-07	-1.915311e-06	-3.105039e-09	-1.371465e+01	-2.046465e+02
7.000000e-07	-1.767281e-06	-3.003067e-09	-1.265467e+01	-1.979769e+02
7.100000e-07	-1.618629e-06	-2.895552e-09	-1.159025e+01	-1.910748e+02
7.200000e-07	-1.469428e-06	-2.786607e-09	-1.052188e+01	-1.839206e+02
7.300000e-07	-1.319762e-06	-2.673978e-09	-9.450202e+00	-1.764994e+02
7.400000e-07	-1.169681e-06	-2.553569e-09	-8.375536e+00	-1.688022e+02
7.500000e-07	-1.019202e-06	-2.432585e-09	-7.298031e+00	-1.608258e+02
7.600000e-07	-8.684074e-07	-2.314295e-09	-6.218260e+00	-1.525717e+02
7.700000e-07	-7.173623e-07	-2.187361e-09	-5.136696e+00	-1.440435e+02
7.800000e-07	-5.660096e-07	-2.052314e-09	-4.052930e+00	-1.352445e+02
7.900000e-07	-4.144707e-07	-1.911776e-09	-2.967831e+00	-1.261742e+02
8.000000e-07	-2.628020e-07	-1.765733e-09	-1.881802e+00	-1.168252e+02
8.100000e-07	-1.110211e-07	-1.613008e-09	-7.949699e-01	-1.071808e+02
8.200000e-07	4.084112e-08	-1.456200e-09	2.924442e-01	-9.721432e+01
8.300000e-07	1.927682e-07	-1.297381e-09	1.380323e+00	-8.688956e+01
8.400000e-07	3.446348e-07	-1.135507e-09	2.467768e+00	-7.616290e+01
8.500000e-07	4.963996e-07	-9.673228e-10	3.554486e+00	-6.498742e+01
8.600000e-07	6.480215e-07	-7.910846e-10	4.640179e+00	-5.331820e+01
8.700000e-07	7.994664e-07	-6.094146e-10	5.724605e+00	-4.111847e+01
8.800000e-07	9.506601e-07	-4.165594e-10	6.807232e+00	-2.836591e+01
8.900000e-07	1.101536e-06	-2.158221e-10	7.887587e+00	-1.505834e+01
9.000000e-07	1.252087e-06	-7.872163e-12	8.965610e+00	-1.218159e+00
9.100000e-07	1.402243e-06	2.088749e-10	1.004081e+01	1.310521e+01
9.200000e-07	1.551864e-06	4.340264e-10	1.111217e+01	2.783515e+01
9.300000e-07	1.700866e-06	6.646860e-10	1.217911e+01	4.287016e+01
9.400000e-07	1.849285e-06	8.962343e-10	1.324186e+01	5.808856e+01
9.500000e-07	1.997083e-06	1.128745e-09	1.430018e+01	7.335509e+01
9.600000e-07	2.144164e-06	1.357209e-09	1.535335e+01	8.852885e+01
9.700000e-07	2.290459e-06	1.581345e-09	1.640091e+01	1.034718e+02
9.800000e-07	2.435870e-06	1.800986e-09	1.744213e+01	1.180568e+02
9.900000e-07	2.580366e-06	2.016504e-09	1.847680e+01	1.321749e+02
1.000000e-06	2.723836e-06	2.225124e-09	1.950412e+01	1.457403e+02
1.010000e-06	2.866194e-06	2.421772e-09	2.052348e+01	1.586935e+02
1.020000e-06	3.007491e-06	2.604764e-09	2.153524e+01	1.710019e+02
1.030000e-06	3.147588e-06	2.776930e-09	2.253841e+01	1.826580e+02
1.040000e-06	3.286388e-06	2.941516e-09	2.353229e+01	1.936758e+02
1.050000e-06	3.423892e-06	3.098839e-09	2.451689e+01	2.040856e+02
1.060000e-06	3.560054e-06	3.249539e-09	2.549188e+01	2.139283e+02
1.070000e-06	3.694872e-06	3.393883e-09	2.645725e+01	2.232492e+02
1.080000e-06	3.828434e-06	3.531512e-09	2.741363e+01	2.320932e+02
1.090000e-06	3.960683e-06	3.661906e-09	2.836060e+01	2.405004e+02
1.100000e-06	4.091482e-06	3.784352e-09	2.929719e+01	2.485040e+02
1.110000e-06	4.220766e-06	3.902522e-09	3.022293e+01	2.561292e+02
1.120000e-06	4.348505e-06	4.016198e-09	3.113761e+01	2.633937e+02
1.130000e-06	4.474764e-06	4.122276e-09	3.204169e+01	2.703098e+02
1.140000e-06	4.599604e-06	4.219656e-09	3.293561e+01	2.768866e+02
1.150000e-06	4.722859e-06	4.311522e-09	3.381818e+01	2.831331e+02
1.160000e-06	4.844389e-06	4.399299e-09	3.468840e+01	2.890604e+02
1.170000e-06	4.964192e-06	4.483022e-09	3.554626e+01	2.946837e+02
1.180000e-06	5.082169e-06	4.564634e-09	3.639104e+01	3.000227e+02
1.190000e-06	5.198209e-06	4.644549e-09	3.722195e+01	3.051017e+02
1.200000e-06	5.312204e-06	4.722085e-09	3.803821e+01	3.099485e+02
1.210000e-06	5.424179e-06	4.794798e-09	3.884001e+01	3.145916e+02
1.220000e-06	5.534229e-06	4.863355e-09	3.962802e+01	3.190589e+02
1.230000e-06	5.642366e-06	4.928522e-09	4.040234e+01	3.233742e+02
1.240000e-06	5.748463e-06	4.990526e-09	4.116206e+01	3.275558e+02
1.250000e-06	5.852456e-06	5.048719e-09	4.190670e+01	3.316151e+02
1.260000e-06	5.954347e-06	5.105448e-09	4.263629e+01	3.355557e+02
1.270000e-06	6.053988e-06	5.161642e-09	4.334978e+01	3.393745e+02
1.280000e-06	6.151280e-06	5.218046e-09	4.404644e+01	3.430628e+02
1.290000e-06	6.246273e-06	5.273951e-09	4.472664e+01	3.466083e+02
1.300000e-06	6.339089e-06	5.326896e-09	4.539125e+01	3.499974e+02
1.310000e-06	6.429658e-06	5.374504e-09	4.603977e+01	3.532183e+02
1.320000e-06	6.517891e-06	5.417949e-09	4.667157e+01	3.562621e+02
1.330000e-06	6.603848e-06	5.460696e-09	4.728707e+01	3.591251e+02
1.340000e-06	6.687541e-06	5.501092e-09	4.788635e+01	3.618089e+02
1.350000e-06	6.768853e-06	5.537392e-09	4.846859e+01	3.643207e+02
1.360000e-06	6.847654e-06	5.570929e-09	4.903285e+01	3.666721e+02
1.370000e-06	6.923930e-06	5.605017e-09	4.957903e+01	3.688776e+02
1.380000e-06	6.997562e-06	5.638874e-09	5.010627e+01	3.709532e+02
1.390000e-06	7.068576e-06	5.671542e-09	5.061477e+01	3.729138e+02
1.400000e-06	7.137129e-06	5.702814e-09	5.110565e+01	3.747721e+02
1.410000e-06	7.203108e-06	5.729731e-09	5.157809e+01	3.765374e+02
1.420000e-06	7.266497e-06	5.752717e-09	5.203199e+01	3.782150e+02
1.430000e-06	7.327469e-06	5.773923e-09	5.246858e+01	3.798063e+02
1.440000e-06	7.385892e-06	5.794367e-09	5.288692e+01	3.813096e+02
1.450000e-06	7.441666e-06	5.814169e-09	5.328629e+01	3.827211e+02
1.460000e-06	7.494673e-06	5.832241e-09	5.366585e+01	3.840366e+02
1.470000e-06	7.544589e-06	5.848089e-09	5.402327e+01	3.852524e+02
1.480000e-06	7.591545e-06	5.864066e-09	5.435951e+01	3.863669e+02
1.490000e-06	7.635917e-06	5.880758e-09	5.467723e+01	3.873809e+02
1.500000e-06	7.677582e-06	5.897880e-09	5.497558e+01	3.882981e+02
1.510000e-06	7.716419e-06	5.914991e-09	5.525367e+01	3.891246e+02
1.520000e-06	7.752630e-06	5.928636e-09	5.551296e+01	3.898683e+02
1.530000e-06	7.786121e-06	5.938728e-09	5.575277e+01	3.905376e+02
1.540000e-06	7.816783e-06	5.947124e-09	5.597233e+01	3.911407e+02
1.550000e-06	7.844731e-06	5.954650e-09	5.617245e+01	3.916839e+02
1.560000e-06	7.869833e-06	5.961272e-09	5.635220e+01	3.921714e+02
1.570000e-06	7.892031e-06	5.966220e-09	5.651114e+01	3.926045e+02
1.580000e-06	7.911497e-06	5.970815e-09	5.665053e+01	3.929816e+02
1.590000e-06	7.928093e-06	5.976768e-09	5.676937e+01	3.932990e+02
1.600000e-06	7.941671e-06	5.983802e-09	5.686659e+01	3.935515e+02
1.610000e-06	7.952142e-06	5.990540e-09	5.694157e+01	3.937333e+02
1.620000e-06	7.959575e-06	5.994434e-09	5.699480e+01	3.938392e+02
1.630000e-06	7.964251e-06	5.994984e-09	5.702828e+01	3.938659e+02
1.640000e-06	7.966098e-06	5.994129e-09	5.704150e+01	3.938117e+02
1.650000e-06	7.965126e-06	5.993830e-09	5.703454e+01	3.936780e+02
1.660000e-06	7.961523e-06	5.981636e-09	5.700875e+01	3.934684e+02
1.670000e-06	7.955216e-06	5.976546e-09	5.696358e+01	3.931883e+02
1.680000e-06	7.946293e-06	5.973957e-09	5.689969e+01	3.928449e+02
1.690000e-06	7.934732e-06	5.969818e-09	5.681691e+01	3.924453e+02
1.700000e-06	7.920289e-06	5.968896e-09	5.671349e+01	3.919966e+02
1.710000e-06	7.903229e-06	5.971962e-09	5.659133e+01	3.915043e+02
1.720000e-06	7.883925e-06	5.979111e-09	5.645310e+01	3.909725e+02
1.730000e-06	7.862157e-06	5.892276e-09	5.629723e+01	3.904030e+02
1.740000e-06	7.837232e-06	5.830792e-09	5.611876e+01	3.897958e+02
1.750000e-06	7.808678e-06	5.898298e-09	5.591429e+01	3.891493e+02
1.760000e-06	7.776784e-06	5.902973e-09	5.568591e+01	3.884604e+02
1.770000e-06	7.742329e-06	5.860453e-09	5.543920e+01	3.877255e+02
1.780000e-06	7.705591e-06	5.910934e-09	5.517613e+01	3.869407e+02
1.790000e-06	7.666610e-06	5.966631e-09	5.489701e+01	3.861020e+02
1.800000e-06	7.625579e-06	5.769055e-09	5.460320e+01	3.852061e+02
1.810000e-06	7.582122e-06	5.853449e-09	5.429203e+01	3.842497e+02
1.820000e-06	7.535982e-06	5.878830e-09	5.396164e+01	3.832298e+02
1.830000e-06	7.487147e-06	5.766391e-09	5.361196e+01	3.821432e+02
1.840000e-06	7.435400e-06	5.884823e-09	5.324142e+01	3.809867e+02
1.850000e-06	7.380763e-06	5.720041e-09	5.285019e+01	3.797565e+02
1.860000e-06	7.323324e-06	5.799447e-09	5.243890e+01	3.784485e+02
1.870000e-06	7.263349e-06	5.763947e-09	5.200945e+01	3.770583e+02
1.880000e-06	7.200725e-06	5.673641e-09	5.156103e+01	3.755818e+02
1.890000e-06	7.135136e-06	5.785964e-09	5.109138e+01	3.740153e+02
1.900000e-06	7.066819e-06	5.641507e-09	5.060219e+01	3.723566e+02
1.910000e-06	6.995720e-06	5.659935e-09	5.009308e+01	3.706048e+02
1.920000e-06	6.921922e-06	5.619286e-09	4.956465e+01	3.687612e+02
1.930000e-06	6.845488e-06	5.627524e-09	4.901734e+01	3.668286e+02
1.940000e-06	6.766279e-06	5.589989e-09	4.845016e+01	3.648119e+02
1.950000e-06	6.684561e-06	5.479709e-09	4.786502e+01	3.627167e+02
1.960000e-06	6.600409e-06	5.547947e-09	4.726244e+01	3.605493e+02
1.970000e-06	6.513822e-06	5.439845e-09	4.664244e+01	3.583149e+02
1.980000e-06	6.424839e-06	5.432303e-09	4.600527e+01	3.560175e+02
1.990000e-06	6.333630e-06	5.400612e-09	4.535217e+01	3.536589e+02
2.000000e-06	6.240242e-06	5.376675e-09	4.468345e+01	3.512380e+02
2.010000e-06	6.144532e-06	5.320235e-09	4.399812e+01	3.487509e+02
2.020000e-06	6.046624e-06	5.247932e-09	4.329705e+01	3.461915e+02
2.030000e-06	5.946550e-06	5.260165e-09	4.258047e+01	3.435520e+02
2.040000e-06	5.844334e-06	5.210305e-09	4.184854e+01	3.408237e+02
2.050000e-06	5.740023e-06	5.173093e-09	4.110162e+01	3.379987e+02
2.060000e-06	5.633795e-06	5.098196e-09	4.034098e+01	3.350707e+02
2.070000e-06	5.525711e-06	5.077511e-09	3.956703e+01	3.320356e+02
2.080000e-06	5.415658e-06	5.014397e-09	3.877900e+01	3.288926e+02
2.090000e-06	5.303580e-06	4.964556e-09	3.797646e+01	3.256437e+02
2.100000e-06	5.189467e-06	4.926019e-09	3.715935e+01	3.222934e+02
2.110000e-06	5.073344e-06	4.877170e-09	3.632785e+01	3.188477e+02
2.120000e-06	4.955249e-06	4.814867e-09	3.548222e+01	3.153127e+02
2.130000e-06	4.835218e-06	4.753343e-09	3.462274e+01	3.116933e+02
2.140000e-06	4.713400e-06	4.715661e-09	3.375046e+01	3.079923e+02
2.150000e-06	4.589973e-06	4.651966e-09	3.286665e+01	3.042086e+02
2.160000e-06	4.464882e-06	4.591428e-09	3.197093e+01	3.003374e+02
2.170000e-06	4.338155e-06	4.522947e-09	3.106350e+01	2.963703e+02
2.180000e-06	4.209776e-06	4.472746e-09	3.014424e+01	2.922955e+02
2.190000e-06	4.079849e-06	4.406722e-09	2.921389e+01	2.880999e+02
2.200000e-06	3.948474e-06	4.345034e-09	2.827318e+01	2.837698e+02
2.210000e-06	3.815602e-06	4.273176e-09	2.732174e+01	2.792934e+02
2.220000e-06	3.681317e-06	4.198682e-09	2.636019e+01	2.746616e+02
2.230000e-06	3.545662e-06	4.121533e-09	2.538883e+01	2.698694e+02
2.240000e-06	3.408583e-06	4.049426e-09	2.440727e+01	2.649166e+02
2.250000e-06	3.270228e-06	3.977825e-09	2.341657e+01	2.598067e+02
2.260000e-06	3.130705e-06	3.895814e-09	2.241751e+01	2.545468e+02
2.270000e-06	2.989904e-06	3.812386e-09	2.140931e+01	2.491453e+02
2.280000e-06	2.847897e-06	3.725822e-09	2.039246e+01	2.436100e+02
2.290000e-06	2.704829e-06	3.643686e-09	1.936801e+01	2.379463e+02
2.300000e-06	2.560818e-06	3.557076e-09	1.833682e+01	2.321553e+02
2.310000e-06	2.415888e-06	3.472512e-09	1.729904e+01	2.262322e+02
2.320000e-06	2.270121e-06	3.376808e-09	1.625527e+01	2.201664e+02
2.330000e-06	2.123634e-06	3.274173e-09	1.520635e+01	2.139415e+02
2.340000e-06	1.976448e-06	3.172502e-09	1.415242e+01	2.075368e+02
2.350000e-06	1.828600e-06	3.072062e-09	1.309375e+01	2.009290e+02
2.360000e-06	1.680091e-06	2.967969e-09	1.203035e+01	1.940951e+02
2.370000e-06	1.531057e-06	2.857921e-09	1.096318e+01	1.870142e+02
2.380000e-06	1.381552e-06	2.746978e-09	9.892645e+00	1.796701e+02
2.390000e-06	1.231559e-06	2.635274e-09	8.818620e+00	1.720519e+02
2.400000e-06	1.081192e-06	2.517839e-09	7.741913e+00	1.641548e+02
2.410000e-06	9.305068e-07	2.394882e-09	6.662924e+00	1.559792e+02
2.420000e-06	7.794887e-07	2.267144e-09	5.581554e+00	1.475285e+02
2.430000e-06	6.281998e-07	2.132444e-09	4.498245e+00	1.388063e+02
2.440000e-06	4.767331e-07	1.993908e-09	3.413663e+00	1.298135e+02
2.450000e-06	3.250745e-07	1.854840e-09	2.327707e+00	1.205449e+02
2.460000e-06	1.732524e-07	1.712464e-09	1.240580e+00	1.109867e+02
2.470000e-06	2.134252e-08	1.560345e-09	1.528238e-01	1.011151e+02
2.480000e-06	-1.306248e-07	1.402061e-09	-9.353428e-01	9.089648e+01
2.490000e-06	-2.825878e-07	1.241480e-09	-2.023479e+00	8.028893e+01
2.500000e-06	-4.344513e-07	1.073639e-09	-3.110903e+00	6.924601e+01
2.510000e-06	-5.861577e-07	8.971971e-10	-4.197201e+00	5.772164e+01
2.520000e-06	-7.376993e-07	7.137237e-10	-5.282320e+00	4.567607e+01
2.530000e-06	-8.889907e-07	5.221763e-10	-6.365647e+00	3.308221e+01
2.540000e-06	-1.039979e-06	3.195025e-10	-7.446805e+00	1.993162e+01
2.550000e-06	-1.190656e-06	1.091914e-10	-8.525729e+00	6.239329e+00
2.560000e-06	-1.340900e-06	-1.058196e-10	-9.601558e+00	-7.953090e+00
2.570000e-06	-1.490640e-06	-3.277689e-10	-1.067378e+01	-2.257665e+01
2.580000e-06	-1.639816e-06	-5.566466e-10	-1.174195e+01	-3.753659e+01
2.590000e-06	-1.788296e-06	-7.898238e-10	-1.280515e+01	-5.271639e+01
2.600000e-06	-1.936108e-06	-1.024301e-09	-1.386357e+01	-6.798390e+01
2.610000e-06	-2.083247e-06	-1.259150e-09	-1.491716e+01	-8.319899e+01
2.620000e-06	-2.229607e-06	-1.491738e-09	-1.596517e+01	-9.822192e+01
2.630000e-06	-2.375197e-06	-1.718385e-09	-1.700768e+01	-1.129217e+02
2.640000e-06	-2.519939e-06	-1.938116e-09	-1.804410e+01	-1.271835e+02
2.650000e-06	-2.663654e-06	-2.149491e-09	-1.907318e+01	-1.409145e+02
2.660000e-06	-2.806297e-06	-2.350426e-09	-2.009458e+01	-1.540475e+02
2.670000e-06	-2.947785e-06	-2.538565e-09	-2.110771e+01	-1.665424e+02
2.680000e-06	-3.088018e-06	-2.715761e-09	-2.211185e+01	-1.783847e+02
2.690000e-06	-3.227047e-06	-2.884081e-09	-2.310737e+01	-1.895828e+02
2.700000e-06	-3.364906e-06	-3.044488e-09	-2.409452e+01	-2.001630e+02
2.710000e-06	-3.501532e-06	-3.198309e-09	-2.507284e+01	-2.101637e+02
2.720000e-06	-3.636873e-06	-3.345280e-09	-2.604195e+01	-2.196294e+02
2.730000e-06	-3.770861e-06	-3.484349e-09	-2.700137e+01	-2.286057e+02
2.740000e-06	-3.903456e-06	-3.617544e-09	-2.795082e+01	-2.371345e+02
2.750000e-06	-4.034679e-06	-3.746320e-09	-2.889045e+01	-2.452510e+02
2.760000e-06	-4.164533e-06	-3.866309e-09	-2.982028e+01	-2.529826e+02
2.770000e-06	-4.293029e-06	-3.976735e-09	-3.074037e+01	-2.603491e+02
2.780000e-06	-4.419979e-06	-4.079686e-09	-3.164940e+01	-2.673642e+02
2.790000e-06	-4.545343e-06	-4.177106e-09	-3.254708e+01	-2.740375e+02
2.800000e-06	-4.669168e-06	-4.270406e-09	-3.343373e+01	-2.803778e+02
2.810000e-06	-4.791349e-06	-4.360225e-09	-3.430861e+01	-2.863955e+02
2.820000e-06	-4.911856e-06	-4.447494e-09	-3.517151e+01	-2.921042e+02
2.830000e-06	-5.030492e-06	-4.531850e-09	-3.602100e+01	-2.975226e+02
2.840000e-06	-5.147078e-06	-4.611921e-09	-3.685582e+01	-3.026737e+02
2.850000e-06	-5.261534e-06	-4.689306e-09	-3.767538e+01	-3.075843e+02
2.860000e-06	-5.373817e-06	-4.765561e-09	-3.847939e+01	-3.122832e+02
2.870000e-06	-5.484001e-06	-4.838035e-09	-3.926836e+01	-3.167985e+02
2.880000e-06	-5.592257e-06	-4.903487e-09	-4.004354e+01	-3.211555e+02
2.890000e-06	-5.698695e-06	-4.964475e-09	-4.080569e+01	-3.253743e+02
2.900000e-06	-5.803131e-06	-5.024197e-09	-4.155351e+01	-3.294682e+02
2.910000e-06	-5.905336e-06	-5.084479e-09	-4.228535e+01	-3.334432e+02
2.920000e-06	-6.005297e-06	-5.145454e-09	-4.300113e+01	-3.372980e+02
2.930000e-06	-6.103181e-06	-5.206190e-09	-4.370202e+01	-3.410252e+02
2.940000e-06	-6.198982e-06	-5.265069e-09	-4.438801e+01	-3.446132e+02
