# Temperatura_=_45.5
# Concentracion g/m^3_=_5000.0
# C_Vs_to_Am_M_A/Vsm_=_65563218390.804596
# pendiente_HvsI_1/m_=_3716.3
# ordenada_HvsI_A/m_=_1297.0
# frecuencia_Hz_=_302505.19579571456

Tiempo_(s)	Campo_(V.s)	Magnetizacion_(V.s)	Campo_(kA/m)	Magnetizacion_(A/m)
0.000000e+00	-8.001069e-06	-5.792641e-09	-5.686499e+01	-3.795994e+02
1.000000e-08	-7.996603e-06	-5.792558e-09	-5.683325e+01	-3.793424e+02
2.000000e-08	-7.989608e-06	-5.788072e-09	-5.678353e+01	-3.790229e+02
3.000000e-08	-7.979788e-06	-5.787640e-09	-5.671374e+01	-3.786503e+02
4.000000e-08	-7.967072e-06	-5.785638e-09	-5.662336e+01	-3.782341e+02
5.000000e-08	-7.951380e-06	-5.778248e-09	-5.651184e+01	-3.777826e+02
6.000000e-08	-7.933015e-06	-5.767692e-09	-5.638132e+01	-3.773020e+02
7.000000e-08	-7.912417e-06	-5.758119e-09	-5.623492e+01	-3.767963e+02
8.000000e-08	-7.889237e-06	-5.766422e-09	-5.607018e+01	-3.762662e+02
9.000000e-08	-7.862942e-06	-5.805837e-09	-5.588330e+01	-3.757101e+02
1.000000e-07	-7.833471e-06	-5.768488e-09	-5.567384e+01	-3.751242e+02
1.100000e-07	-7.801125e-06	-5.716675e-09	-5.544395e+01	-3.745031e+02
1.200000e-07	-7.766014e-06	-5.709225e-09	-5.519441e+01	-3.738407e+02
1.300000e-07	-7.728427e-06	-5.704748e-09	-5.492727e+01	-3.731306e+02
1.400000e-07	-7.688683e-06	-5.665094e-09	-5.464481e+01	-3.723672e+02
1.500000e-07	-7.646660e-06	-5.608359e-09	-5.434615e+01	-3.715452e+02
1.600000e-07	-7.602017e-06	-5.708561e-09	-5.402885e+01	-3.706604e+02
1.700000e-07	-7.554598e-06	-5.621364e-09	-5.369184e+01	-3.697095e+02
1.800000e-07	-7.504314e-06	-5.580836e-09	-5.333446e+01	-3.686896e+02
1.900000e-07	-7.451056e-06	-5.664178e-09	-5.295595e+01	-3.675980e+02
2.000000e-07	-7.394996e-06	-5.569245e-09	-5.255753e+01	-3.664323e+02
2.100000e-07	-7.336206e-06	-5.572953e-09	-5.213969e+01	-3.651900e+02
2.200000e-07	-7.274725e-06	-5.554219e-09	-5.170274e+01	-3.638684e+02
2.300000e-07	-7.210592e-06	-5.526286e-09	-5.124693e+01	-3.624654e+02
2.400000e-07	-7.143697e-06	-5.497131e-09	-5.077150e+01	-3.609791e+02
2.500000e-07	-7.074087e-06	-5.460945e-09	-5.027677e+01	-3.594087e+02
2.600000e-07	-7.001735e-06	-5.457836e-09	-4.976255e+01	-3.577546e+02
2.700000e-07	-6.926652e-06	-5.408621e-09	-4.922892e+01	-3.560186e+02
2.800000e-07	-6.848780e-06	-5.384572e-09	-4.867547e+01	-3.542039e+02
2.900000e-07	-6.768126e-06	-5.351735e-09	-4.810225e+01	-3.523151e+02
3.000000e-07	-6.685020e-06	-5.343929e-09	-4.751160e+01	-3.503570e+02
3.100000e-07	-6.599664e-06	-5.336015e-09	-4.690496e+01	-3.483348e+02
3.200000e-07	-6.511952e-06	-5.275134e-09	-4.628157e+01	-3.462525e+02
3.300000e-07	-6.421866e-06	-5.256674e-09	-4.564132e+01	-3.441128e+02
3.400000e-07	-6.329477e-06	-5.224806e-09	-4.498470e+01	-3.419161e+02
3.500000e-07	-6.234808e-06	-5.185448e-09	-4.431186e+01	-3.396601e+02
3.600000e-07	-6.137887e-06	-5.140911e-09	-4.362303e+01	-3.373403e+02
3.700000e-07	-6.038684e-06	-5.112461e-09	-4.291798e+01	-3.349503e+02
3.800000e-07	-5.937301e-06	-5.086226e-09	-4.219743e+01	-3.324820e+02
3.900000e-07	-5.833750e-06	-5.030679e-09	-4.146147e+01	-3.299273e+02
4.000000e-07	-5.728131e-06	-4.986897e-09	-4.071082e+01	-3.272787e+02
4.100000e-07	-5.620570e-06	-4.942642e-09	-3.994637e+01	-3.245305e+02
4.200000e-07	-5.511059e-06	-4.909401e-09	-3.916805e+01	-3.216795e+02
4.300000e-07	-5.399540e-06	-4.853358e-09	-3.837547e+01	-3.187253e+02
4.400000e-07	-5.285910e-06	-4.805213e-09	-3.756788e+01	-3.156699e+02
4.500000e-07	-5.170216e-06	-4.768332e-09	-3.674562e+01	-3.125178e+02
4.600000e-07	-5.052643e-06	-4.722926e-09	-3.591001e+01	-3.092745e+02
4.700000e-07	-4.933264e-06	-4.666145e-09	-3.506156e+01	-3.059453e+02
4.800000e-07	-4.812063e-06	-4.611542e-09	-3.420017e+01	-3.025344e+02
4.900000e-07	-4.689096e-06	-4.564239e-09	-3.332622e+01	-2.990433e+02
5.000000e-07	-4.564421e-06	-4.500909e-09	-3.244014e+01	-2.954702e+02
5.100000e-07	-4.438124e-06	-4.440794e-09	-3.154252e+01	-2.918098e+02
5.200000e-07	-4.310138e-06	-4.386278e-09	-3.063290e+01	-2.880531e+02
5.300000e-07	-4.180578e-06	-4.329983e-09	-2.971210e+01	-2.841889e+02
5.400000e-07	-4.049522e-06	-4.258311e-09	-2.878066e+01	-2.802041e+02
5.500000e-07	-3.916936e-06	-4.189559e-09	-2.783835e+01	-2.760861e+02
5.600000e-07	-3.782885e-06	-4.130784e-09	-2.688562e+01	-2.718235e+02
5.700000e-07	-3.647281e-06	-4.066726e-09	-2.592186e+01	-2.674082e+02
5.800000e-07	-3.510223e-06	-3.998189e-09	-2.494776e+01	-2.628353e+02
5.900000e-07	-3.371821e-06	-3.927650e-09	-2.396412e+01	-2.581043e+02
6.000000e-07	-3.232072e-06	-3.854994e-09	-2.297090e+01	-2.532179e+02
6.100000e-07	-3.090895e-06	-3.771913e-09	-2.196753e+01	-2.481812e+02
6.200000e-07	-2.948367e-06	-3.690848e-09	-2.095456e+01	-2.430006e+02
6.300000e-07	-2.804750e-06	-3.612887e-09	-1.993385e+01	-2.376809e+02
6.400000e-07	-2.660135e-06	-3.530701e-09	-1.890604e+01	-2.322248e+02
6.500000e-07	-2.514633e-06	-3.442391e-09	-1.787194e+01	-2.266302e+02
6.600000e-07	-2.368324e-06	-3.353315e-09	-1.683209e+01	-2.208903e+02
6.700000e-07	-2.221154e-06	-3.265667e-09	-1.578613e+01	-2.149927e+02
6.800000e-07	-2.073184e-06	-3.173138e-09	-1.473448e+01	-2.089206e+02
6.900000e-07	-1.924612e-06	-3.078776e-09	-1.367855e+01	-2.026539e+02
7.000000e-07	-1.775500e-06	-2.978680e-09	-1.261879e+01	-1.961713e+02
7.100000e-07	-1.625868e-06	-2.874876e-09	-1.155533e+01	-1.894525e+02
7.200000e-07	-1.475718e-06	-2.767665e-09	-1.048818e+01	-1.824801e+02
7.300000e-07	-1.324998e-06	-2.657792e-09	-9.416990e+00	-1.752414e+02
7.400000e-07	-1.173668e-06	-2.542676e-09	-8.341459e+00	-1.677290e+02
7.500000e-07	-1.021824e-06	-2.423780e-09	-7.262279e+00	-1.599409e+02
7.600000e-07	-8.696606e-07	-2.305128e-09	-6.180829e+00	-1.518788e+02
7.700000e-07	-7.172380e-07	-2.179882e-09	-5.097535e+00	-1.435462e+02
7.800000e-07	-5.645914e-07	-2.047991e-09	-4.012649e+00	-1.349455e+02
7.900000e-07	-4.117443e-07	-1.910339e-09	-2.926338e+00	-1.260748e+02
8.000000e-07	-2.587511e-07	-1.768804e-09	-1.838989e+00	-1.169254e+02
8.100000e-07	-1.056815e-07	-1.620554e-09	-7.510967e-01	-1.074790e+02
8.200000e-07	4.743535e-08	-1.466771e-09	3.371313e-01	-9.770791e+01
8.300000e-07	2.005614e-07	-1.311295e-09	1.425425e+00	-8.757488e+01
8.400000e-07	3.536532e-07	-1.152341e-09	2.513475e+00	-7.703604e+01
8.500000e-07	5.066957e-07	-9.856573e-10	3.601174e+00	-6.604468e+01
8.600000e-07	6.596185e-07	-8.111826e-10	4.688024e+00	-5.455659e+01
8.700000e-07	8.123921e-07	-6.308788e-10	5.773812e+00	-4.253610e+01
8.800000e-07	9.649911e-07	-4.402237e-10	6.858360e+00	-2.996220e+01
8.900000e-07	1.117226e-06	-2.414935e-10	7.940322e+00	-1.683406e+01
9.000000e-07	1.269017e-06	-3.466640e-11	9.019124e+00	-3.175275e+00
9.100000e-07	1.420310e-06	1.789341e-10	1.009439e+01	1.096385e+01
9.200000e-07	1.571036e-06	4.003588e-10	1.116563e+01	2.550623e+01
9.300000e-07	1.721136e-06	6.279069e-10	1.223241e+01	4.035038e+01
9.400000e-07	1.870547e-06	8.573177e-10	1.329430e+01	5.537506e+01
9.500000e-07	2.019299e-06	1.087607e-09	1.435151e+01	7.044583e+01
9.600000e-07	2.167361e-06	1.314799e-09	1.540381e+01	8.542283e+01
9.700000e-07	2.314638e-06	1.538196e-09	1.645054e+01	1.001691e+02
9.800000e-07	2.460968e-06	1.755319e-09	1.749053e+01	1.145584e+02
9.900000e-07	2.606443e-06	1.967435e-09	1.852444e+01	1.284825e+02
1.000000e-06	2.751082e-06	2.171971e-09	1.955242e+01	1.418558e+02
1.010000e-06	2.894623e-06	2.365849e-09	2.057259e+01	1.546187e+02
1.020000e-06	3.036984e-06	2.547193e-09	2.158437e+01	1.667380e+02
1.030000e-06	3.178107e-06	2.716900e-09	2.258736e+01	1.782054e+02
1.040000e-06	3.317911e-06	2.878102e-09	2.358097e+01	1.890337e+02
1.050000e-06	3.456417e-06	3.030803e-09	2.456536e+01	1.992521e+02
1.060000e-06	3.593668e-06	3.177563e-09	2.554082e+01	2.089004e+02
1.070000e-06	3.729533e-06	3.319058e-09	2.650644e+01	2.180232e+02
1.080000e-06	3.863985e-06	3.453962e-09	2.746202e+01	2.266652e+02
1.090000e-06	3.997078e-06	3.581139e-09	2.840793e+01	2.348667e+02
1.100000e-06	4.128706e-06	3.701828e-09	2.934343e+01	2.426617e+02
1.110000e-06	4.258814e-06	3.817505e-09	3.026813e+01	2.500764e+02
1.120000e-06	4.387422e-06	3.926908e-09	3.118217e+01	2.571302e+02
1.130000e-06	4.514499e-06	4.026944e-09	3.208533e+01	2.638369e+02
1.140000e-06	4.640101e-06	4.118768e-09	3.297800e+01	2.702073e+02
1.150000e-06	4.764154e-06	4.206563e-09	3.385967e+01	2.762517e+02
1.160000e-06	4.886532e-06	4.291140e-09	3.472943e+01	2.819820e+02
1.170000e-06	5.007193e-06	4.374043e-09	3.558699e+01	2.874138e+02
1.180000e-06	5.125999e-06	4.453256e-09	3.643137e+01	2.925668e+02
1.190000e-06	5.242880e-06	4.527830e-09	3.726206e+01	2.974646e+02
1.200000e-06	5.357767e-06	4.599645e-09	3.807859e+01	3.021336e+02
1.210000e-06	5.470576e-06	4.668843e-09	3.888034e+01	3.066011e+02
1.220000e-06	5.581341e-06	4.735392e-09	3.966756e+01	3.108932e+02
1.230000e-06	5.690184e-06	4.798082e-09	4.044113e+01	3.150324e+02
1.240000e-06	5.797023e-06	4.856745e-09	4.120045e+01	3.190357e+02
1.250000e-06	5.901636e-06	4.912089e-09	4.194395e+01	3.229135e+02
1.260000e-06	6.004054e-06	4.966874e-09	4.267186e+01	3.266694e+02
1.270000e-06	6.104333e-06	5.021183e-09	4.338456e+01	3.303003e+02
1.280000e-06	6.202355e-06	5.073709e-09	4.408121e+01	3.337984e+02
1.290000e-06	6.298004e-06	5.123686e-09	4.476101e+01	3.371525e+02
1.300000e-06	6.391338e-06	5.172129e-09	4.542435e+01	3.403508e+02
1.310000e-06	6.482460e-06	5.218491e-09	4.607197e+01	3.433829e+02
1.320000e-06	6.571245e-06	5.259948e-09	4.670299e+01	3.462417e+02
1.330000e-06	6.657676e-06	5.297345e-09	4.731726e+01	3.489248e+02
1.340000e-06	6.741820e-06	5.332928e-09	4.791529e+01	3.514349e+02
1.350000e-06	6.823586e-06	5.366715e-09	4.849641e+01	3.537797e+02
1.360000e-06	6.902870e-06	5.399120e-09	4.905990e+01	3.559711e+02
1.370000e-06	6.979641e-06	5.432814e-09	4.960552e+01	3.580233e+02
1.380000e-06	7.053709e-06	5.465744e-09	5.013194e+01	3.599515e+02
1.390000e-06	7.125154e-06	5.494977e-09	5.063971e+01	3.617699e+02
1.400000e-06	7.194145e-06	5.521112e-09	5.113004e+01	3.634904e+02
1.410000e-06	7.260457e-06	5.545429e-09	5.160133e+01	3.651213e+02
1.420000e-06	7.324113e-06	5.568420e-09	5.205375e+01	3.666676e+02
1.430000e-06	7.385368e-06	5.589943e-09	5.248910e+01	3.681303e+02
1.440000e-06	7.444082e-06	5.610294e-09	5.290639e+01	3.695080e+02
1.450000e-06	7.500134e-06	5.628028e-09	5.330476e+01	3.707976e+02
1.460000e-06	7.553472e-06	5.643753e-09	5.368384e+01	3.719958e+02
1.470000e-06	7.603718e-06	5.659712e-09	5.404095e+01	3.731002e+02
1.480000e-06	7.650940e-06	5.675965e-09	5.437656e+01	3.741106e+02
1.490000e-06	7.695539e-06	5.691769e-09	5.469354e+01	3.750291e+02
1.500000e-06	7.737390e-06	5.706674e-09	5.499097e+01	3.758605e+02
1.510000e-06	7.776356e-06	5.720281e-09	5.526791e+01	3.766116e+02
1.520000e-06	7.812706e-06	5.731597e-09	5.552626e+01	3.772906e+02
1.530000e-06	7.846293e-06	5.741039e-09	5.576497e+01	3.779056e+02
1.540000e-06	7.876978e-06	5.749515e-09	5.598306e+01	3.784638e+02
1.550000e-06	7.904995e-06	5.758002e-09	5.618217e+01	3.789703e+02
1.560000e-06	7.930125e-06	5.765650e-09	5.636078e+01	3.794274e+02
1.570000e-06	7.952292e-06	5.772340e-09	5.651832e+01	3.798344e+02
1.580000e-06	7.971753e-06	5.778669e-09	5.665664e+01	3.801878e+02
1.590000e-06	7.988335e-06	5.783413e-09	5.677449e+01	3.804820e+02
1.600000e-06	8.001864e-06	5.786988e-09	5.687064e+01	3.807101e+02
1.610000e-06	8.012249e-06	5.790405e-09	5.694445e+01	3.808656e+02
1.620000e-06	8.019578e-06	5.793155e-09	5.699654e+01	3.809428e+02
1.630000e-06	8.024158e-06	5.793819e-09	5.702909e+01	3.809387e+02
1.640000e-06	8.025905e-06	5.792707e-09	5.704150e+01	3.808528e+02
1.650000e-06	8.024774e-06	5.792634e-09	5.703346e+01	3.806880e+02
1.660000e-06	8.020977e-06	5.783010e-09	5.700648e+01	3.804501e+02
1.670000e-06	8.014532e-06	5.777807e-09	5.696068e+01	3.801470e+02
1.680000e-06	8.005424e-06	5.776672e-09	5.689594e+01	3.797880e+02
1.690000e-06	7.993614e-06	5.774384e-09	5.681201e+01	3.793828e+02
1.700000e-06	7.979033e-06	5.770443e-09	5.670838e+01	3.789401e+02
1.710000e-06	7.961886e-06	5.763192e-09	5.658651e+01	3.784669e+02
1.720000e-06	7.942421e-06	5.754586e-09	5.644817e+01	3.779676e+02
1.730000e-06	7.920349e-06	5.698288e-09	5.629130e+01	3.774439e+02
1.740000e-06	7.895037e-06	5.660552e-09	5.611140e+01	3.768951e+02
1.750000e-06	7.866198e-06	5.703138e-09	5.590644e+01	3.763177e+02
1.760000e-06	7.834028e-06	5.706180e-09	5.567780e+01	3.757067e+02
1.770000e-06	7.799188e-06	5.675062e-09	5.543019e+01	3.750562e+02
1.780000e-06	7.762032e-06	5.702714e-09	5.516611e+01	3.743599e+02
1.790000e-06	7.722675e-06	5.765063e-09	5.488640e+01	3.736117e+02
1.800000e-06	7.681308e-06	5.618402e-09	5.459239e+01	3.728064e+02
1.810000e-06	7.637459e-06	5.655319e-09	5.428075e+01	3.719394e+02
1.820000e-06	7.590850e-06	5.703896e-09	5.394949e+01	3.710072e+02
1.830000e-06	7.541481e-06	5.599442e-09	5.359861e+01	3.700067e+02
1.840000e-06	7.489129e-06	5.681936e-09	5.322654e+01	3.689353e+02
1.850000e-06	7.433919e-06	5.587619e-09	5.283416e+01	3.677906e+02
1.860000e-06	7.375964e-06	5.608074e-09	5.242226e+01	3.665699e+02
1.870000e-06	7.315312e-06	5.582213e-09	5.199119e+01	3.652707e+02
1.880000e-06	7.251891e-06	5.524021e-09	5.154045e+01	3.638906e+02
1.890000e-06	7.185711e-06	5.593692e-09	5.107010e+01	3.624277e+02
1.900000e-06	7.116845e-06	5.492785e-09	5.058066e+01	3.608809e+02
1.910000e-06	7.045105e-06	5.502859e-09	5.007079e+01	3.592500e+02
1.920000e-06	6.970636e-06	5.459926e-09	4.954152e+01	3.575366e+02
1.930000e-06	6.893474e-06	5.445676e-09	4.899312e+01	3.557435e+02
1.940000e-06	6.813572e-06	5.435364e-09	4.842524e+01	3.538748e+02
1.950000e-06	6.731165e-06	5.348626e-09	4.783956e+01	3.519354e+02
1.960000e-06	6.646272e-06	5.367320e-09	4.723621e+01	3.499306e+02
1.970000e-06	6.558923e-06	5.292420e-09	4.661541e+01	3.478646e+02
1.980000e-06	6.469215e-06	5.274495e-09	4.597784e+01	3.457406e+02
1.990000e-06	6.377246e-06	5.253341e-09	4.532419e+01	3.435597e+02
2.000000e-06	6.283061e-06	5.230959e-09	4.465481e+01	3.413205e+02
2.010000e-06	6.186598e-06	5.183344e-09	4.396923e+01	3.390191e+02
2.020000e-06	6.087883e-06	5.116473e-09	4.326764e+01	3.366493e+02
2.030000e-06	5.986955e-06	5.098265e-09	4.255033e+01	3.342037e+02
2.040000e-06	5.883886e-06	5.061761e-09	4.181780e+01	3.316740e+02
2.050000e-06	5.778795e-06	5.037626e-09	4.107090e+01	3.290523e+02
2.060000e-06	5.671739e-06	4.980478e-09	4.031004e+01	3.263326e+02
2.070000e-06	5.562711e-06	4.946749e-09	3.953515e+01	3.235106e+02
2.080000e-06	5.451697e-06	4.898200e-09	3.874616e+01	3.205852e+02
2.090000e-06	5.338644e-06	4.850381e-09	3.794267e+01	3.175578e+02
2.100000e-06	5.223537e-06	4.806282e-09	3.712459e+01	3.144323e+02
2.110000e-06	5.106413e-06	4.765056e-09	3.629217e+01	3.112139e+02
2.120000e-06	4.987385e-06	4.708083e-09	3.544621e+01	3.079083e+02
2.130000e-06	4.866561e-06	4.640719e-09	3.458749e+01	3.045199e+02
2.140000e-06	4.743896e-06	4.595873e-09	3.371570e+01	3.010512e+02
2.150000e-06	4.619424e-06	4.551321e-09	3.283105e+01	2.975014e+02
2.160000e-06	4.493270e-06	4.500586e-09	3.193445e+01	2.938662e+02
2.170000e-06	4.365539e-06	4.434096e-09	3.102665e+01	2.901376e+02
2.180000e-06	4.236287e-06	4.381316e-09	3.010803e+01	2.863048e+02
2.190000e-06	4.105423e-06	4.325021e-09	2.917796e+01	2.823553e+02
2.200000e-06	3.972948e-06	4.266169e-09	2.823643e+01	2.782760e+02
2.210000e-06	3.838988e-06	4.201613e-09	2.728436e+01	2.740553e+02
2.220000e-06	3.703613e-06	4.133841e-09	2.632222e+01	2.696837e+02
2.230000e-06	3.566916e-06	4.055769e-09	2.535069e+01	2.651556e+02
2.240000e-06	3.428801e-06	3.977189e-09	2.436908e+01	2.604690e+02
2.250000e-06	3.289249e-06	3.910281e-09	2.337726e+01	2.556260e+02
2.260000e-06	3.148471e-06	3.845840e-09	2.237673e+01	2.506312e+02
2.270000e-06	3.006501e-06	3.770860e-09	2.136773e+01	2.454905e+02
2.280000e-06	2.863320e-06	3.683605e-09	2.035011e+01	2.402097e+02
2.290000e-06	2.719047e-06	3.600284e-09	1.932474e+01	2.347920e+02
2.300000e-06	2.573918e-06	3.514469e-09	1.829328e+01	2.292369e+02
2.310000e-06	2.427997e-06	3.432478e-09	1.725620e+01	2.235390e+02
2.320000e-06	2.281238e-06	3.347826e-09	1.621315e+01	2.176875e+02
2.330000e-06	2.133589e-06	3.252456e-09	1.516379e+01	2.116666e+02
2.340000e-06	1.985094e-06	3.150272e-09	1.410841e+01	2.054572e+02
2.350000e-06	1.835951e-06	3.046618e-09	1.304842e+01	1.990379e+02
2.360000e-06	1.686322e-06	2.945998e-09	1.198498e+01	1.923880e+02
2.370000e-06	1.536210e-06	2.840417e-09	1.091812e+01	1.854891e+02
2.380000e-06	1.385572e-06	2.732291e-09	9.847504e+00	1.783269e+02
2.390000e-06	1.234457e-06	2.622399e-09	8.773498e+00	1.708926e+02
2.400000e-06	1.082903e-06	2.508921e-09	7.696377e+00	1.631827e+02
2.410000e-06	9.309828e-07	2.392297e-09	6.616657e+00	1.551980e+02
2.420000e-06	7.788038e-07	2.270137e-09	5.535094e+00	1.469418e+02
2.430000e-06	6.264230e-07	2.141004e-09	4.452097e+00	1.384172e+02
2.440000e-06	4.738397e-07	2.001775e-09	3.367661e+00	1.296237e+02
2.450000e-06	3.210926e-07	1.858937e-09	2.282061e+00	1.205547e+02
2.460000e-06	1.682304e-07	1.717652e-09	1.195643e+00	1.111951e+02
2.470000e-06	1.525372e-08	1.572327e-09	1.084108e-01	1.015197e+02
2.480000e-06	-1.378039e-07	1.419314e-09	-9.793963e-01	9.149379e+01
2.490000e-06	-2.908518e-07	1.259341e-09	-2.067135e+00	8.107510e+01
2.500000e-06	-4.437653e-07	1.093451e-09	-3.153917e+00	7.021723e+01
2.510000e-06	-5.965171e-07	9.206785e-10	-4.239551e+00	5.887467e+01
2.520000e-06	-7.491624e-07	7.414200e-10	-5.324427e+00	4.700867e+01
2.530000e-06	-9.016257e-07	5.553106e-10	-6.408010e+00	3.459342e+01
2.540000e-06	-1.053771e-06	3.575258e-10	-7.489335e+00	2.162183e+01
2.550000e-06	-1.205527e-06	1.475051e-10	-8.567892e+00	8.110186e+00
2.560000e-06	-1.356836e-06	-6.992054e-11	-9.643271e+00	-5.898944e+00
2.570000e-06	-1.507642e-06	-2.893149e-10	-1.071507e+01	-2.033599e+01
2.580000e-06	-1.657880e-06	-5.111609e-10	-1.178284e+01	-3.510606e+01
2.590000e-06	-1.807507e-06	-7.389067e-10	-1.284627e+01	-5.009297e+01
2.600000e-06	-1.956545e-06	-9.707575e-10	-1.390551e+01	-6.516529e+01
2.610000e-06	-2.104906e-06	-1.202635e-09	-1.495993e+01	-8.018386e+01
2.620000e-06	-2.252359e-06	-1.432571e-09	-1.600791e+01	-9.501004e+01
2.630000e-06	-2.398856e-06	-1.658773e-09	-1.704909e+01	-1.095138e+02
2.640000e-06	-2.544484e-06	-1.877988e-09	-1.808409e+01	-1.235812e+02
2.650000e-06	-2.689211e-06	-2.087750e-09	-1.911269e+01	-1.371196e+02
2.660000e-06	-2.832892e-06	-2.286603e-09	-2.013385e+01	-1.500620e+02
2.670000e-06	-2.975466e-06	-2.472585e-09	-2.114716e+01	-1.623676e+02
2.680000e-06	-3.116897e-06	-2.646184e-09	-2.215233e+01	-1.740213e+02
2.690000e-06	-3.257133e-06	-2.809724e-09	-2.314901e+01	-1.850304e+02
2.700000e-06	-3.396022e-06	-2.965096e-09	-2.413612e+01	-1.954198e+02
2.710000e-06	-3.533521e-06	-3.114672e-09	-2.511335e+01	-2.052271e+02
2.720000e-06	-3.669740e-06	-3.259359e-09	-2.608148e+01	-2.144959e+02
2.730000e-06	-3.804620e-06	-3.396321e-09	-2.704009e+01	-2.232714e+02
2.740000e-06	-3.938184e-06	-3.528013e-09	-2.798936e+01	-2.315955e+02
2.750000e-06	-4.070359e-06	-3.656376e-09	-2.892875e+01	-2.395042e+02
2.760000e-06	-4.201075e-06	-3.774877e-09	-2.985777e+01	-2.470259e+02
2.770000e-06	-4.330380e-06	-3.881672e-09	-3.077676e+01	-2.541817e+02
2.780000e-06	-4.458233e-06	-3.979945e-09	-3.168544e+01	-2.609869e+02
2.790000e-06	-4.584521e-06	-4.073797e-09	-3.258299e+01	-2.674529e+02
2.800000e-06	-4.709178e-06	-4.163782e-09	-3.346895e+01	-2.735898e+02
2.810000e-06	-4.832150e-06	-4.250106e-09	-3.434293e+01	-2.794090e+02
2.820000e-06	-4.953339e-06	-4.334672e-09	-3.520424e+01	-2.849248e+02
2.830000e-06	-5.072707e-06	-4.417725e-09	-3.605261e+01	-2.901557e+02
2.840000e-06	-5.190142e-06	-4.498441e-09	-3.688724e+01	-2.951243e+02
2.850000e-06	-5.305491e-06	-4.574673e-09	-3.770705e+01	-2.998564e+02
2.860000e-06	-5.418650e-06	-4.648042e-09	-3.851129e+01	-3.043793e+02
2.870000e-06	-5.529633e-06	-4.716623e-09	-3.930006e+01	-3.087196e+02
2.880000e-06	-5.638614e-06	-4.777013e-09	-4.007461e+01	-3.129010e+02
2.890000e-06	-5.745731e-06	-4.833795e-09	-4.083591e+01	-3.169422e+02
2.900000e-06	-5.850888e-06	-4.892228e-09	-4.158328e+01	-3.208558e+02
2.910000e-06	-5.953796e-06	-4.952653e-09	-4.231467e+01	-3.246471e+02
2.920000e-06	-6.054407e-06	-5.013286e-09	-4.302972e+01	-3.283148e+02
2.930000e-06	-6.152863e-06	-5.071926e-09	-4.372947e+01	-3.318524e+02
2.940000e-06	-6.249199e-06	-5.127456e-09	-4.441415e+01	-3.352494e+02
